MLII,V5,time_ms
-0.145,-0.065,0.0
-0.145,-0.065,2.7777777777777777
-0.145,-0.065,5.555555555555555
-0.145,-0.065,8.333333333333334
-0.145,-0.065,11.11111111111111
-0.145,-0.065,13.88888888888889
-0.145,-0.065,16.666666666666668
-0.145,-0.065,19.444444444444443
-0.12,-0.08,22.22222222222222
-0.135,-0.08,25.0
-0.145,-0.085,27.77777777777778
-0.15,-0.085,30.555555555555557
-0.16,-0.075,33.333333333333336
-0.155,-0.07,36.111111111111114
-0.16,-0.07,38.888888888888886
-0.175,-0.065,41.666666666666664
-0.18,-0.055,44.44444444444444
-0.185,-0.05,47.22222222222222
-0.17,-0.05,50.0
-0.155,-0.04,52.77777777777778
-0.175,-0.04,55.55555555555556
-0.18,-0.055,58.333333333333336
-0.19,-0.075,61.111111111111114
-0.18,-0.08,63.888888888888886
-0.155,-0.085,66.66666666666667
-0.135,-0.07,69.44444444444444
-0.155,-0.08,72.22222222222223
-0.19,-0.08,75.0
-0.205,-0.09,77.77777777777777
-0.235,-0.095,80.55555555555556
-0.225,-0.09,83.33333333333333
-0.245,-0.095,86.11111111111111
-0.25,-0.11,88.88888888888889
-0.26,-0.12,91.66666666666667
-0.275,-0.145,94.44444444444444
-0.275,-0.135,97.22222222222223
-0.275,-0.105,100.0
-0.265,-0.095,102.77777777777777
-0.255,-0.105,105.55555555555556
-0.265,-0.12,108.33333333333333
-0.275,-0.135,111.11111111111111
-0.29,-0.125,113.88888888888889
-0.29,-0.125,116.66666666666667
-0.29,-0.115,119.44444444444444
-0.29,-0.115,122.22222222222223
-0.285,-0.125,125.0
-0.295,-0.14,127.77777777777777
-0.305,-0.14,130.55555555555554
-0.285,-0.13,133.33333333333334
-0.275,-0.125,136.11111111111111
-0.275,-0.14,138.88888888888889
-0.28,-0.145,141.66666666666666
-0.285,-0.15,144.44444444444446
-0.305,-0.15,147.22222222222223
-0.29,-0.13,150.0
-0.3,-0.115,152.77777777777777
-0.28,-0.125,155.55555555555554
-0.29,-0.135,158.33333333333334
-0.3,-0.16,161.11111111111111
-0.315,-0.195,163.88888888888889
-0.32,-0.2,166.66666666666666
-0.335,-0.205,169.44444444444446
-0.36,-0.225,172.22222222222223
-0.385,-0.255,175.0
-0.385,-0.3,177.77777777777777
-0.405,-0.29,180.55555555555554
-0.455,-0.235,183.33333333333334
-0.485,-0.13,186.11111111111111
-0.485,-0.035,188.88888888888889
-0.425,0.05,191.66666666666666
-0.33,0.12,194.44444444444446
-0.22,0.2,197.22222222222223
-0.07,0.31,200.0
0.12,0.435,202.77777777777777
0.375,0.535,205.55555555555554
0.62,0.58,208.33333333333334
0.78,0.475,211.11111111111111
0.84,0.21,213.88888888888889
0.765,-0.085,216.66666666666666
0.52,-0.23,219.44444444444446
0.17,-0.25,222.22222222222223
-0.165,-0.215,225.0
-0.365,-0.18,227.77777777777777
-0.435,-0.185,230.55555555555554
-0.425,-0.16,233.33333333333334
-0.37,-0.15,236.11111111111111
-0.33,-0.15,238.88888888888889
-0.325,-0.18,241.66666666666666
-0.335,-0.18,244.44444444444446
-0.345,-0.16,247.22222222222223
-0.33,-0.165,250.0
-0.325,-0.17,252.77777777777777
-0.315,-0.165,255.55555555555554
-0.31,-0.185,258.3333333333333
-0.32,-0.185,261.1111111111111
-0.335,-0.185,263.8888888888889
-0.34,-0.17,266.6666666666667
-0.325,-0.16,269.44444444444446
-0.345,-0.155,272.22222222222223
-0.335,-0.175,275.0
-0.33,-0.195,277.77777777777777
-0.335,-0.185,280.55555555555554
-0.33,-0.185,283.3333333333333
-0.325,-0.175,286.1111111111111
-0.33,-0.175,288.8888888888889
-0.33,-0.195,291.6666666666667
-0.345,-0.19,294.44444444444446
-0.355,-0.18,297.22222222222223
-0.335,-0.165,300.0
-0.325,-0.17,302.77777777777777
-0.305,-0.17,305.55555555555554
-0.32,-0.17,308.3333333333333
-0.32,-0.19,311.1111111111111
-0.33,-0.185,313.8888888888889
-0.34,-0.18,316.6666666666667
-0.335,-0.17,319.44444444444446
-0.34,-0.175,322.22222222222223
-0.345,-0.19,325.0
-0.355,-0.2,327.77777777777777
-0.355,-0.195,330.55555555555554
-0.34,-0.185,333.3333333333333
-0.33,-0.17,336.1111111111111
-0.33,-0.17,338.8888888888889
-0.33,-0.185,341.6666666666667
-0.34,-0.195,344.44444444444446
-0.35,-0.175,347.22222222222223
-0.325,-0.2,350.0
-0.325,-0.185,352.77777777777777
-0.33,-0.18,355.55555555555554
-0.33,-0.185,358.3333333333333
-0.335,-0.205,361.1111111111111
-0.335,-0.19,363.8888888888889
-0.34,-0.18,366.6666666666667
-0.33,-0.185,369.44444444444446
-0.34,-0.2,372.22222222222223
-0.35,-0.215,375.0
-0.355,-0.205,377.77777777777777
-0.35,-0.21,380.55555555555554
-0.345,-0.2,383.3333333333333
-0.33,-0.185,386.1111111111111
-0.32,-0.205,388.8888888888889
-0.335,-0.2,391.6666666666667
-0.33,-0.21,394.44444444444446
-0.345,-0.205,397.22222222222223
-0.33,-0.185,400.0
-0.335,-0.185,402.77777777777777
-0.335,-0.2,405.55555555555554
-0.345,-0.215,408.3333333333333
-0.345,-0.225,411.1111111111111
-0.355,-0.22,413.8888888888889
-0.34,-0.2,416.6666666666667
-0.34,-0.2,419.44444444444446
-0.335,-0.215,422.22222222222223
-0.33,-0.225,425.0
-0.35,-0.235,427.77777777777777
-0.35,-0.245,430.55555555555554
-0.345,-0.24,433.3333333333333
-0.335,-0.24,436.1111111111111
-0.335,-0.24,438.8888888888889
-0.335,-0.245,441.6666666666667
-0.35,-0.26,444.44444444444446
-0.355,-0.26,447.22222222222223
-0.355,-0.265,450.0
-0.345,-0.265,452.77777777777777
-0.345,-0.28,455.55555555555554
-0.335,-0.285,458.3333333333333
-0.35,-0.295,461.1111111111111
-0.36,-0.295,463.8888888888889
-0.36,-0.3,466.6666666666667
-0.36,-0.29,469.44444444444446
-0.365,-0.3,472.22222222222223
-0.36,-0.315,475.0
-0.37,-0.315,477.77777777777777
-0.385,-0.315,480.55555555555554
-0.37,-0.315,483.3333333333333
-0.36,-0.31,486.1111111111111
-0.355,-0.31,488.8888888888889
-0.36,-0.325,491.6666666666667
-0.375,-0.33,494.44444444444446
-0.375,-0.325,497.22222222222223
-0.365,-0.315,500.0
-0.365,-0.305,502.77777777777777
-0.36,-0.305,505.55555555555554
-0.36,-0.29,508.3333333333333
-0.365,-0.29,511.1111111111111
-0.37,-0.275,513.8888888888889
-0.355,-0.27,516.6666666666666
-0.33,-0.245,519.4444444444445
-0.325,-0.24,522.2222222222222
-0.325,-0.25,525.0
-0.335,-0.25,527.7777777777778
-0.34,-0.235,530.5555555555555
-0.315,-0.22,533.3333333333334
-0.3,-0.195,536.1111111111111
-0.3,-0.19,538.8888888888889
-0.29,-0.19,541.6666666666666
-0.295,-0.19,544.4444444444445
-0.29,-0.18,547.2222222222222
-0.285,-0.16,550.0
-0.275,-0.145,552.7777777777778
-0.255,-0.15,555.5555555555555
-0.25,-0.16,558.3333333333334
-0.25,-0.16,561.1111111111111
-0.265,-0.155,563.8888888888889
-0.255,-0.145,566.6666666666666
-0.245,-0.14,569.4444444444445
-0.23,-0.16,572.2222222222222
-0.245,-0.15,575.0
-0.245,-0.175,577.7777777777778
-0.255,-0.17,580.5555555555555
-0.255,-0.16,583.3333333333334
-0.24,-0.16,586.1111111111111
-0.25,-0.15,588.8888888888889
-0.255,-0.155,591.6666666666666
-0.245,-0.16,594.4444444444445
-0.255,-0.17,597.2222222222222
-0.25,-0.155,600.0
-0.25,-0.155,602.7777777777778
-0.265,-0.15,605.5555555555555
-0.26,-0.165,608.3333333333334
-0.26,-0.175,611.1111111111111
-0.265,-0.165,613.8888888888889
-0.27,-0.165,616.6666666666666
-0.265,-0.16,619.4444444444445
-0.26,-0.16,622.2222222222222
-0.275,-0.18,625.0
-0.28,-0.175,627.7777777777778
-0.29,-0.185,630.5555555555555
-0.275,-0.165,633.3333333333334
-0.27,-0.15,636.1111111111111
-0.26,-0.15,638.8888888888889
-0.28,-0.17,641.6666666666666
-0.28,-0.185,644.4444444444445
-0.285,-0.195,647.2222222222222
-0.275,-0.19,650.0
-0.275,-0.19,652.7777777777778
-0.265,-0.185,655.5555555555555
-0.27,-0.19,658.3333333333334
-0.285,-0.21,661.1111111111111
-0.29,-0.195,663.8888888888889
-0.28,-0.19,666.6666666666666
-0.275,-0.18,669.4444444444445
-0.285,-0.205,672.2222222222222
-0.28,-0.215,675.0
-0.3,-0.225,677.7777777777778
-0.3,-0.21,680.5555555555555
-0.305,-0.205,683.3333333333334
-0.295,-0.195,686.1111111111111
-0.3,-0.2,688.8888888888889
-0.31,-0.195,691.6666666666666
-0.31,-0.21,694.4444444444445
-0.305,-0.215,697.2222222222222
-0.295,-0.205,700.0
-0.285,-0.185,702.7777777777778
-0.285,-0.195,705.5555555555555
-0.29,-0.195,708.3333333333334
-0.295,-0.22,711.1111111111111
-0.31,-0.22,713.8888888888889
-0.29,-0.21,716.6666666666666
-0.295,-0.215,719.4444444444445
-0.3,-0.22,722.2222222222222
-0.305,-0.22,725.0
-0.31,-0.225,727.7777777777778
-0.325,-0.21,730.5555555555555
-0.31,-0.2,733.3333333333334
-0.3,-0.21,736.1111111111111
-0.29,-0.225,738.8888888888889
-0.31,-0.23,741.6666666666666
-0.325,-0.225,744.4444444444445
-0.33,-0.22,747.2222222222222
-0.315,-0.23,750.0
-0.3,-0.21,752.7777777777778
-0.305,-0.215,755.5555555555555
-0.31,-0.215,758.3333333333334
-0.32,-0.23,761.1111111111111
-0.33,-0.215,763.8888888888889
-0.325,-0.22,766.6666666666666
-0.315,-0.205,769.4444444444445
-0.31,-0.205,772.2222222222222
-0.305,-0.21,775.0
-0.305,-0.215,777.7777777777778
-0.31,-0.225,780.5555555555555
-0.3,-0.215,783.3333333333334
-0.305,-0.215,786.1111111111111
-0.29,-0.215,788.8888888888889
-0.3,-0.225,791.6666666666666
-0.3,-0.225,794.4444444444445
-0.305,-0.225,797.2222222222222
-0.305,-0.205,800.0
-0.29,-0.195,802.7777777777778
-0.28,-0.21,805.5555555555555
-0.295,-0.21,808.3333333333334
-0.305,-0.215,811.1111111111111
-0.315,-0.235,813.8888888888889
-0.305,-0.23,816.6666666666666
-0.295,-0.22,819.4444444444445
-0.29,-0.22,822.2222222222222
-0.28,-0.23,825.0
-0.27,-0.225,827.7777777777778
-0.275,-0.23,830.5555555555555
-0.275,-0.215,833.3333333333334
-0.27,-0.195,836.1111111111111
-0.25,-0.195,838.8888888888889
-0.25,-0.19,841.6666666666666
-0.255,-0.2,844.4444444444445
-0.225,-0.195,847.2222222222222
-0.22,-0.18,850.0
-0.205,-0.17,852.7777777777778
-0.2,-0.18,855.5555555555555
-0.205,-0.175,858.3333333333334
-0.215,-0.195,861.1111111111111
-0.23,-0.195,863.8888888888889
-0.22,-0.17,866.6666666666666
-0.225,-0.175,869.4444444444445
-0.225,-0.175,872.2222222222222
-0.225,-0.18,875.0
-0.23,-0.185,877.7777777777778
-0.235,-0.185,880.5555555555555
-0.24,-0.175,883.3333333333334
-0.235,-0.175,886.1111111111111
-0.22,-0.175,888.8888888888889
-0.21,-0.19,891.6666666666666
-0.205,-0.205,894.4444444444445
-0.245,-0.2,897.2222222222222
-0.285,-0.205,900.0
-0.285,-0.205,902.7777777777778
-0.3,-0.215,905.5555555555555
-0.31,-0.215,908.3333333333334
-0.33,-0.225,911.1111111111111
-0.33,-0.215,913.8888888888889
-0.325,-0.21,916.6666666666666
-0.315,-0.2,919.4444444444445
-0.32,-0.215,922.2222222222222
-0.315,-0.225,925.0
-0.325,-0.245,927.7777777777778
-0.34,-0.245,930.5555555555555
-0.345,-0.25,933.3333333333334
-0.34,-0.225,936.1111111111111
-0.34,-0.23,938.8888888888889
-0.35,-0.235,941.6666666666666
-0.345,-0.24,944.4444444444445
-0.355,-0.235,947.2222222222222
-0.33,-0.235,950.0
-0.335,-0.22,952.7777777777778
-0.33,-0.23,955.5555555555555
-0.32,-0.24,958.3333333333334
-0.345,-0.24,961.1111111111111
-0.355,-0.245,963.8888888888889
-0.34,-0.225,966.6666666666666
-0.33,-0.225,969.4444444444445
-0.325,-0.235,972.2222222222222
-0.33,-0.25,975.0
-0.35,-0.27,977.7777777777778
-0.365,-0.28,980.5555555555555
-0.36,-0.29,983.3333333333334
-0.38,-0.3,986.1111111111111
-0.425,-0.33,988.8888888888889
-0.445,-0.36,991.6666666666666
-0.475,-0.355,994.4444444444445
-0.51,-0.305,997.2222222222222
-0.535,-0.205,1000.0
-0.505,-0.08,1002.7777777777778
-0.415,0.015,1005.5555555555555
-0.3,0.065,1008.3333333333334
-0.16,0.115,1011.1111111111111
-0.015,0.19,1013.8888888888889
0.235,0.3,1016.6666666666666
0.49,0.41,1019.4444444444445
0.72,0.495,1022.2222222222222
0.875,0.485,1025.0
0.94,0.36,1027.7777777777778
0.905,0.105,1030.5555555555557
0.755,-0.165,1033.3333333333333
0.49,-0.35,1036.111111111111
0.165,-0.45,1038.888888888889
-0.11,-0.47,1041.6666666666667
-0.27,-0.45,1044.4444444444443
-0.39,-0.395,1047.2222222222222
-0.45,-0.345,1050.0
-0.475,-0.31,1052.7777777777778
-0.455,-0.295,1055.5555555555557
-0.425,-0.285,1058.3333333333333
-0.39,-0.295,1061.111111111111
-0.39,-0.295,1063.888888888889
-0.385,-0.28,1066.6666666666667
-0.39,-0.285,1069.4444444444443
-0.38,-0.285,1072.2222222222222
-0.38,-0.285,1075.0
-0.38,-0.29,1077.7777777777778
-0.395,-0.275,1080.5555555555557
-0.385,-0.275,1083.3333333333333
-0.385,-0.275,1086.111111111111
-0.385,-0.27,1088.888888888889
-0.375,-0.285,1091.6666666666667
-0.395,-0.295,1094.4444444444443
-0.41,-0.29,1097.2222222222222
-0.41,-0.275,1100.0
-0.4,-0.265,1102.7777777777778
-0.395,-0.265,1105.5555555555557
-0.39,-0.275,1108.3333333333333
-0.405,-0.295,1111.111111111111
-0.395,-0.29,1113.888888888889
-0.385,-0.285,1116.6666666666667
-0.375,-0.27,1119.4444444444443
-0.39,-0.265,1122.2222222222222
-0.39,-0.275,1125.0
-0.405,-0.28,1127.7777777777778
-0.41,-0.28,1130.5555555555557
-0.41,-0.27,1133.3333333333333
-0.39,-0.265,1136.111111111111
-0.39,-0.27,1138.888888888889
-0.395,-0.27,1141.6666666666667
-0.405,-0.28,1144.4444444444443
-0.415,-0.27,1147.2222222222222
-0.4,-0.265,1150.0
-0.41,-0.265,1152.7777777777778
-0.405,-0.265,1155.5555555555557
-0.41,-0.27,1158.3333333333333
-0.415,-0.285,1161.111111111111
-0.41,-0.285,1163.888888888889
-0.4,-0.265,1166.6666666666667
-0.4,-0.265,1169.4444444444443
-0.395,-0.255,1172.2222222222222
-0.39,-0.275,1175.0
-0.405,-0.275,1177.7777777777778
-0.41,-0.28,1180.5555555555557
-0.39,-0.27,1183.3333333333333
-0.39,-0.265,1186.111111111111
-0.385,-0.275,1188.888888888889
-0.385,-0.285,1191.6666666666667
-0.41,-0.28,1194.4444444444443
-0.405,-0.28,1197.2222222222222
-0.395,-0.275,1200.0
-0.39,-0.275,1202.7777777777778
-0.375,-0.275,1205.5555555555557
-0.39,-0.285,1208.3333333333333
-0.395,-0.295,1211.111111111111
-0.41,-0.295,1213.888888888889
-0.4,-0.275,1216.6666666666667
-0.39,-0.275,1219.4444444444443
-0.39,-0.285,1222.2222222222222
-0.385,-0.29,1225.0
-0.405,-0.315,1227.7777777777778
-0.415,-0.315,1230.5555555555557
-0.415,-0.305,1233.3333333333333
-0.4,-0.29,1236.111111111111
-0.395,-0.31,1238.888888888889
-0.405,-0.32,1241.6666666666667
-0.415,-0.32,1244.4444444444443
-0.42,-0.335,1247.2222222222222
-0.42,-0.33,1250.0
-0.41,-0.325,1252.7777777777778
-0.415,-0.345,1255.5555555555557
-0.425,-0.35,1258.3333333333333
-0.42,-0.365,1261.111111111111
-0.435,-0.37,1263.888888888889
-0.43,-0.355,1266.6666666666667
-0.43,-0.36,1269.4444444444443
-0.42,-0.37,1272.2222222222222
-0.43,-0.39,1275.0
-0.45,-0.395,1277.7777777777778
-0.455,-0.4,1280.5555555555557
-0.45,-0.39,1283.3333333333333
-0.435,-0.385,1286.111111111111
-0.445,-0.39,1288.888888888889
-0.45,-0.4,1291.6666666666667
-0.455,-0.41,1294.4444444444443
-0.47,-0.42,1297.2222222222222
-0.46,-0.405,1300.0
-0.455,-0.41,1302.7777777777778
-0.45,-0.41,1305.5555555555557
-0.455,-0.4,1308.3333333333333
-0.47,-0.405,1311.111111111111
-0.475,-0.39,1313.888888888889
-0.46,-0.385,1316.6666666666667
-0.45,-0.365,1319.4444444444443
-0.445,-0.355,1322.2222222222222
-0.44,-0.345,1325.0
-0.435,-0.355,1327.7777777777778
-0.44,-0.33,1330.5555555555557
-0.41,-0.295,1333.3333333333333
-0.395,-0.275,1336.111111111111
-0.37,-0.27,1338.888888888889
-0.365,-0.26,1341.6666666666667
-0.36,-0.265,1344.4444444444443
-0.365,-0.265,1347.2222222222222
-0.34,-0.245,1350.0
-0.325,-0.225,1352.7777777777778
-0.315,-0.21,1355.5555555555557
-0.32,-0.215,1358.3333333333333
-0.33,-0.215,1361.111111111111
-0.33,-0.205,1363.888888888889
-0.32,-0.195,1366.6666666666667
-0.31,-0.185,1369.4444444444443
-0.3,-0.185,1372.2222222222222
-0.3,-0.195,1375.0
-0.32,-0.195,1377.7777777777778
-0.32,-0.195,1380.5555555555557
-0.315,-0.185,1383.3333333333333
-0.305,-0.17,1386.111111111111
-0.305,-0.185,1388.888888888889
-0.295,-0.195,1391.6666666666667
-0.32,-0.195,1394.4444444444443
-0.33,-0.195,1397.2222222222222
-0.305,-0.185,1400.0
-0.31,-0.175,1402.7777777777778
-0.3,-0.175,1405.5555555555557
-0.3,-0.185,1408.3333333333333
-0.32,-0.195,1411.111111111111
-0.325,-0.195,1413.888888888889
-0.31,-0.195,1416.6666666666667
-0.305,-0.18,1419.4444444444443
-0.315,-0.185,1422.2222222222222
-0.305,-0.19,1425.0
-0.315,-0.195,1427.7777777777778
-0.315,-0.195,1430.5555555555557
-0.31,-0.19,1433.3333333333333
-0.295,-0.185,1436.111111111111
-0.29,-0.185,1438.888888888889
-0.305,-0.19,1441.6666666666667
-0.31,-0.2,1444.4444444444443
-0.32,-0.215,1447.2222222222222
-0.315,-0.195,1450.0
-0.3,-0.185,1452.7777777777778
-0.315,-0.185,1455.5555555555557
-0.315,-0.185,1458.3333333333333
-0.315,-0.2,1461.111111111111
-0.33,-0.205,1463.888888888889
-0.315,-0.19,1466.6666666666667
-0.32,-0.19,1469.4444444444443
-0.315,-0.2,1472.2222222222222
-0.325,-0.2,1475.0
-0.335,-0.195,1477.7777777777778
-0.34,-0.22,1480.5555555555557
-0.335,-0.205,1483.3333333333333
-0.335,-0.19,1486.111111111111
-0.33,-0.2,1488.888888888889
-0.325,-0.22,1491.6666666666667
-0.345,-0.23,1494.4444444444443
-0.35,-0.21,1497.2222222222222
-0.345,-0.205,1500.0
-0.335,-0.2,1502.7777777777778
-0.33,-0.195,1505.5555555555557
-0.33,-0.22,1508.3333333333333
-0.345,-0.225,1511.111111111111
-0.345,-0.225,1513.888888888889
-0.345,-0.215,1516.6666666666667
-0.32,-0.205,1519.4444444444443
-0.33,-0.205,1522.2222222222222
-0.335,-0.215,1525.0
-0.34,-0.225,1527.7777777777778
-0.355,-0.22,1530.5555555555557
-0.335,-0.225,1533.3333333333333
-0.33,-0.195,1536.111111111111
-0.33,-0.215,1538.888888888889
-0.335,-0.22,1541.6666666666667
-0.355,-0.215,1544.4444444444443
-0.36,-0.225,1547.2222222222222
-0.355,-0.215,1550.0
-0.35,-0.21,1552.7777777777778
-0.34,-0.21,1555.5555555555557
-0.345,-0.225,1558.3333333333333
-0.345,-0.23,1561.111111111111
-0.345,-0.22,1563.888888888889
-0.345,-0.21,1566.6666666666667
-0.33,-0.205,1569.4444444444443
-0.33,-0.2,1572.2222222222222
-0.335,-0.205,1575.0
-0.345,-0.22,1577.7777777777778
-0.35,-0.23,1580.5555555555557
-0.35,-0.215,1583.3333333333333
-0.34,-0.205,1586.111111111111
-0.33,-0.2,1588.888888888889
-0.345,-0.23,1591.6666666666667
-0.345,-0.22,1594.4444444444443
-0.355,-0.215,1597.2222222222222
-0.35,-0.205,1600.0
-0.34,-0.2,1602.7777777777778
-0.33,-0.205,1605.5555555555557
-0.34,-0.22,1608.3333333333333
-0.34,-0.22,1611.111111111111
-0.34,-0.225,1613.888888888889
-0.33,-0.205,1616.6666666666667
-0.335,-0.2,1619.4444444444443
-0.33,-0.2,1622.2222222222222
-0.335,-0.21,1625.0
-0.345,-0.23,1627.7777777777778
-0.345,-0.215,1630.5555555555557
-0.34,-0.2,1633.3333333333333
-0.33,-0.2,1636.111111111111
-0.315,-0.205,1638.888888888889
-0.295,-0.21,1641.6666666666667
-0.3,-0.215,1644.4444444444443
-0.295,-0.22,1647.2222222222222
-0.285,-0.205,1650.0
-0.275,-0.2,1652.7777777777778
-0.265,-0.195,1655.5555555555557
-0.265,-0.205,1658.3333333333333
-0.265,-0.205,1661.111111111111
-0.255,-0.205,1663.888888888889
-0.25,-0.18,1666.6666666666667
-0.24,-0.17,1669.4444444444443
-0.225,-0.19,1672.2222222222222
-0.215,-0.19,1675.0
-0.24,-0.2,1677.7777777777778
-0.245,-0.185,1680.5555555555557
-0.24,-0.165,1683.3333333333333
-0.245,-0.145,1686.111111111111
-0.235,-0.145,1688.888888888889
-0.245,-0.17,1691.6666666666667
-0.25,-0.175,1694.4444444444443
-0.275,-0.17,1697.2222222222222
-0.275,-0.165,1700.0
-0.265,-0.15,1702.7777777777778
-0.25,-0.16,1705.5555555555557
-0.225,-0.175,1708.3333333333333
-0.22,-0.19,1711.111111111111
-0.23,-0.19,1713.888888888889
-0.265,-0.185,1716.6666666666667
-0.27,-0.185,1719.4444444444443
-0.28,-0.175,1722.2222222222222
-0.285,-0.195,1725.0
-0.305,-0.215,1727.7777777777778
-0.32,-0.205,1730.5555555555557
-0.34,-0.2,1733.3333333333333
-0.33,-0.195,1736.111111111111
-0.335,-0.205,1738.888888888889
-0.335,-0.21,1741.6666666666667
-0.355,-0.22,1744.4444444444443
-0.37,-0.215,1747.2222222222222
-0.36,-0.21,1750.0
-0.345,-0.205,1752.7777777777778
-0.35,-0.2,1755.5555555555557
-0.355,-0.21,1758.3333333333333
-0.365,-0.22,1761.111111111111
-0.375,-0.22,1763.888888888889
-0.38,-0.22,1766.6666666666667
-0.37,-0.2,1769.4444444444443
-0.365,-0.205,1772.2222222222222
-0.365,-0.215,1775.0
-0.38,-0.225,1777.7777777777778
-0.385,-0.22,1780.5555555555557
-0.38,-0.215,1783.3333333333333
-0.375,-0.205,1786.111111111111
-0.355,-0.22,1788.888888888889
-0.37,-0.225,1791.6666666666667
-0.39,-0.24,1794.4444444444443
-0.405,-0.26,1797.2222222222222
-0.41,-0.28,1800.0
-0.435,-0.3,1802.7777777777778
-0.465,-0.345,1805.5555555555557
-0.49,-0.375,1808.3333333333333
-0.52,-0.345,1811.111111111111
-0.555,-0.26,1813.888888888889
-0.57,-0.125,1816.6666666666667
-0.525,0.025,1819.4444444444443
-0.405,0.145,1822.2222222222222
-0.25,0.26,1825.0
-0.09,0.375,1827.7777777777778
0.12,0.505,1830.5555555555557
0.41,0.635,1833.3333333333333
0.69,0.705,1836.111111111111
0.885,0.61,1838.888888888889
0.96,0.32,1841.6666666666667
0.85,-0.045,1844.4444444444443
0.52,-0.25,1847.2222222222222
0.05,-0.27,1850.0
-0.32,-0.24,1852.7777777777778
-0.5,-0.24,1855.5555555555557
-0.505,-0.25,1858.3333333333333
-0.445,-0.255,1861.111111111111
-0.415,-0.245,1863.888888888889
-0.395,-0.245,1866.6666666666667
-0.39,-0.245,1869.4444444444443
-0.395,-0.255,1872.2222222222222
-0.39,-0.26,1875.0
-0.395,-0.26,1877.7777777777778
-0.405,-0.27,1880.5555555555557
-0.395,-0.245,1883.3333333333333
-0.405,-0.245,1886.111111111111
-0.39,-0.25,1888.888888888889
-0.395,-0.265,1891.6666666666667
-0.395,-0.27,1894.4444444444443
-0.41,-0.27,1897.2222222222222
-0.405,-0.265,1900.0
-0.4,-0.26,1902.7777777777778
-0.4,-0.26,1905.5555555555557
-0.415,-0.27,1908.3333333333333
-0.405,-0.28,1911.111111111111
-0.42,-0.28,1913.888888888889
-0.415,-0.27,1916.6666666666667
-0.405,-0.255,1919.4444444444443
-0.405,-0.265,1922.2222222222222
-0.42,-0.28,1925.0
-0.42,-0.29,1927.7777777777778
-0.435,-0.275,1930.5555555555557
-0.42,-0.265,1933.3333333333333
-0.41,-0.255,1936.111111111111
-0.41,-0.26,1938.888888888889
-0.405,-0.26,1941.6666666666667
-0.425,-0.28,1944.4444444444443
-0.43,-0.28,1947.2222222222222
-0.42,-0.265,1950.0
-0.415,-0.26,1952.7777777777778
-0.41,-0.255,1955.5555555555557
-0.41,-0.26,1958.3333333333333
-0.425,-0.275,1961.111111111111
-0.42,-0.27,1963.888888888889
-0.4,-0.275,1966.6666666666667
-0.395,-0.265,1969.4444444444443
-0.4,-0.265,1972.2222222222222
-0.4,-0.27,1975.0
-0.395,-0.28,1977.7777777777778
-0.415,-0.285,1980.5555555555557
-0.405,-0.28,1983.3333333333333
-0.39,-0.255,1986.111111111111
-0.4,-0.27,1988.888888888889
-0.4,-0.28,1991.6666666666667
-0.415,-0.29,1994.4444444444443
-0.425,-0.29,1997.2222222222222
-0.425,-0.27,2000.0
-0.415,-0.27,2002.7777777777778
-0.415,-0.285,2005.5555555555557
-0.41,-0.3,2008.3333333333333
-0.425,-0.3,2011.111111111111
-0.425,-0.3,2013.888888888889
-0.42,-0.295,2016.6666666666667
-0.415,-0.275,2019.4444444444443
-0.4,-0.295,2022.2222222222222
-0.4,-0.3,2025.0
-0.41,-0.31,2027.7777777777778
-0.425,-0.31,2030.5555555555557
-0.41,-0.315,2033.3333333333333
-0.405,-0.31,2036.111111111111
-0.395,-0.31,2038.888888888889
-0.4,-0.335,2041.6666666666667
-0.4,-0.345,2044.4444444444443
-0.405,-0.355,2047.2222222222222
-0.385,-0.35,2050.0
-0.4,-0.345,2052.777777777778
-0.39,-0.36,2055.5555555555557
-0.39,-0.37,2058.3333333333335
-0.4,-0.375,2061.1111111111113
-0.415,-0.385,2063.8888888888887
-0.405,-0.37,2066.6666666666665
-0.405,-0.37,2069.4444444444443
-0.41,-0.385,2072.222222222222
-0.415,-0.4,2075.0
-0.42,-0.415,2077.777777777778
-0.42,-0.405,2080.5555555555557
-0.425,-0.41,2083.3333333333335
-0.415,-0.39,2086.1111111111113
-0.415,-0.405,2088.8888888888887
-0.41,-0.41,2091.6666666666665
-0.435,-0.425,2094.4444444444443
-0.43,-0.42,2097.222222222222
-0.435,-0.41,2100.0
-0.42,-0.405,2102.777777777778
-0.42,-0.4,2105.5555555555557
-0.42,-0.4,2108.3333333333335
-0.42,-0.405,2111.1111111111113
-0.425,-0.385,2113.8888888888887
-0.425,-0.365,2116.6666666666665
-0.415,-0.345,2119.4444444444443
-0.395,-0.335,2122.222222222222
-0.395,-0.325,2125.0
-0.39,-0.31,2127.777777777778
-0.375,-0.295,2130.5555555555557
-0.36,-0.275,2133.3333333333335
-0.34,-0.255,2136.1111111111113
-0.335,-0.25,2138.8888888888887
-0.33,-0.24,2141.6666666666665
-0.335,-0.245,2144.4444444444443
-0.335,-0.23,2147.222222222222
-0.325,-0.205,2150.0
-0.32,-0.2,2152.777777777778
-0.305,-0.2,2155.5555555555557
-0.305,-0.205,2158.3333333333335
-0.315,-0.21,2161.1111111111113
-0.31,-0.22,2163.8888888888887
-0.305,-0.195,2166.6666666666665
-0.3,-0.19,2169.4444444444443
-0.3,-0.2,2172.222222222222
-0.3,-0.2,2175.0
-0.31,-0.21,2177.777777777778
-0.31,-0.2,2180.5555555555557
-0.31,-0.19,2183.3333333333335
-0.315,-0.175,2186.1111111111113
-0.3,-0.2,2188.8888888888887
-0.305,-0.205,2191.6666666666665
-0.315,-0.21,2194.4444444444443
-0.32,-0.2,2197.222222222222
-0.325,-0.2,2200.0
-0.31,-0.18,2202.777777777778
-0.305,-0.19,2205.5555555555557
-0.305,-0.19,2208.3333333333335
-0.32,-0.205,2211.1111111111113
-0.325,-0.205,2213.8888888888887
-0.305,-0.195,2216.6666666666665
-0.31,-0.185,2219.4444444444443
-0.295,-0.19,2222.222222222222
-0.31,-0.19,2225.0
-0.325,-0.21,2227.777777777778
-0.33,-0.21,2230.5555555555557
-0.32,-0.205,2233.3333333333335
-0.32,-0.205,2236.1111111111113
-0.32,-0.2,2238.8888888888887
-0.325,-0.215,2241.6666666666665
-0.35,-0.225,2244.4444444444443
-0.35,-0.21,2247.222222222222
-0.34,-0.21,2250.0
-0.335,-0.21,2252.777777777778
-0.33,-0.215,2255.5555555555557
-0.335,-0.225,2258.3333333333335
-0.34,-0.225,2261.1111111111113
-0.36,-0.23,2263.8888888888887
-0.35,-0.21,2266.6666666666665
-0.35,-0.21,2269.4444444444443
-0.355,-0.23,2272.222222222222
-0.36,-0.25,2275.0
-0.355,-0.25,2277.777777777778
-0.365,-0.245,2280.5555555555557
-0.355,-0.23,2283.3333333333335
-0.35,-0.215,2286.1111111111113
-0.34,-0.23,2288.8888888888887
-0.355,-0.24,2291.6666666666665
-0.35,-0.245,2294.4444444444443
-0.365,-0.245,2297.222222222222
-0.365,-0.24,2300.0
-0.35,-0.215,2302.777777777778
-0.355,-0.225,2305.5555555555557
-0.35,-0.24,2308.3333333333335
-0.37,-0.24,2311.1111111111113
-0.38,-0.245,2313.8888888888887
-0.37,-0.24,2316.6666666666665
-0.36,-0.23,2319.4444444444443
-0.365,-0.235,2322.222222222222
-0.36,-0.24,2325.0
-0.365,-0.23,2327.777777777778
-0.38,-0.25,2330.5555555555557
-0.37,-0.225,2333.3333333333335
-0.365,-0.215,2336.1111111111113
-0.35,-0.23,2338.8888888888887
-0.35,-0.24,2341.6666666666665
-0.35,-0.25,2344.4444444444443
-0.37,-0.265,2347.222222222222
-0.365,-0.23,2350.0
-0.345,-0.22,2352.777777777778
-0.345,-0.235,2355.5555555555557
-0.34,-0.225,2358.3333333333335
-0.355,-0.235,2361.1111111111113
-0.365,-0.235,2363.8888888888887
-0.36,-0.225,2366.6666666666665
-0.355,-0.225,2369.4444444444443
-0.355,-0.215,2372.222222222222
-0.355,-0.225,2375.0
-0.375,-0.235,2377.777777777778
-0.385,-0.23,2380.5555555555557
-0.355,-0.225,2383.3333333333335
-0.36,-0.225,2386.1111111111113
-0.355,-0.225,2388.8888888888887
-0.36,-0.225,2391.6666666666665
-0.36,-0.23,2394.4444444444443
-0.37,-0.23,2397.222222222222
-0.36,-0.215,2400.0
-0.345,-0.21,2402.777777777778
-0.355,-0.225,2405.5555555555557
-0.345,-0.24,2408.3333333333335
-0.345,-0.235,2411.1111111111113
-0.345,-0.24,2413.8888888888887
-0.34,-0.225,2416.6666666666665
-0.31,-0.215,2419.4444444444443
-0.305,-0.22,2422.222222222222
-0.305,-0.22,2425.0
-0.31,-0.23,2427.777777777778
-0.305,-0.23,2430.5555555555557
-0.29,-0.205,2433.3333333333335
-0.285,-0.2,2436.1111111111113
-0.275,-0.205,2438.8888888888887
-0.28,-0.195,2441.6666666666665
-0.28,-0.21,2444.4444444444443
-0.275,-0.205,2447.222222222222
-0.265,-0.19,2450.0
-0.255,-0.185,2452.777777777778
-0.245,-0.2,2455.5555555555557
-0.26,-0.195,2458.3333333333335
-0.265,-0.2,2461.1111111111113
-0.275,-0.19,2463.8888888888887
-0.28,-0.17,2466.6666666666665
-0.265,-0.14,2469.4444444444443
-0.27,-0.165,2472.222222222222
-0.275,-0.165,2475.0
-0.28,-0.185,2477.777777777778
-0.275,-0.18,2480.5555555555557
-0.28,-0.17,2483.3333333333335
-0.275,-0.15,2486.1111111111113
-0.265,-0.165,2488.8888888888887
-0.255,-0.18,2491.6666666666665
-0.24,-0.2,2494.4444444444443
-0.26,-0.21,2497.222222222222
-0.28,-0.21,2500.0
-0.31,-0.185,2502.777777777778
-0.31,-0.19,2505.5555555555557
-0.345,-0.2,2508.3333333333335
-0.36,-0.215,2511.1111111111113
-0.38,-0.22,2513.8888888888887
-0.385,-0.21,2516.6666666666665
-0.38,-0.195,2519.4444444444443
-0.37,-0.205,2522.222222222222
-0.375,-0.22,2525.0
-0.385,-0.225,2527.777777777778
-0.39,-0.23,2530.5555555555557
-0.395,-0.22,2533.3333333333335
-0.385,-0.21,2536.1111111111113
-0.385,-0.21,2538.8888888888887
-0.385,-0.23,2541.6666666666665
-0.395,-0.235,2544.4444444444443
-0.405,-0.23,2547.222222222222
-0.4,-0.225,2550.0
-0.375,-0.215,2552.777777777778
-0.375,-0.22,2555.5555555555557
-0.39,-0.22,2558.3333333333335
-0.395,-0.23,2561.1111111111113
-0.415,-0.24,2563.8888888888887
-0.405,-0.22,2566.6666666666665
-0.4,-0.225,2569.4444444444443
-0.39,-0.235,2572.222222222222
-0.405,-0.25,2575.0
-0.425,-0.28,2577.777777777778
-0.46,-0.305,2580.5555555555557
-0.475,-0.325,2583.3333333333335
-0.505,-0.345,2586.1111111111113
-0.51,-0.375,2588.8888888888887
-0.525,-0.415,2591.6666666666665
-0.54,-0.425,2594.4444444444443
-0.6,-0.385,2597.222222222222
-0.645,-0.295,2600.0
-0.63,-0.18,2602.777777777778
-0.575,-0.065,2605.5555555555557
-0.495,0.035,2608.3333333333335
-0.385,0.13,2611.1111111111113
-0.27,0.24,2613.8888888888887
-0.115,0.37,2616.6666666666665
0.09,0.495,2619.4444444444443
0.37,0.61,2622.222222222222
0.635,0.655,2625.0
0.81,0.545,2627.777777777778
0.86,0.23,2630.5555555555557
0.77,-0.105,2633.3333333333335
0.475,-0.28,2636.1111111111113
0.065,-0.285,2638.8888888888887
-0.305,-0.255,2641.6666666666665
-0.5,-0.255,2644.4444444444443
-0.52,-0.26,2647.222222222222
-0.475,-0.23,2650.0
-0.41,-0.22,2652.777777777778
-0.39,-0.245,2655.5555555555557
-0.39,-0.255,2658.3333333333335
-0.4,-0.26,2661.1111111111113
-0.41,-0.25,2663.8888888888887
-0.405,-0.235,2666.6666666666665
-0.385,-0.245,2669.4444444444443
-0.39,-0.245,2672.222222222222
-0.395,-0.26,2675.0
-0.405,-0.265,2677.777777777778
-0.41,-0.265,2680.5555555555557
-0.405,-0.26,2683.3333333333335
-0.4,-0.24,2686.1111111111113
-0.39,-0.245,2688.8888888888887
-0.395,-0.26,2691.6666666666665
-0.41,-0.27,2694.4444444444443
-0.415,-0.27,2697.222222222222
-0.41,-0.255,2700.0
-0.395,-0.255,2702.777777777778
-0.405,-0.25,2705.5555555555557
-0.41,-0.265,2708.3333333333335
-0.405,-0.27,2711.1111111111113
-0.405,-0.27,2713.8888888888887
-0.41,-0.265,2716.6666666666665
-0.39,-0.25,2719.4444444444443
-0.385,-0.245,2722.222222222222
-0.39,-0.265,2725.0
-0.395,-0.27,2727.777777777778
-0.4,-0.26,2730.5555555555557
-0.4,-0.255,2733.3333333333335
-0.4,-0.245,2736.1111111111113
-0.395,-0.25,2738.8888888888887
-0.395,-0.26,2741.6666666666665
-0.405,-0.27,2744.4444444444443
-0.405,-0.26,2747.222222222222
-0.4,-0.255,2750.0
-0.395,-0.25,2752.777777777778
-0.385,-0.255,2755.5555555555557
-0.375,-0.255,2758.3333333333335
-0.385,-0.275,2761.1111111111113
-0.395,-0.27,2763.8888888888887
-0.39,-0.265,2766.6666666666665
-0.385,-0.26,2769.4444444444443
-0.375,-0.26,2772.222222222222
-0.385,-0.275,2775.0
-0.395,-0.27,2777.777777777778
-0.395,-0.26,2780.5555555555557
-0.385,-0.245,2783.3333333333335
-0.375,-0.255,2786.1111111111113
-0.375,-0.265,2788.8888888888887
-0.385,-0.265,2791.6666666666665
-0.395,-0.27,2794.4444444444443
-0.39,-0.265,2797.222222222222
-0.39,-0.26,2800.0
-0.365,-0.27,2802.777777777778
-0.375,-0.265,2805.5555555555557
-0.385,-0.27,2808.3333333333335
-0.395,-0.28,2811.1111111111113
-0.38,-0.285,2813.8888888888887
-0.385,-0.28,2816.6666666666665
-0.375,-0.285,2819.4444444444443
-0.38,-0.29,2822.222222222222
-0.39,-0.31,2825.0
-0.38,-0.305,2827.777777777778
-0.375,-0.3,2830.5555555555557
-0.375,-0.3,2833.3333333333335
-0.375,-0.31,2836.1111111111113
-0.375,-0.325,2838.8888888888887
-0.38,-0.34,2841.6666666666665
-0.39,-0.34,2844.4444444444443
-0.39,-0.325,2847.222222222222
-0.365,-0.32,2850.0
-0.37,-0.355,2852.777777777778
-0.375,-0.36,2855.5555555555557
-0.385,-0.38,2858.3333333333335
-0.39,-0.385,2861.1111111111113
-0.39,-0.375,2863.8888888888887
-0.375,-0.365,2866.6666666666665
-0.365,-0.375,2869.4444444444443
-0.385,-0.385,2872.222222222222
-0.38,-0.39,2875.0
-0.39,-0.395,2877.777777777778
-0.375,-0.385,2880.5555555555557
-0.375,-0.375,2883.3333333333335
-0.365,-0.375,2886.1111111111113
-0.37,-0.375,2888.8888888888887
-0.385,-0.38,2891.6666666666665
-0.395,-0.365,2894.4444444444443
-0.385,-0.345,2897.222222222222
-0.385,-0.335,2900.0
-0.37,-0.315,2902.777777777778
-0.365,-0.31,2905.5555555555557
-0.37,-0.305,2908.3333333333335
-0.375,-0.29,2911.1111111111113
-0.35,-0.27,2913.8888888888887
-0.335,-0.255,2916.6666666666665
-0.32,-0.25,2919.4444444444443
-0.315,-0.245,2922.222222222222
-0.32,-0.235,2925.0
-0.325,-0.235,2927.777777777778
-0.315,-0.225,2930.5555555555557
-0.295,-0.22,2933.3333333333335
-0.285,-0.195,2936.1111111111113
-0.3,-0.215,2938.8888888888887
-0.295,-0.23,2941.6666666666665
-0.285,-0.215,2944.4444444444443
-0.285,-0.205,2947.222222222222
-0.28,-0.195,2950.0
-0.27,-0.2,2952.777777777778
-0.28,-0.195,2955.5555555555557
-0.29,-0.195,2958.3333333333335
-0.295,-0.205,2961.1111111111113
-0.295,-0.195,2963.8888888888887
-0.29,-0.18,2966.6666666666665
-0.28,-0.19,2969.4444444444443
-0.29,-0.205,2972.222222222222
-0.295,-0.21,2975.0
-0.31,-0.205,2977.777777777778
-0.295,-0.18,2980.5555555555557
-0.285,-0.185,2983.3333333333335
-0.28,-0.19,2986.1111111111113
-0.275,-0.205,2988.8888888888887
-0.295,-0.215,2991.6666666666665
-0.305,-0.215,2994.4444444444443
-0.3,-0.215,2997.222222222222
-0.295,-0.19,3000.0
-0.295,-0.21,3002.777777777778
-0.285,-0.2,3005.5555555555557
-0.3,-0.215,3008.3333333333335
-0.305,-0.22,3011.1111111111113
-0.3,-0.225,3013.8888888888887
-0.295,-0.215,3016.6666666666665
-0.3,-0.215,3019.4444444444443
-0.305,-0.23,3022.222222222222
-0.315,-0.225,3025.0
-0.31,-0.225,3027.777777777778
-0.315,-0.21,3030.5555555555557
-0.295,-0.21,3033.3333333333335
-0.3,-0.215,3036.1111111111113
-0.31,-0.23,3038.8888888888887
-0.33,-0.235,3041.6666666666665
-0.34,-0.23,3044.4444444444443
-0.33,-0.22,3047.222222222222
-0.32,-0.215,3050.0
-0.32,-0.23,3052.777777777778
-0.315,-0.235,3055.5555555555557
-0.325,-0.25,3058.3333333333335
-0.335,-0.245,3061.1111111111113
-0.33,-0.24,3063.8888888888887
-0.315,-0.22,3066.6666666666665
-0.32,-0.23,3069.4444444444443
-0.32,-0.23,3072.222222222222
-0.33,-0.235,3075.0
-0.345,-0.24,3077.777777777778
-0.34,-0.235,3080.5555555555557
-0.335,-0.22,3083.3333333333335
-0.33,-0.23,3086.1111111111113
-0.335,-0.24,3088.8888888888887
-0.345,-0.255,3091.6666666666665
-0.35,-0.245,3094.4444444444443
-0.345,-0.235,3097.222222222222
-0.34,-0.22,3100.0
-0.335,-0.23,3102.777777777778
-0.335,-0.24,3105.5555555555557
-0.33,-0.25,3108.3333333333335
-0.335,-0.255,3111.1111111111113
-0.34,-0.24,3113.8888888888887
-0.335,-0.225,3116.6666666666665
-0.32,-0.23,3119.4444444444443
-0.34,-0.235,3122.222222222222
-0.34,-0.24,3125.0
-0.35,-0.245,3127.777777777778
-0.365,-0.235,3130.5555555555557
-0.36,-0.23,3133.3333333333335
-0.345,-0.235,3136.1111111111113
-0.345,-0.24,3138.8888888888887
-0.35,-0.245,3141.6666666666665
-0.35,-0.235,3144.4444444444443
-0.35,-0.235,3147.222222222222
-0.34,-0.23,3150.0
-0.34,-0.24,3152.777777777778
-0.345,-0.235,3155.5555555555557
-0.345,-0.245,3158.3333333333335
-0.38,-0.25,3161.1111111111113
-0.36,-0.23,3163.8888888888887
-0.36,-0.21,3166.6666666666665
-0.345,-0.23,3169.4444444444443
-0.345,-0.235,3172.222222222222
-0.35,-0.245,3175.0
-0.355,-0.25,3177.777777777778
-0.345,-0.245,3180.5555555555557
-0.33,-0.23,3183.3333333333335
-0.33,-0.23,3186.1111111111113
-0.335,-0.235,3188.8888888888887
-0.335,-0.25,3191.6666666666665
-0.34,-0.25,3194.4444444444443
-0.33,-0.24,3197.222222222222
-0.32,-0.225,3200.0
-0.29,-0.23,3202.777777777778
-0.29,-0.235,3205.5555555555557
-0.3,-0.24,3208.3333333333335
-0.305,-0.245,3211.1111111111113
-0.285,-0.24,3213.8888888888887
-0.28,-0.225,3216.6666666666665
-0.275,-0.225,3219.4444444444443
-0.28,-0.23,3222.222222222222
-0.275,-0.23,3225.0
-0.27,-0.225,3227.777777777778
-0.265,-0.205,3230.5555555555557
-0.25,-0.21,3233.3333333333335
-0.23,-0.22,3236.1111111111113
-0.245,-0.205,3238.8888888888887
-0.24,-0.22,3241.6666666666665
-0.255,-0.22,3244.4444444444443
-0.255,-0.21,3247.222222222222
-0.245,-0.19,3250.0
-0.235,-0.18,3252.777777777778
-0.255,-0.18,3255.5555555555557
-0.265,-0.185,3258.3333333333335
-0.26,-0.19,3261.1111111111113
-0.255,-0.19,3263.8888888888887
-0.27,-0.185,3266.6666666666665
-0.265,-0.205,3269.4444444444443
-0.28,-0.2,3272.222222222222
-0.255,-0.22,3275.0
-0.25,-0.22,3277.777777777778
-0.245,-0.22,3280.5555555555557
-0.265,-0.21,3283.3333333333335
-0.28,-0.225,3286.1111111111113
-0.3,-0.22,3288.8888888888887
-0.315,-0.24,3291.6666666666665
-0.325,-0.245,3294.4444444444443
-0.335,-0.235,3297.222222222222
-0.345,-0.23,3300.0
-0.33,-0.245,3302.777777777778
-0.335,-0.245,3305.5555555555557
-0.345,-0.25,3308.3333333333335
-0.36,-0.255,3311.1111111111113
-0.35,-0.23,3313.8888888888887
-0.34,-0.225,3316.6666666666665
-0.335,-0.23,3319.4444444444443
-0.345,-0.245,3322.222222222222
-0.36,-0.255,3325.0
-0.365,-0.265,3327.777777777778
-0.375,-0.255,3330.5555555555557
-0.37,-0.245,3333.3333333333335
-0.365,-0.26,3336.1111111111113
-0.365,-0.25,3338.8888888888887
-0.38,-0.26,3341.6666666666665
-0.375,-0.27,3344.4444444444443
-0.375,-0.24,3347.222222222222
-0.365,-0.245,3350.0
-0.37,-0.25,3352.777777777778
-0.36,-0.25,3355.5555555555557
-0.37,-0.25,3358.3333333333335
-0.38,-0.265,3361.1111111111113
-0.365,-0.255,3363.8888888888887
-0.36,-0.245,3366.6666666666665
-0.35,-0.255,3369.4444444444443
-0.355,-0.265,3372.222222222222
-0.37,-0.28,3375.0
-0.385,-0.305,3377.777777777778
-0.395,-0.32,3380.5555555555557
-0.43,-0.35,3383.3333333333335
-0.445,-0.38,3386.1111111111113
-0.485,-0.39,3388.8888888888887
-0.515,-0.345,3391.6666666666665
-0.565,-0.24,3394.4444444444443
-0.555,-0.11,3397.222222222222
-0.475,-0.02,3400.0
-0.355,0.04,3402.777777777778
-0.22,0.11,3405.5555555555557
-0.055,0.22,3408.3333333333335
0.185,0.35,3411.1111111111113
0.475,0.44,3413.8888888888887
0.705,0.395,3416.6666666666665
0.82,0.155,3419.4444444444443
0.78,-0.17,3422.222222222222
0.535,-0.38,3425.0
0.145,-0.41,3427.777777777778
-0.2,-0.355,3430.5555555555557
-0.42,-0.32,3433.3333333333335
-0.5,-0.305,3436.1111111111113
-0.48,-0.3,3438.8888888888887
-0.45,-0.295,3441.6666666666665
-0.41,-0.295,3444.4444444444443
-0.4,-0.285,3447.222222222222
-0.39,-0.3,3450.0
-0.39,-0.31,3452.777777777778
-0.4,-0.305,3455.5555555555557
-0.405,-0.305,3458.3333333333335
-0.425,-0.295,3461.1111111111113
-0.425,-0.27,3463.8888888888887
-0.405,-0.27,3466.6666666666665
-0.395,-0.285,3469.4444444444443
-0.405,-0.305,3472.222222222222
-0.405,-0.31,3475.0
-0.415,-0.3,3477.777777777778
-0.405,-0.29,3480.5555555555557
-0.385,-0.275,3483.3333333333335
-0.39,-0.285,3486.1111111111113
-0.395,-0.285,3488.8888888888887
-0.395,-0.305,3491.6666666666665
-0.395,-0.29,3494.4444444444443
-0.395,-0.29,3497.222222222222
-0.385,-0.285,3500.0
-0.39,-0.285,3502.777777777778
-0.39,-0.29,3505.5555555555557
-0.4,-0.3,3508.3333333333335
-0.425,-0.295,3511.1111111111113
-0.41,-0.285,3513.8888888888887
-0.4,-0.275,3516.6666666666665
-0.395,-0.29,3519.4444444444443
-0.4,-0.295,3522.222222222222
-0.405,-0.275,3525.0
-0.425,-0.285,3527.777777777778
-0.415,-0.285,3530.5555555555557
-0.405,-0.26,3533.3333333333335
-0.405,-0.27,3536.1111111111113
-0.405,-0.265,3538.8888888888887
-0.41,-0.285,3541.6666666666665
-0.415,-0.29,3544.4444444444443
-0.405,-0.295,3547.222222222222
-0.42,-0.28,3550.0
-0.405,-0.29,3552.777777777778
-0.41,-0.295,3555.5555555555557
-0.41,-0.3,3558.3333333333335
-0.42,-0.31,3561.1111111111113
-0.415,-0.305,3563.8888888888887
-0.405,-0.295,3566.6666666666665
-0.395,-0.3,3569.4444444444443
-0.395,-0.28,3572.222222222222
-0.395,-0.29,3575.0
-0.4,-0.305,3577.777777777778
-0.395,-0.29,3580.5555555555557
-0.395,-0.285,3583.3333333333335
-0.405,-0.305,3586.1111111111113
-0.405,-0.31,3588.8888888888887
-0.42,-0.315,3591.6666666666665
-0.435,-0.305,3594.4444444444443
-0.415,-0.295,3597.222222222222
-0.405,-0.29,3600.0
-0.395,-0.295,3602.777777777778
-0.39,-0.3,3605.5555555555557
-0.415,-0.305,3608.3333333333335
-0.405,-0.325,3611.1111111111113
-0.405,-0.31,3613.8888888888887
-0.4,-0.3,3616.6666666666665
-0.395,-0.31,3619.4444444444443
-0.395,-0.335,3622.222222222222
-0.405,-0.34,3625.0
-0.42,-0.35,3627.777777777778
-0.415,-0.355,3630.5555555555557
-0.4,-0.34,3633.3333333333335
-0.395,-0.35,3636.1111111111113
-0.4,-0.365,3638.8888888888887
-0.405,-0.38,3641.6666666666665
-0.425,-0.4,3644.4444444444443
-0.425,-0.385,3647.222222222222
-0.425,-0.38,3650.0
-0.42,-0.39,3652.777777777778
-0.425,-0.4,3655.5555555555557
-0.45,-0.405,3658.3333333333335
-0.445,-0.405,3661.1111111111113
-0.45,-0.405,3663.8888888888887
-0.435,-0.415,3666.6666666666665
-0.445,-0.415,3669.4444444444443
-0.47,-0.42,3672.222222222222
-0.455,-0.415,3675.0
-0.46,-0.425,3677.777777777778
-0.44,-0.41,3680.5555555555557
-0.435,-0.395,3683.3333333333335
-0.425,-0.385,3686.1111111111113
-0.43,-0.405,3688.8888888888887
-0.445,-0.395,3691.6666666666665
-0.45,-0.395,3694.4444444444443
-0.445,-0.375,3697.222222222222
-0.43,-0.37,3700.0
-0.42,-0.375,3702.777777777778
-0.41,-0.375,3705.5555555555557
-0.425,-0.37,3708.3333333333335
-0.42,-0.36,3711.1111111111113
-0.405,-0.345,3713.8888888888887
-0.38,-0.32,3716.6666666666665
-0.37,-0.305,3719.4444444444443
-0.365,-0.305,3722.222222222222
-0.365,-0.3,3725.0
-0.365,-0.285,3727.777777777778
-0.345,-0.275,3730.5555555555557
-0.33,-0.26,3733.3333333333335
-0.315,-0.245,3736.1111111111113
-0.305,-0.245,3738.8888888888887
-0.305,-0.25,3741.6666666666665
-0.32,-0.255,3744.4444444444443
-0.31,-0.245,3747.222222222222
-0.31,-0.23,3750.0
-0.305,-0.235,3752.777777777778
-0.31,-0.245,3755.5555555555557
-0.315,-0.255,3758.3333333333335
-0.32,-0.255,3761.1111111111113
-0.315,-0.225,3763.8888888888887
-0.305,-0.23,3766.6666666666665
-0.305,-0.235,3769.4444444444443
-0.295,-0.24,3772.222222222222
-0.31,-0.25,3775.0
-0.32,-0.245,3777.777777777778
-0.31,-0.225,3780.5555555555557
-0.315,-0.215,3783.3333333333335
-0.295,-0.22,3786.1111111111113
-0.3,-0.24,3788.8888888888887
-0.305,-0.25,3791.6666666666665
-0.3,-0.255,3794.4444444444443
-0.285,-0.245,3797.222222222222
-0.28,-0.24,3800.0
-0.29,-0.235,3802.777777777778
-0.295,-0.245,3805.5555555555557
-0.305,-0.255,3808.3333333333335
-0.325,-0.25,3811.1111111111113
-0.305,-0.235,3813.8888888888887
-0.3,-0.23,3816.6666666666665
-0.3,-0.25,3819.4444444444443
-0.315,-0.26,3822.222222222222
-0.325,-0.275,3825.0
-0.335,-0.28,3827.777777777778
-0.325,-0.275,3830.5555555555557
-0.315,-0.26,3833.3333333333335
-0.32,-0.27,3836.1111111111113
-0.335,-0.255,3838.8888888888887
-0.33,-0.265,3841.6666666666665
-0.34,-0.255,3844.4444444444443
-0.325,-0.265,3847.222222222222
-0.325,-0.26,3850.0
-0.32,-0.265,3852.777777777778
-0.315,-0.265,3855.5555555555557
-0.335,-0.275,3858.3333333333335
-0.335,-0.27,3861.1111111111113
-0.345,-0.265,3863.8888888888887
-0.335,-0.255,3866.6666666666665
-0.325,-0.255,3869.4444444444443
-0.33,-0.265,3872.222222222222
-0.315,-0.275,3875.0
-0.335,-0.29,3877.777777777778
-0.33,-0.275,3880.5555555555557
-0.33,-0.26,3883.3333333333335
-0.33,-0.27,3886.1111111111113
-0.33,-0.265,3888.8888888888887
-0.335,-0.27,3891.6666666666665
-0.34,-0.265,3894.4444444444443
-0.33,-0.265,3897.222222222222
-0.32,-0.25,3900.0
-0.315,-0.265,3902.777777777778
-0.325,-0.265,3905.5555555555557
-0.335,-0.27,3908.3333333333335
-0.355,-0.27,3911.1111111111113
-0.345,-0.265,3913.8888888888887
-0.34,-0.255,3916.6666666666665
-0.335,-0.26,3919.4444444444443
-0.32,-0.255,3922.222222222222
-0.325,-0.27,3925.0
-0.35,-0.27,3927.777777777778
-0.33,-0.285,3930.5555555555557
-0.315,-0.265,3933.3333333333335
-0.315,-0.26,3936.1111111111113
-0.33,-0.265,3938.8888888888887
-0.33,-0.27,3941.6666666666665
-0.335,-0.265,3944.4444444444443
-0.335,-0.26,3947.222222222222
-0.33,-0.25,3950.0
-0.33,-0.265,3952.777777777778
-0.33,-0.265,3955.5555555555557
-0.34,-0.27,3958.3333333333335
-0.34,-0.265,3961.1111111111113
-0.34,-0.255,3963.8888888888887
-0.325,-0.245,3966.6666666666665
-0.325,-0.255,3969.4444444444443
-0.325,-0.275,3972.222222222222
-0.345,-0.275,3975.0
-0.35,-0.275,3977.777777777778
-0.34,-0.255,3980.5555555555557
-0.33,-0.255,3983.3333333333335
-0.32,-0.26,3986.1111111111113
-0.31,-0.265,3988.8888888888887
-0.305,-0.285,3991.6666666666665
-0.305,-0.28,3994.4444444444443
-0.275,-0.265,3997.222222222222
-0.27,-0.26,4000.0
-0.255,-0.255,4002.777777777778
-0.26,-0.25,4005.5555555555557
-0.265,-0.255,4008.3333333333335
-0.26,-0.25,4011.1111111111113
-0.25,-0.24,4013.8888888888887
-0.235,-0.23,4016.6666666666665
-0.235,-0.235,4019.4444444444443
-0.22,-0.225,4022.222222222222
-0.235,-0.235,4025.0
-0.235,-0.24,4027.777777777778
-0.22,-0.225,4030.5555555555557
-0.23,-0.215,4033.3333333333335
-0.225,-0.235,4036.1111111111113
-0.235,-0.23,4038.8888888888887
-0.245,-0.225,4041.6666666666665
-0.255,-0.215,4044.4444444444443
-0.24,-0.205,4047.222222222222
-0.23,-0.2,4050.0
-0.23,-0.21,4052.777777777778
-0.25,-0.225,4055.5555555555557
-0.255,-0.23,4058.3333333333335
-0.25,-0.225,4061.1111111111113
-0.23,-0.215,4063.8888888888887
-0.205,-0.21,4066.6666666666665
-0.195,-0.235,4069.4444444444443
-0.21,-0.24,4072.222222222222
-0.23,-0.255,4075.0
-0.27,-0.245,4077.777777777778
-0.27,-0.235,4080.5555555555557
-0.285,-0.23,4083.3333333333335
-0.285,-0.235,4086.1111111111113
-0.31,-0.245,4088.8888888888887
-0.33,-0.27,4091.6666666666665
-0.34,-0.26,4094.4444444444443
-0.34,-0.25,4097.222222222223
-0.345,-0.24,4100.0
-0.35,-0.24,4102.777777777777
-0.35,-0.255,4105.555555555556
-0.34,-0.26,4108.333333333333
-0.355,-0.265,4111.111111111111
-0.345,-0.255,4113.888888888889
-0.34,-0.245,4116.666666666667
-0.34,-0.245,4119.444444444444
-0.345,-0.26,4122.222222222223
-0.355,-0.255,4125.0
-0.37,-0.26,4127.777777777777
-0.355,-0.255,4130.555555555556
-0.37,-0.24,4133.333333333333
-0.345,-0.24,4136.111111111111
-0.34,-0.26,4138.888888888889
-0.36,-0.26,4141.666666666667
-0.38,-0.25,4144.444444444444
-0.36,-0.24,4147.222222222223
-0.345,-0.235,4150.0
-0.35,-0.24,4152.777777777777
-0.35,-0.255,4155.555555555556
-0.355,-0.27,4158.333333333333
-0.38,-0.285,4161.111111111111
-0.39,-0.29,4163.888888888889
-0.395,-0.31,4166.666666666667
-0.425,-0.33,4169.444444444444
-0.455,-0.365,4172.222222222223
-0.475,-0.37,4175.0
-0.51,-0.35,4177.777777777777
-0.545,-0.26,4180.555555555556
-0.54,-0.135,4183.333333333333
-0.495,-0.02,4186.111111111111
-0.405,0.035,4188.888888888889
-0.295,0.095,4191.666666666667
-0.16,0.185,4194.444444444444
0.04,0.315,4197.222222222223
0.315,0.45,4200.0
0.595,0.515,4202.777777777777
0.8,0.45,4205.555555555556
0.885,0.175,4208.333333333333
0.795,-0.18,4211.111111111111
0.52,-0.385,4213.888888888889
0.13,-0.395,4216.666666666667
-0.215,-0.345,4219.444444444444
-0.425,-0.31,4222.222222222223
-0.5,-0.29,4225.0
-0.49,-0.275,4227.777777777777
-0.45,-0.265,4230.555555555556
-0.4,-0.235,4233.333333333333
-0.39,-0.25,4236.111111111111
-0.395,-0.265,4238.888888888889
-0.395,-0.255,4241.666666666667
-0.4,-0.245,4244.444444444444
-0.39,-0.24,4247.222222222223
-0.38,-0.24,4250.0
-0.385,-0.25,4252.777777777777
-0.385,-0.26,4255.555555555556
-0.4,-0.265,4258.333333333333
-0.41,-0.275,4261.111111111111
-0.41,-0.255,4263.888888888889
-0.39,-0.24,4266.666666666667
-0.39,-0.245,4269.444444444444
-0.405,-0.26,4272.222222222223
-0.405,-0.26,4275.0
-0.415,-0.265,4277.777777777777
-0.41,-0.25,4280.555555555556
-0.395,-0.25,4283.333333333333
-0.395,-0.245,4286.111111111111
-0.4,-0.25,4288.888888888889
-0.415,-0.265,4291.666666666667
-0.415,-0.255,4294.444444444444
-0.415,-0.25,4297.222222222223
-0.4,-0.245,4300.0
-0.39,-0.245,4302.777777777777
-0.39,-0.255,4305.555555555556
-0.41,-0.26,4308.333333333333
-0.415,-0.25,4311.111111111111
-0.405,-0.24,4313.888888888889
-0.395,-0.215,4316.666666666667
-0.395,-0.23,4319.444444444444
-0.395,-0.25,4322.222222222223
-0.405,-0.25,4325.0
-0.41,-0.255,4327.777777777777
-0.41,-0.24,4330.555555555556
-0.4,-0.22,4333.333333333333
-0.39,-0.235,4336.111111111111
-0.395,-0.235,4338.888888888889
-0.41,-0.24,4341.666666666667
-0.425,-0.255,4344.444444444444
-0.415,-0.245,4347.222222222223
-0.405,-0.225,4350.0
-0.41,-0.23,4352.777777777777
-0.405,-0.235,4355.555555555556
-0.415,-0.24,4358.333333333333
-0.425,-0.24,4361.111111111111
-0.425,-0.24,4363.888888888889
-0.41,-0.23,4366.666666666667
-0.395,-0.245,4369.444444444444
-0.39,-0.255,4372.222222222223
-0.4,-0.25,4375.0
-0.41,-0.25,4377.777777777777
-0.41,-0.235,4380.555555555556
-0.4,-0.24,4383.333333333333
-0.39,-0.235,4386.111111111111
-0.41,-0.255,4388.888888888889
-0.42,-0.255,4391.666666666667
-0.42,-0.255,4394.444444444444
-0.415,-0.25,4397.222222222223
-0.415,-0.235,4400.0
-0.405,-0.26,4402.777777777777
-0.42,-0.255,4405.555555555556
-0.415,-0.27,4408.333333333333
-0.425,-0.285,4411.111111111111
-0.41,-0.285,4413.888888888889
-0.4,-0.28,4416.666666666667
-0.405,-0.285,4419.444444444444
-0.4,-0.285,4422.222222222223
-0.4,-0.305,4425.0
-0.41,-0.295,4427.777777777777
-0.4,-0.285,4430.555555555556
-0.395,-0.29,4433.333333333333
-0.395,-0.305,4436.111111111111
-0.405,-0.32,4438.888888888889
-0.41,-0.335,4441.666666666667
-0.425,-0.34,4444.444444444444
-0.425,-0.315,4447.222222222223
-0.41,-0.315,4450.0
-0.41,-0.33,4452.777777777777
-0.42,-0.345,4455.555555555556
-0.43,-0.35,4458.333333333333
-0.445,-0.355,4461.111111111111
-0.44,-0.365,4463.888888888889
-0.435,-0.355,4466.666666666667
-0.43,-0.365,4469.444444444444
-0.43,-0.37,4472.222222222223
-0.45,-0.375,4475.0
-0.445,-0.375,4477.777777777777
-0.445,-0.37,4480.555555555556
-0.435,-0.355,4483.333333333333
-0.435,-0.36,4486.111111111111
-0.445,-0.34,4488.888888888889
-0.44,-0.34,4491.666666666667
-0.45,-0.33,4494.444444444444
-0.43,-0.315,4497.222222222223
-0.43,-0.29,4500.0
-0.415,-0.275,4502.777777777777
-0.4,-0.265,4505.555555555556
-0.4,-0.26,4508.333333333333
-0.385,-0.245,4511.111111111111
-0.365,-0.225,4513.888888888889
-0.335,-0.205,4516.666666666667
-0.33,-0.2,4519.444444444444
-0.325,-0.19,4522.222222222223
-0.33,-0.2,4525.0
-0.33,-0.185,4527.777777777777
-0.31,-0.175,4530.555555555556
-0.295,-0.16,4533.333333333333
-0.285,-0.155,4536.111111111111
-0.29,-0.165,4538.888888888889
-0.29,-0.16,4541.666666666667
-0.31,-0.17,4544.444444444444
-0.295,-0.15,4547.222222222223
-0.285,-0.145,4550.0
-0.28,-0.15,4552.777777777777
-0.3,-0.145,4555.555555555556
-0.29,-0.145,4558.333333333333
-0.295,-0.155,4561.111111111111
-0.29,-0.15,4563.888888888889
-0.28,-0.135,4566.666666666667
-0.275,-0.145,4569.444444444444
-0.275,-0.145,4572.222222222223
-0.29,-0.15,4575.0
-0.29,-0.145,4577.777777777777
-0.285,-0.14,4580.555555555556
-0.27,-0.13,4583.333333333333
-0.27,-0.135,4586.111111111111
-0.27,-0.14,4588.888888888889
-0.275,-0.145,4591.666666666667
-0.29,-0.165,4594.444444444444
-0.285,-0.155,4597.222222222223
-0.275,-0.145,4600.0
-0.275,-0.15,4602.777777777777
-0.29,-0.16,4605.555555555556
-0.295,-0.16,4608.333333333333
-0.305,-0.16,4611.111111111111
-0.295,-0.145,4613.888888888889
-0.295,-0.14,4616.666666666667
-0.285,-0.15,4619.444444444444
-0.29,-0.165,4622.222222222223
-0.3,-0.17,4625.0
-0.305,-0.165,4627.777777777777
-0.31,-0.165,4630.555555555556
-0.295,-0.15,4633.333333333333
-0.3,-0.15,4636.111111111111
-0.305,-0.165,4638.888888888889
-0.31,-0.17,4641.666666666667
-0.325,-0.18,4644.444444444444
-0.325,-0.165,4647.222222222223
-0.315,-0.155,4650.0
-0.31,-0.16,4652.777777777777
-0.315,-0.165,4655.555555555556
-0.315,-0.175,4658.333333333333
-0.325,-0.18,4661.111111111111
-0.32,-0.165,4663.888888888889
-0.31,-0.15,4666.666666666667
-0.32,-0.17,4669.444444444444
-0.315,-0.17,4672.222222222223
-0.33,-0.185,4675.0
-0.33,-0.175,4677.777777777777
-0.32,-0.175,4680.555555555556
-0.31,-0.16,4683.333333333333
-0.31,-0.165,4686.111111111111
-0.31,-0.17,4688.888888888889
-0.33,-0.18,4691.666666666667
-0.335,-0.175,4694.444444444444
-0.33,-0.17,4697.222222222223
-0.32,-0.16,4700.0
-0.325,-0.16,4702.777777777777
-0.325,-0.17,4705.555555555556
-0.33,-0.19,4708.333333333333
-0.335,-0.165,4711.111111111111
-0.33,-0.16,4713.888888888889
-0.325,-0.155,4716.666666666667
-0.325,-0.16,4719.444444444444
-0.32,-0.155,4722.222222222223
-0.325,-0.165,4725.0
-0.33,-0.185,4727.777777777777
-0.325,-0.175,4730.555555555556
-0.315,-0.15,4733.333333333333
-0.305,-0.155,4736.111111111111
-0.325,-0.165,4738.888888888889
-0.315,-0.17,4741.666666666667
-0.335,-0.17,4744.444444444444
-0.33,-0.165,4747.222222222223
-0.31,-0.15,4750.0
-0.32,-0.16,4752.777777777777
-0.33,-0.17,4755.555555555556
-0.33,-0.175,4758.333333333333
-0.335,-0.18,4761.111111111111
-0.33,-0.155,4763.888888888889
-0.33,-0.15,4766.666666666667
-0.32,-0.145,4769.444444444444
-0.32,-0.16,4772.222222222223
-0.33,-0.165,4775.0
-0.33,-0.16,4777.777777777777
-0.325,-0.16,4780.555555555556
-0.315,-0.145,4783.333333333333
-0.315,-0.15,4786.111111111111
-0.315,-0.15,4788.888888888889
-0.33,-0.16,4791.666666666667
-0.33,-0.16,4794.444444444444
-0.32,-0.15,4797.222222222223
-0.315,-0.15,4800.0
-0.305,-0.15,4802.777777777777
-0.305,-0.155,4805.555555555556
-0.295,-0.16,4808.333333333333
-0.315,-0.16,4811.111111111111
-0.3,-0.15,4813.888888888889
-0.275,-0.13,4816.666666666667
-0.255,-0.15,4819.444444444444
-0.255,-0.155,4822.222222222223
-0.26,-0.16,4825.0
-0.265,-0.15,4827.777777777777
-0.255,-0.125,4830.555555555556
-0.235,-0.12,4833.333333333333
-0.23,-0.115,4836.111111111111
-0.225,-0.125,4838.888888888889
-0.22,-0.135,4841.666666666667
-0.22,-0.14,4844.444444444444
-0.215,-0.13,4847.222222222223
-0.2,-0.105,4850.0
-0.205,-0.105,4852.777777777777
-0.205,-0.1,4855.555555555556
-0.225,-0.105,4858.333333333333
-0.235,-0.09,4861.111111111111
-0.24,-0.08,4863.888888888889
-0.23,-0.075,4866.666666666667
-0.215,-0.09,4869.444444444444
-0.24,-0.09,4872.222222222223
-0.24,-0.1,4875.0
-0.25,-0.1,4877.777777777777
-0.235,-0.095,4880.555555555556
-0.21,-0.09,4883.333333333333
-0.2,-0.11,4886.111111111111
-0.22,-0.125,4888.888888888889
-0.255,-0.13,4891.666666666667
-0.275,-0.12,4894.444444444444
-0.285,-0.12,4897.222222222223
-0.3,-0.11,4900.0
-0.305,-0.11,4902.777777777777
-0.32,-0.12,4905.555555555556
-0.33,-0.13,4908.333333333333
-0.325,-0.14,4911.111111111111
-0.32,-0.145,4913.888888888889
-0.33,-0.125,4916.666666666667
-0.33,-0.13,4919.444444444444
-0.335,-0.15,4922.222222222223
-0.34,-0.145,4925.0
-0.345,-0.14,4927.777777777777
-0.34,-0.14,4930.555555555556
-0.335,-0.12,4933.333333333333
-0.32,-0.135,4936.111111111111
-0.325,-0.145,4938.888888888889
-0.335,-0.16,4941.666666666667
-0.345,-0.15,4944.444444444444
-0.345,-0.135,4947.222222222223
-0.345,-0.125,4950.0
-0.335,-0.135,4952.777777777777
-0.34,-0.145,4955.555555555556
-0.345,-0.15,4958.333333333333
-0.355,-0.16,4961.111111111111
-0.34,-0.145,4963.888888888889
-0.34,-0.135,4966.666666666667
-0.34,-0.135,4969.444444444444
-0.34,-0.125,4972.222222222223
-0.345,-0.16,4975.0
-0.355,-0.175,4977.777777777777
-0.365,-0.195,4980.555555555556
-0.37,-0.21,4983.333333333333
-0.405,-0.23,4986.111111111111
-0.445,-0.27,4988.888888888889
-0.48,-0.29,4991.666666666667
-0.495,-0.28,4994.444444444444
-0.52,-0.195,4997.222222222223
-0.535,-0.05,5000.0
-0.505,0.085,5002.777777777777
-0.415,0.195,5005.555555555556
-0.28,0.305,5008.333333333333
-0.135,0.42,5011.111111111111
0.065,0.565,5013.888888888889
0.3,0.705,5016.666666666667
0.58,0.8,5019.444444444444
0.81,0.795,5022.222222222223
0.945,0.595,5025.0
0.92,0.235,5027.777777777777
0.775,-0.075,5030.555555555556
0.445,-0.19,5033.333333333333
0.02,-0.185,5036.111111111111
-0.295,-0.155,5038.888888888889
-0.445,-0.17,5041.666666666667
-0.47,-0.165,5044.444444444444
-0.425,-0.155,5047.222222222223
-0.38,-0.145,5050.0
-0.36,-0.155,5052.777777777777
-0.36,-0.19,5055.555555555556
-0.37,-0.2,5058.333333333333
-0.38,-0.195,5061.111111111111
-0.38,-0.175,5063.888888888889
-0.375,-0.175,5066.666666666667
-0.37,-0.18,5069.444444444444
-0.365,-0.185,5072.222222222223
-0.37,-0.2,5075.0
-0.385,-0.195,5077.777777777777
-0.385,-0.2,5080.555555555556
-0.375,-0.195,5083.333333333333
-0.37,-0.19,5086.111111111111
-0.37,-0.195,5088.888888888889
-0.385,-0.2,5091.666666666667
-0.395,-0.2,5094.444444444444
-0.385,-0.19,5097.222222222223
-0.385,-0.18,5100.0
-0.39,-0.185,5102.777777777777
-0.385,-0.195,5105.555555555556
-0.395,-0.21,5108.333333333333
-0.41,-0.21,5111.111111111111
-0.4,-0.175,5113.888888888889
-0.395,-0.19,5116.666666666667
-0.38,-0.185,5119.444444444444
-0.395,-0.185,5122.222222222223
-0.395,-0.195,5125.0
-0.4,-0.2,5127.777777777777
-0.4,-0.195,5130.555555555556
-0.395,-0.18,5133.333333333333
-0.39,-0.19,5136.111111111111
-0.39,-0.195,5138.888888888889
-0.395,-0.19,5141.666666666667
-0.405,-0.195,5144.444444444444
-0.39,-0.175,5147.222222222223
-0.385,-0.175,5150.0
-0.375,-0.185,5152.777777777777
-0.375,-0.19,5155.555555555556
-0.38,-0.195,5158.333333333333
-0.39,-0.19,5161.111111111111
-0.385,-0.185,5163.888888888889
-0.37,-0.17,5166.666666666667
-0.37,-0.17,5169.444444444444
-0.37,-0.19,5172.222222222223
-0.375,-0.2,5175.0
-0.385,-0.2,5177.777777777777
-0.37,-0.18,5180.555555555556
-0.39,-0.175,5183.333333333333
-0.375,-0.195,5186.111111111111
-0.37,-0.175,5188.888888888889
-0.38,-0.19,5191.666666666667
-0.39,-0.19,5194.444444444444
-0.39,-0.19,5197.222222222223
-0.385,-0.18,5200.0
-0.375,-0.19,5202.777777777777
-0.375,-0.21,5205.555555555556
-0.385,-0.205,5208.333333333333
-0.395,-0.2,5211.111111111111
-0.39,-0.21,5213.888888888889
-0.385,-0.195,5216.666666666667
-0.375,-0.205,5219.444444444444
-0.38,-0.215,5222.222222222223
-0.385,-0.23,5225.0
-0.39,-0.215,5227.777777777777
-0.38,-0.225,5230.555555555556
-0.38,-0.205,5233.333333333333
-0.37,-0.215,5236.111111111111
-0.37,-0.235,5238.888888888889
-0.365,-0.245,5241.666666666667
-0.39,-0.245,5244.444444444444
-0.365,-0.24,5247.222222222223
-0.365,-0.245,5250.0
-0.36,-0.235,5252.777777777777
-0.375,-0.26,5255.555555555556
-0.38,-0.265,5258.333333333333
-0.4,-0.27,5261.111111111111
-0.39,-0.265,5263.888888888889
-0.375,-0.265,5266.666666666667
-0.375,-0.27,5269.444444444444
-0.37,-0.285,5272.222222222223
-0.385,-0.3,5275.0
-0.39,-0.295,5277.777777777777
-0.39,-0.295,5280.555555555556
-0.39,-0.295,5283.333333333333
-0.39,-0.305,5286.111111111111
-0.375,-0.31,5288.888888888889
-0.385,-0.32,5291.666666666667
-0.395,-0.325,5294.444444444444
-0.38,-0.32,5297.222222222223
-0.37,-0.31,5300.0
-0.375,-0.32,5302.777777777777
-0.375,-0.32,5305.555555555556
-0.39,-0.325,5308.333333333333
-0.405,-0.31,5311.111111111111
-0.375,-0.28,5313.888888888889
-0.37,-0.28,5316.666666666667
-0.36,-0.28,5319.444444444444
-0.375,-0.265,5322.222222222223
-0.385,-0.265,5325.0
-0.38,-0.25,5327.777777777777
-0.37,-0.225,5330.555555555556
-0.36,-0.2,5333.333333333333
-0.345,-0.195,5336.111111111111
-0.345,-0.19,5338.888888888889
-0.33,-0.18,5341.666666666667
-0.33,-0.17,5344.444444444444
-0.315,-0.15,5347.222222222223
-0.31,-0.135,5350.0
-0.295,-0.115,5352.777777777777
-0.285,-0.125,5355.555555555556
-0.285,-0.13,5358.333333333333
-0.295,-0.12,5361.111111111111
-0.28,-0.105,5363.888888888889
-0.27,-0.1,5366.666666666667
-0.28,-0.1,5369.444444444444
-0.28,-0.1,5372.222222222223
-0.28,-0.115,5375.0
-0.29,-0.12,5377.777777777777
-0.29,-0.105,5380.555555555556
-0.28,-0.1,5383.333333333333
-0.275,-0.105,5386.111111111111
-0.28,-0.115,5388.888888888889
-0.285,-0.12,5391.666666666667
-0.29,-0.11,5394.444444444444
-0.29,-0.105,5397.222222222223
-0.28,-0.095,5400.0
-0.28,-0.1,5402.777777777777
-0.285,-0.11,5405.555555555556
-0.29,-0.12,5408.333333333333
-0.3,-0.12,5411.111111111111
-0.295,-0.115,5413.888888888889
-0.285,-0.105,5416.666666666667
-0.28,-0.105,5419.444444444444
-0.285,-0.095,5422.222222222223
-0.285,-0.105,5425.0
-0.295,-0.12,5427.777777777777
-0.285,-0.115,5430.555555555556
-0.28,-0.105,5433.333333333333
-0.275,-0.11,5436.111111111111
-0.28,-0.125,5438.888888888889
-0.29,-0.115,5441.666666666667
-0.31,-0.13,5444.444444444444
-0.305,-0.115,5447.222222222223
-0.285,-0.095,5450.0
-0.27,-0.1,5452.777777777777
-0.27,-0.11,5455.555555555556
-0.275,-0.115,5458.333333333333
-0.285,-0.115,5461.111111111111
-0.285,-0.105,5463.888888888889
-0.27,-0.1,5466.666666666667
-0.265,-0.11,5469.444444444444
-0.265,-0.1,5472.222222222223
-0.265,-0.1,5475.0
-0.28,-0.105,5477.777777777777
-0.265,-0.095,5480.555555555556
-0.245,-0.095,5483.333333333333
-0.235,-0.095,5486.111111111111
-0.235,-0.11,5488.888888888889
-0.25,-0.115,5491.666666666667
-0.25,-0.11,5494.444444444444
-0.245,-0.105,5497.222222222223
-0.215,-0.105,5500.0
-0.22,-0.115,5502.777777777777
-0.245,-0.115,5505.555555555556
-0.255,-0.135,5508.333333333333
-0.23,-0.125,5511.111111111111
-0.205,-0.135,5513.888888888889
-0.21,-0.125,5516.666666666667
-0.22,-0.13,5519.444444444444
-0.23,-0.15,5522.222222222223
-0.24,-0.155,5525.0
-0.24,-0.165,5527.777777777777
-0.245,-0.165,5530.555555555556
-0.25,-0.17,5533.333333333333
-0.27,-0.175,5536.111111111111
-0.285,-0.17,5538.888888888889
-0.315,-0.175,5541.666666666667
-0.32,-0.17,5544.444444444444
-0.32,-0.165,5547.222222222223
-0.31,-0.16,5550.0
-0.33,-0.16,5552.777777777777
-0.34,-0.17,5555.555555555556
-0.345,-0.18,5558.333333333333
-0.36,-0.17,5561.111111111111
-0.365,-0.155,5563.888888888889
-0.36,-0.155,5566.666666666667
-0.35,-0.16,5569.444444444444
-0.355,-0.16,5572.222222222223
-0.375,-0.175,5575.0
-0.385,-0.17,5577.777777777777
-0.375,-0.155,5580.555555555556
-0.37,-0.15,5583.333333333333
-0.365,-0.16,5586.111111111111
-0.365,-0.155,5588.888888888889
-0.37,-0.165,5591.666666666667
-0.38,-0.16,5594.444444444444
-0.36,-0.15,5597.222222222223
-0.35,-0.15,5600.0
-0.355,-0.145,5602.777777777777
-0.355,-0.155,5605.555555555556
-0.35,-0.165,5608.333333333333
-0.365,-0.155,5611.111111111111
-0.35,-0.135,5613.888888888889
-0.35,-0.13,5616.666666666667
-0.34,-0.145,5619.444444444444
-0.355,-0.155,5622.222222222223
-0.35,-0.16,5625.0
-0.375,-0.16,5627.777777777777
-0.365,-0.175,5630.555555555556
-0.375,-0.19,5633.333333333333
-0.4,-0.235,5636.111111111111
-0.43,-0.25,5638.888888888889
-0.475,-0.295,5641.666666666667
-0.52,-0.315,5644.444444444444
-0.52,-0.295,5647.222222222223
-0.55,-0.19,5650.0
-0.57,-0.085,5652.777777777777
-0.54,0.06,5655.555555555556
-0.445,0.175,5658.333333333333
-0.305,0.265,5661.111111111111
-0.14,0.38,5663.888888888889
0.025,0.485,5666.666666666667
0.26,0.59,5669.444444444444
0.51,0.665,5672.222222222223
0.735,0.665,5675.0
0.845,0.5,5677.777777777777
0.875,0.205,5680.555555555556
0.735,-0.075,5683.333333333333
0.4,-0.215,5686.111111111111
-0.025,-0.205,5688.888888888889
-0.335,-0.18,5691.666666666667
-0.48,-0.175,5694.444444444444
-0.47,-0.165,5697.222222222223
-0.415,-0.145,5700.0
-0.375,-0.145,5702.777777777777
-0.365,-0.16,5705.555555555556
-0.385,-0.165,5708.333333333333
-0.4,-0.17,5711.111111111111
-0.38,-0.155,5713.888888888889
-0.39,-0.155,5716.666666666667
-0.375,-0.155,5719.444444444444
-0.385,-0.17,5722.222222222223
-0.395,-0.175,5725.0
-0.405,-0.17,5727.777777777777
-0.39,-0.155,5730.555555555556
-0.38,-0.155,5733.333333333333
-0.385,-0.16,5736.111111111111
-0.385,-0.165,5738.888888888889
-0.395,-0.18,5741.666666666667
-0.4,-0.175,5744.444444444444
-0.405,-0.17,5747.222222222223
-0.4,-0.16,5750.0
-0.39,-0.16,5752.777777777777
-0.39,-0.17,5755.555555555556
-0.395,-0.18,5758.333333333333
-0.4,-0.18,5761.111111111111
-0.39,-0.17,5763.888888888889
-0.385,-0.165,5766.666666666667
-0.39,-0.165,5769.444444444444
-0.385,-0.175,5772.222222222223
-0.41,-0.18,5775.0
-0.42,-0.185,5777.777777777777
-0.405,-0.17,5780.555555555556
-0.41,-0.16,5783.333333333333
-0.39,-0.165,5786.111111111111
-0.39,-0.175,5788.888888888889
-0.39,-0.175,5791.666666666667
-0.4,-0.175,5794.444444444444
-0.4,-0.18,5797.222222222223
-0.39,-0.17,5800.0
-0.375,-0.16,5802.777777777777
-0.38,-0.17,5805.555555555556
-0.395,-0.18,5808.333333333333
-0.4,-0.185,5811.111111111111
-0.39,-0.17,5813.888888888889
-0.4,-0.16,5816.666666666667
-0.39,-0.18,5819.444444444444
-0.395,-0.18,5822.222222222223
-0.41,-0.185,5825.0
-0.415,-0.185,5827.777777777777
-0.405,-0.165,5830.555555555556
-0.385,-0.155,5833.333333333333
-0.385,-0.17,5836.111111111111
-0.38,-0.175,5838.888888888889
-0.4,-0.195,5841.666666666667
-0.4,-0.195,5844.444444444444
-0.395,-0.19,5847.222222222223
-0.39,-0.175,5850.0
-0.38,-0.175,5852.777777777777
-0.375,-0.19,5855.555555555556
-0.395,-0.19,5858.333333333333
-0.395,-0.19,5861.111111111111
-0.385,-0.185,5863.888888888889
-0.38,-0.19,5866.666666666667
-0.375,-0.215,5869.444444444444
-0.385,-0.22,5872.222222222223
-0.39,-0.215,5875.0
-0.4,-0.225,5877.777777777777
-0.4,-0.215,5880.555555555556
-0.385,-0.2,5883.333333333333
-0.38,-0.23,5886.111111111111
-0.395,-0.225,5888.888888888889
-0.39,-0.245,5891.666666666667
-0.4,-0.24,5894.444444444444
-0.395,-0.245,5897.222222222223
-0.385,-0.22,5900.0
-0.38,-0.245,5902.777777777777
-0.385,-0.26,5905.555555555556
-0.395,-0.28,5908.333333333333
-0.405,-0.28,5911.111111111111
-0.4,-0.285,5913.888888888889
-0.39,-0.27,5916.666666666667
-0.38,-0.285,5919.444444444444
-0.38,-0.295,5922.222222222223
-0.385,-0.305,5925.0
-0.405,-0.305,5927.777777777777
-0.395,-0.315,5930.555555555556
-0.4,-0.305,5933.333333333333
-0.39,-0.31,5936.111111111111
-0.4,-0.33,5938.888888888889
-0.405,-0.325,5941.666666666667
-0.425,-0.33,5944.444444444444
-0.42,-0.315,5947.222222222223
-0.405,-0.31,5950.0
-0.4,-0.315,5952.777777777777
-0.405,-0.31,5955.555555555556
-0.405,-0.32,5958.333333333333
-0.415,-0.305,5961.111111111111
-0.4,-0.29,5963.888888888889
-0.39,-0.275,5966.666666666667
-0.38,-0.27,5969.444444444444
-0.385,-0.265,5972.222222222223
-0.395,-0.265,5975.0
-0.405,-0.255,5977.777777777777
-0.39,-0.245,5980.555555555556
-0.37,-0.225,5983.333333333333
-0.37,-0.215,5986.111111111111
-0.37,-0.215,5988.888888888889
-0.385,-0.215,5991.666666666667
-0.37,-0.21,5994.444444444444
-0.355,-0.205,5997.222222222223
-0.345,-0.185,6000.0
-0.34,-0.18,6002.777777777777
-0.335,-0.19,6005.555555555556
-0.34,-0.19,6008.333333333333
-0.355,-0.17,6011.111111111111
-0.335,-0.155,6013.888888888889
-0.325,-0.14,6016.666666666667
-0.31,-0.145,6019.444444444444
-0.305,-0.165,6022.222222222223
-0.305,-0.16,6025.0
-0.32,-0.16,6027.777777777777
-0.315,-0.15,6030.555555555556
-0.31,-0.145,6033.333333333333
-0.305,-0.14,6036.111111111111
-0.305,-0.15,6038.888888888889
-0.33,-0.15,6041.666666666667
-0.325,-0.17,6044.444444444444
-0.345,-0.155,6047.222222222223
-0.325,-0.145,6050.0
-0.315,-0.13,6052.777777777777
-0.315,-0.14,6055.555555555556
-0.305,-0.15,6058.333333333333
-0.31,-0.145,6061.111111111111
-0.31,-0.15,6063.888888888889
-0.3,-0.135,6066.666666666667
-0.305,-0.14,6069.444444444444
-0.305,-0.155,6072.222222222223
-0.315,-0.15,6075.0
-0.32,-0.165,6077.777777777777
-0.325,-0.145,6080.555555555556
-0.315,-0.145,6083.333333333333
-0.305,-0.155,6086.111111111111
-0.315,-0.16,6088.888888888889
-0.325,-0.16,6091.666666666667
-0.325,-0.175,6094.444444444444
-0.33,-0.155,6097.222222222223
-0.315,-0.155,6100.0
-0.315,-0.15,6102.777777777777
-0.31,-0.16,6105.555555555556
-0.33,-0.165,6108.333333333333
-0.34,-0.165,6111.111111111111
-0.335,-0.175,6113.888888888889
-0.33,-0.165,6116.666666666667
-0.345,-0.165,6119.444444444444
-0.355,-0.165,6122.222222222223
-0.365,-0.17,6125.0
-0.37,-0.165,6127.777777777777
-0.345,-0.16,6130.555555555556
-0.34,-0.16,6133.333333333333
-0.34,-0.165,6136.111111111111
-0.345,-0.17,6138.888888888889
-0.36,-0.195,6141.666666666667
-0.365,-0.185,6144.444444444444
-0.36,-0.18,6147.222222222223
-0.36,-0.17,6150.0
-0.345,-0.165,6152.777777777777
-0.355,-0.185,6155.555555555556
-0.365,-0.18,6158.333333333333
-0.35,-0.185,6161.111111111111
-0.36,-0.17,6163.888888888889
-0.35,-0.175,6166.666666666667
-0.34,-0.175,6169.444444444444
-0.345,-0.175,6172.222222222223
-0.355,-0.18,6175.0
-0.37,-0.175,6177.777777777777
-0.35,-0.155,6180.555555555556
-0.35,-0.16,6183.333333333333
-0.35,-0.17,6186.111111111111
-0.345,-0.18,6188.888888888889
-0.35,-0.2,6191.666666666667
-0.355,-0.195,6194.444444444444
-0.36,-0.165,6197.222222222223
-0.345,-0.16,6200.0
-0.355,-0.16,6202.777777777777
-0.35,-0.165,6205.555555555556
-0.36,-0.185,6208.333333333333
-0.37,-0.19,6211.111111111111
-0.355,-0.18,6213.888888888889
-0.355,-0.17,6216.666666666667
-0.35,-0.17,6219.444444444444
-0.355,-0.17,6222.222222222223
-0.36,-0.18,6225.0
-0.39,-0.18,6227.777777777777
-0.385,-0.17,6230.555555555556
-0.36,-0.18,6233.333333333333
-0.36,-0.18,6236.111111111111
-0.37,-0.2,6238.888888888889
-0.37,-0.195,6241.666666666667
-0.39,-0.195,6244.444444444444
-0.375,-0.155,6247.222222222223
-0.37,-0.145,6250.0
-0.35,-0.165,6252.777777777777
-0.34,-0.18,6255.555555555556
-0.345,-0.185,6258.333333333333
-0.36,-0.18,6261.111111111111
-0.36,-0.17,6263.888888888889
-0.35,-0.16,6266.666666666667
-0.35,-0.16,6269.444444444444
-0.335,-0.17,6272.222222222223
-0.36,-0.18,6275.0
-0.365,-0.19,6277.777777777777
-0.365,-0.18,6280.555555555556
-0.36,-0.165,6283.333333333333
-0.36,-0.17,6286.111111111111
-0.365,-0.185,6288.888888888889
-0.375,-0.195,6291.666666666667
-0.385,-0.185,6294.444444444444
-0.385,-0.185,6297.222222222223
-0.365,-0.185,6300.0
-0.37,-0.185,6302.777777777777
-0.375,-0.19,6305.555555555556
-0.37,-0.18,6308.333333333333
-0.375,-0.19,6311.111111111111
-0.365,-0.19,6313.888888888889
-0.355,-0.18,6316.666666666667
-0.355,-0.19,6319.444444444444
-0.36,-0.19,6322.222222222223
-0.365,-0.195,6325.0
-0.37,-0.195,6327.777777777777
-0.36,-0.185,6330.555555555556
-0.35,-0.175,6333.333333333333
-0.34,-0.195,6336.111111111111
-0.345,-0.18,6338.888888888889
-0.34,-0.18,6341.666666666667
-0.35,-0.185,6344.444444444444
-0.345,-0.19,6347.222222222223
-0.35,-0.175,6350.0
-0.36,-0.19,6352.777777777777
-0.35,-0.19,6355.555555555556
-0.36,-0.21,6358.333333333333
-0.37,-0.205,6361.111111111111
-0.36,-0.185,6363.888888888889
-0.36,-0.18,6366.666666666667
-0.355,-0.18,6369.444444444444
-0.36,-0.19,6372.222222222223
-0.375,-0.215,6375.0
-0.375,-0.22,6377.777777777777
-0.37,-0.205,6380.555555555556
-0.35,-0.195,6383.333333333333
-0.355,-0.19,6386.111111111111
-0.36,-0.195,6388.888888888889
-0.365,-0.215,6391.666666666667
-0.375,-0.235,6394.444444444444
-0.37,-0.21,6397.222222222223
-0.365,-0.2,6400.0
-0.36,-0.21,6402.777777777777
-0.355,-0.205,6405.555555555556
-0.36,-0.215,6408.333333333333
-0.36,-0.215,6411.111111111111
-0.35,-0.205,6413.888888888889
-0.34,-0.2,6416.666666666667
-0.345,-0.19,6419.444444444444
-0.345,-0.22,6422.222222222223
-0.355,-0.225,6425.0
-0.36,-0.225,6427.777777777777
-0.36,-0.205,6430.555555555556
-0.365,-0.2,6433.333333333333
-0.345,-0.205,6436.111111111111
-0.355,-0.205,6438.888888888889
-0.35,-0.21,6441.666666666667
-0.36,-0.21,6444.444444444444
-0.355,-0.195,6447.222222222223
-0.36,-0.195,6450.0
-0.345,-0.195,6452.777777777777
-0.335,-0.2,6455.555555555556
-0.33,-0.225,6458.333333333333
-0.33,-0.225,6461.111111111111
-0.31,-0.205,6463.888888888889
-0.305,-0.19,6466.666666666667
-0.3,-0.195,6469.444444444444
-0.305,-0.19,6472.222222222223
-0.295,-0.2,6475.0
-0.305,-0.185,6477.777777777777
-0.285,-0.18,6480.555555555556
-0.275,-0.165,6483.333333333333
-0.265,-0.17,6486.111111111111
-0.255,-0.18,6488.888888888889
-0.255,-0.175,6491.666666666667
-0.26,-0.17,6494.444444444444
-0.265,-0.165,6497.222222222223
-0.255,-0.15,6500.0
-0.255,-0.155,6502.777777777777
-0.26,-0.165,6505.555555555556
-0.28,-0.17,6508.333333333333
-0.29,-0.165,6511.111111111111
-0.28,-0.165,6513.888888888889
-0.27,-0.155,6516.666666666667
-0.255,-0.17,6519.444444444444
-0.275,-0.18,6522.222222222223
-0.29,-0.17,6525.0
-0.32,-0.165,6527.777777777777
-0.3,-0.16,6530.555555555556
-0.295,-0.16,6533.333333333333
-0.27,-0.18,6536.111111111111
-0.265,-0.19,6538.888888888889
-0.27,-0.205,6541.666666666667
-0.285,-0.19,6544.444444444444
-0.3,-0.19,6547.222222222223
-0.31,-0.17,6550.0
-0.315,-0.185,6552.777777777777
-0.32,-0.19,6555.555555555556
-0.35,-0.195,6558.333333333333
-0.37,-0.225,6561.111111111111
-0.365,-0.215,6563.888888888889
-0.365,-0.2,6566.666666666667
-0.365,-0.205,6569.444444444444
-0.37,-0.205,6572.222222222223
-0.37,-0.205,6575.0
-0.37,-0.22,6577.777777777777
-0.38,-0.21,6580.555555555556
-0.36,-0.21,6583.333333333333
-0.375,-0.21,6586.111111111111
-0.375,-0.215,6588.888888888889
-0.4,-0.225,6591.666666666667
-0.42,-0.235,6594.444444444444
-0.405,-0.23,6597.222222222223
-0.4,-0.205,6600.0
-0.385,-0.215,6602.777777777777
-0.38,-0.225,6605.555555555556
-0.4,-0.225,6608.333333333333
-0.415,-0.22,6611.111111111111
-0.405,-0.22,6613.888888888889
-0.395,-0.215,6616.666666666667
-0.395,-0.225,6619.444444444444
-0.395,-0.225,6622.222222222223
-0.41,-0.255,6625.0
-0.43,-0.275,6627.777777777777
-0.44,-0.29,6630.555555555556
-0.455,-0.29,6633.333333333333
-0.49,-0.315,6636.111111111111
-0.485,-0.33,6638.888888888889
-0.52,-0.305,6641.666666666667
-0.57,-0.245,6644.444444444444
-0.575,-0.115,6647.222222222223
-0.525,-0.025,6650.0
-0.42,0.03,6652.777777777777
-0.305,0.08,6655.555555555556
-0.19,0.155,6658.333333333333
-0.02,0.265,6661.111111111111
0.22,0.385,6663.888888888889
0.485,0.5,6666.666666666667
0.715,0.545,6669.444444444444
0.845,0.45,6672.222222222223
0.885,0.215,6675.0
0.79,-0.09,6677.777777777777
0.56,-0.325,6680.555555555556
0.225,-0.39,6683.333333333333
-0.07,-0.385,6686.111111111111
-0.285,-0.365,6688.888888888889
-0.425,-0.335,6691.666666666667
-0.5,-0.295,6694.444444444444
-0.55,-0.285,6697.222222222223
-0.535,-0.27,6700.0
-0.5,-0.265,6702.777777777777
-0.465,-0.27,6705.555555555556
-0.45,-0.275,6708.333333333333
-0.45,-0.285,6711.111111111111
-0.435,-0.265,6713.888888888889
-0.42,-0.25,6716.666666666667
-0.41,-0.26,6719.444444444444
-0.41,-0.26,6722.222222222223
-0.415,-0.265,6725.0
-0.42,-0.27,6727.777777777777
-0.425,-0.265,6730.555555555556
-0.42,-0.245,6733.333333333333
-0.43,-0.26,6736.111111111111
-0.43,-0.255,6738.888888888889
-0.44,-0.28,6741.666666666667
-0.45,-0.26,6744.444444444444
-0.45,-0.25,6747.222222222223
-0.43,-0.25,6750.0
-0.43,-0.255,6752.777777777777
-0.43,-0.255,6755.555555555556
-0.445,-0.26,6758.333333333333
-0.445,-0.26,6761.111111111111
-0.44,-0.255,6763.888888888889
-0.425,-0.225,6766.666666666667
-0.43,-0.24,6769.444444444444
-0.43,-0.245,6772.222222222223
-0.425,-0.265,6775.0
-0.445,-0.275,6777.777777777777
-0.445,-0.25,6780.555555555556
-0.43,-0.245,6783.333333333333
-0.435,-0.23,6786.111111111111
-0.435,-0.24,6788.888888888889
-0.445,-0.255,6791.666666666667
-0.445,-0.25,6794.444444444444
-0.435,-0.25,6797.222222222223
-0.43,-0.245,6800.0
-0.425,-0.235,6802.777777777777
-0.43,-0.24,6805.555555555556
-0.43,-0.25,6808.333333333333
-0.44,-0.25,6811.111111111111
-0.42,-0.245,6813.888888888889
-0.43,-0.22,6816.666666666667
-0.425,-0.245,6819.444444444444
-0.43,-0.245,6822.222222222223
-0.44,-0.24,6825.0
-0.44,-0.255,6827.777777777777
-0.43,-0.245,6830.555555555556
-0.43,-0.225,6833.333333333333
-0.415,-0.24,6836.111111111111
-0.425,-0.25,6838.888888888889
-0.43,-0.26,6841.666666666667
-0.455,-0.265,6844.444444444444
-0.445,-0.255,6847.222222222223
-0.445,-0.24,6850.0
-0.43,-0.25,6852.777777777777
-0.43,-0.25,6855.555555555556
-0.44,-0.265,6858.333333333333
-0.44,-0.26,6861.111111111111
-0.435,-0.26,6863.888888888889
-0.43,-0.265,6866.666666666667
-0.415,-0.275,6869.444444444444
-0.415,-0.27,6872.222222222223
-0.425,-0.27,6875.0
-0.425,-0.27,6877.777777777777
-0.42,-0.27,6880.555555555556
-0.405,-0.245,6883.333333333333
-0.405,-0.265,6886.111111111111
-0.415,-0.265,6888.888888888889
-0.415,-0.27,6891.666666666667
-0.425,-0.285,6894.444444444444
-0.43,-0.26,6897.222222222223
-0.405,-0.245,6900.0
-0.405,-0.255,6902.777777777777
-0.405,-0.265,6905.555555555556
-0.405,-0.285,6908.333333333333
-0.43,-0.295,6911.111111111111
-0.415,-0.3,6913.888888888889
-0.41,-0.295,6916.666666666667
-0.415,-0.285,6919.444444444444
-0.43,-0.32,6922.222222222223
-0.445,-0.325,6925.0
-0.465,-0.335,6927.777777777777
-0.46,-0.335,6930.555555555556
-0.45,-0.33,6933.333333333333
-0.455,-0.35,6936.111111111111
-0.46,-0.345,6938.888888888889
-0.465,-0.365,6941.666666666667
-0.485,-0.38,6944.444444444444
-0.495,-0.375,6947.222222222223
-0.475,-0.375,6950.0
-0.49,-0.385,6952.777777777777
-0.5,-0.385,6955.555555555556
-0.495,-0.4,6958.333333333333
-0.515,-0.4,6961.111111111111
-0.5,-0.395,6963.888888888889
-0.485,-0.39,6966.666666666667
-0.49,-0.39,6969.444444444444
-0.485,-0.4,6972.222222222223
-0.5,-0.405,6975.0
-0.5,-0.41,6977.777777777777
-0.49,-0.38,6980.555555555556
-0.48,-0.355,6983.333333333333
-0.46,-0.35,6986.111111111111
-0.46,-0.34,6988.888888888889
-0.47,-0.345,6991.666666666667
-0.465,-0.335,6994.444444444444
-0.44,-0.31,6997.222222222223
-0.43,-0.285,7000.0
-0.425,-0.28,7002.777777777777
-0.41,-0.27,7005.555555555556
-0.41,-0.255,7008.333333333333
-0.4,-0.245,7011.111111111111
-0.39,-0.235,7013.888888888889
-0.38,-0.21,7016.666666666667
-0.355,-0.215,7019.444444444444
-0.35,-0.22,7022.222222222223
-0.355,-0.22,7025.0
-0.35,-0.215,7027.777777777777
-0.34,-0.19,7030.555555555556
-0.33,-0.18,7033.333333333333
-0.325,-0.18,7036.111111111111
-0.305,-0.185,7038.888888888889
-0.32,-0.195,7041.666666666667
-0.315,-0.195,7044.444444444444
-0.305,-0.19,7047.222222222223
-0.3,-0.17,7050.0
-0.305,-0.17,7052.777777777777
-0.305,-0.185,7055.555555555556
-0.31,-0.185,7058.333333333333
-0.33,-0.185,7061.111111111111
-0.31,-0.18,7063.888888888889
-0.315,-0.17,7066.666666666667
-0.315,-0.19,7069.444444444444
-0.32,-0.18,7072.222222222223
-0.325,-0.195,7075.0
-0.325,-0.19,7077.777777777777
-0.325,-0.17,7080.555555555556
-0.31,-0.17,7083.333333333333
-0.31,-0.175,7086.111111111111
-0.315,-0.19,7088.888888888889
-0.325,-0.195,7091.666666666667
-0.33,-0.19,7094.444444444444
-0.325,-0.185,7097.222222222223
-0.325,-0.185,7100.0
-0.315,-0.18,7102.777777777777
-0.32,-0.185,7105.555555555556
-0.33,-0.19,7108.333333333333
-0.335,-0.205,7111.111111111111
-0.33,-0.195,7113.888888888889
-0.315,-0.185,7116.666666666667
-0.32,-0.185,7119.444444444444
-0.32,-0.185,7122.222222222223
-0.335,-0.205,7125.0
-0.335,-0.205,7127.777777777777
-0.325,-0.18,7130.555555555556
-0.325,-0.195,7133.333333333333
-0.32,-0.195,7136.111111111111
-0.32,-0.205,7138.888888888889
-0.325,-0.21,7141.666666666667
-0.35,-0.225,7144.444444444444
-0.345,-0.21,7147.222222222223
-0.345,-0.2,7150.0
-0.335,-0.2,7152.777777777777
-0.345,-0.205,7155.555555555556
-0.355,-0.21,7158.333333333333
-0.355,-0.225,7161.111111111111
-0.355,-0.21,7163.888888888889
-0.345,-0.2,7166.666666666667
-0.335,-0.2,7169.444444444444
-0.335,-0.205,7172.222222222223
-0.345,-0.21,7175.0
-0.355,-0.2,7177.777777777777
-0.34,-0.195,7180.555555555556
-0.335,-0.185,7183.333333333333
-0.33,-0.205,7186.111111111111
-0.335,-0.21,7188.888888888889
-0.345,-0.22,7191.666666666667
-0.35,-0.215,7194.444444444444
-0.35,-0.205,7197.222222222223
-0.34,-0.2,7200.0
-0.335,-0.215,7202.777777777777
-0.33,-0.21,7205.555555555556
-0.36,-0.225,7208.333333333333
-0.355,-0.22,7211.111111111111
-0.345,-0.215,7213.888888888889
-0.335,-0.2,7216.666666666667
-0.345,-0.21,7219.444444444444
-0.35,-0.205,7222.222222222223
-0.36,-0.215,7225.0
-0.38,-0.215,7227.777777777777
-0.37,-0.215,7230.555555555556
-0.345,-0.2,7233.333333333333
-0.345,-0.2,7236.111111111111
-0.35,-0.21,7238.888888888889
-0.355,-0.22,7241.666666666667
-0.365,-0.21,7244.444444444444
-0.36,-0.195,7247.222222222223
-0.345,-0.2,7250.0
-0.345,-0.19,7252.777777777777
-0.35,-0.21,7255.555555555556
-0.36,-0.22,7258.333333333333
-0.36,-0.215,7261.111111111111
-0.35,-0.2,7263.888888888889
-0.355,-0.185,7266.666666666667
-0.34,-0.195,7269.444444444444
-0.345,-0.2,7272.222222222223
-0.355,-0.2,7275.0
-0.355,-0.205,7277.777777777777
-0.355,-0.195,7280.555555555556
-0.34,-0.185,7283.333333333333
-0.34,-0.19,7286.111111111111
-0.345,-0.195,7288.888888888889
-0.365,-0.2,7291.666666666667
-0.37,-0.2,7294.444444444444
-0.35,-0.2,7297.222222222223
-0.33,-0.19,7300.0
-0.32,-0.2,7302.777777777777
-0.315,-0.19,7305.555555555556
-0.295,-0.2,7308.333333333333
-0.305,-0.195,7311.111111111111
-0.295,-0.18,7313.888888888889
-0.3,-0.16,7316.666666666667
-0.285,-0.18,7319.444444444444
-0.275,-0.18,7322.222222222223
-0.26,-0.185,7325.0
-0.275,-0.18,7327.777777777777
-0.265,-0.16,7330.555555555556
-0.26,-0.145,7333.333333333333
-0.25,-0.155,7336.111111111111
-0.245,-0.17,7338.888888888889
-0.255,-0.17,7341.666666666667
-0.265,-0.155,7344.444444444444
-0.26,-0.145,7347.222222222223
-0.26,-0.13,7350.0
-0.25,-0.135,7352.777777777777
-0.26,-0.14,7355.555555555556
-0.28,-0.135,7358.333333333333
-0.28,-0.14,7361.111111111111
-0.275,-0.14,7363.888888888889
-0.285,-0.125,7366.666666666667
-0.28,-0.13,7369.444444444444
-0.255,-0.15,7372.222222222223
-0.245,-0.165,7375.0
-0.245,-0.165,7377.777777777777
-0.26,-0.165,7380.555555555556
-0.285,-0.155,7383.333333333333
-0.29,-0.15,7386.111111111111
-0.3,-0.165,7388.888888888889
-0.32,-0.18,7391.666666666667
-0.335,-0.195,7394.444444444444
-0.355,-0.175,7397.222222222223
-0.35,-0.17,7400.0
-0.355,-0.175,7402.777777777777
-0.355,-0.185,7405.555555555556
-0.375,-0.195,7408.333333333333
-0.385,-0.19,7411.111111111111
-0.38,-0.175,7413.888888888889
-0.36,-0.185,7416.666666666667
-0.35,-0.19,7419.444444444444
-0.36,-0.205,7422.222222222223
-0.365,-0.215,7425.0
-0.37,-0.215,7427.777777777777
-0.37,-0.195,7430.555555555556
-0.365,-0.18,7433.333333333333
-0.36,-0.19,7436.111111111111
-0.365,-0.2,7438.888888888889
-0.37,-0.2,7441.666666666667
-0.385,-0.215,7444.444444444444
-0.385,-0.2,7447.222222222223
-0.365,-0.18,7450.0
-0.36,-0.195,7452.777777777777
-0.38,-0.2,7455.555555555556
-0.385,-0.205,7458.333333333333
-0.395,-0.21,7461.111111111111
-0.395,-0.2,7463.888888888889
-0.385,-0.205,7466.666666666667
-0.38,-0.235,7469.444444444444
-0.395,-0.26,7472.222222222223
-0.425,-0.285,7475.0
-0.465,-0.3,7477.777777777777
-0.5,-0.325,7480.555555555556
-0.515,-0.32,7483.333333333333
-0.53,-0.29,7486.111111111111
-0.56,-0.19,7488.888888888889
-0.585,-0.055,7491.666666666667
-0.53,0.05,7494.444444444444
-0.41,0.15,7497.222222222223
-0.255,0.245,7500.0
-0.105,0.345,7502.777777777777
0.105,0.445,7505.555555555556
0.355,0.53,7508.333333333333
0.6,0.595,7511.111111111111
0.81,0.52,7513.888888888889
0.89,0.275,7516.666666666667
0.83,-0.085,7519.444444444444
0.58,-0.3,7522.222222222223
0.185,-0.335,7525.0
-0.205,-0.285,7527.777777777777
-0.45,-0.25,7530.555555555556
-0.525,-0.245,7533.333333333333
-0.495,-0.235,7536.111111111111
-0.465,-0.215,7538.888888888889
-0.435,-0.23,7541.666666666667
-0.415,-0.23,7544.444444444444
-0.415,-0.24,7547.222222222223
-0.415,-0.235,7550.0
-0.4,-0.235,7552.777777777777
-0.395,-0.245,7555.555555555556
-0.405,-0.255,7558.333333333333
-0.425,-0.25,7561.111111111111
-0.435,-0.24,7563.888888888889
-0.415,-0.225,7566.666666666667
-0.415,-0.23,7569.444444444444
-0.415,-0.25,7572.222222222223
-0.415,-0.24,7575.0
-0.43,-0.255,7577.777777777777
-0.42,-0.23,7580.555555555556
-0.41,-0.225,7583.333333333333
-0.405,-0.225,7586.111111111111
-0.42,-0.225,7588.888888888889
-0.41,-0.23,7591.666666666667
-0.42,-0.24,7594.444444444444
-0.4,-0.225,7597.222222222223
-0.395,-0.215,7600.0
-0.385,-0.215,7602.777777777777
-0.4,-0.225,7605.555555555556
-0.4,-0.235,7608.333333333333
-0.4,-0.24,7611.111111111111
-0.4,-0.225,7613.888888888889
-0.395,-0.205,7616.666666666667
-0.4,-0.21,7619.444444444444
-0.4,-0.225,7622.222222222223
-0.4,-0.23,7625.0
-0.41,-0.235,7627.777777777777
-0.395,-0.225,7630.555555555556
-0.41,-0.215,7633.333333333333
-0.4,-0.22,7636.111111111111
-0.395,-0.23,7638.888888888889
-0.405,-0.235,7641.666666666667
-0.41,-0.23,7644.444444444444
-0.415,-0.215,7647.222222222223
-0.405,-0.215,7650.0
-0.4,-0.215,7652.777777777777
-0.395,-0.225,7655.555555555556
-0.405,-0.235,7658.333333333333
-0.415,-0.235,7661.111111111111
-0.405,-0.23,7663.888888888889
-0.415,-0.215,7666.666666666667
-0.41,-0.225,7669.444444444444
-0.405,-0.225,7672.222222222223
-0.405,-0.235,7675.0
-0.41,-0.245,7677.777777777777
-0.405,-0.24,7680.555555555556
-0.4,-0.225,7683.333333333333
-0.395,-0.21,7686.111111111111
-0.405,-0.23,7688.888888888889
-0.405,-0.23,7691.666666666667
-0.4,-0.245,7694.444444444444
-0.395,-0.22,7697.222222222223
-0.39,-0.225,7700.0
-0.395,-0.235,7702.777777777777
-0.39,-0.245,7705.555555555556
-0.395,-0.25,7708.333333333333
-0.42,-0.25,7711.111111111111
-0.415,-0.24,7713.888888888889
-0.405,-0.24,7716.666666666667
-0.4,-0.245,7719.444444444444
-0.4,-0.25,7722.222222222223
-0.415,-0.27,7725.0
-0.42,-0.27,7727.777777777777
-0.41,-0.265,7730.555555555556
-0.395,-0.26,7733.333333333333
-0.4,-0.28,7736.111111111111
-0.405,-0.295,7738.888888888889
-0.415,-0.295,7741.666666666667
-0.435,-0.315,7744.444444444444
-0.415,-0.31,7747.222222222223
-0.415,-0.305,7750.0
-0.4,-0.31,7752.777777777777
-0.405,-0.325,7755.555555555556
-0.42,-0.33,7758.333333333333
-0.43,-0.35,7761.111111111111
-0.425,-0.34,7763.888888888889
-0.41,-0.335,7766.666666666667
-0.41,-0.35,7769.444444444444
-0.405,-0.35,7772.222222222223
-0.415,-0.37,7775.0
-0.425,-0.365,7777.777777777777
-0.425,-0.355,7780.555555555556
-0.42,-0.335,7783.333333333333
-0.41,-0.355,7786.111111111111
-0.41,-0.365,7788.888888888889
-0.42,-0.37,7791.666666666667
-0.43,-0.36,7794.444444444444
-0.425,-0.335,7797.222222222223
-0.42,-0.315,7800.0
-0.405,-0.315,7802.777777777777
-0.415,-0.305,7805.555555555556
-0.41,-0.285,7808.333333333333
-0.41,-0.285,7811.111111111111
-0.385,-0.27,7813.888888888889
-0.37,-0.24,7816.666666666667
-0.36,-0.23,7819.444444444444
-0.35,-0.22,7822.222222222223
-0.35,-0.22,7825.0
-0.35,-0.2,7827.777777777777
-0.335,-0.18,7830.555555555556
-0.32,-0.175,7833.333333333333
-0.305,-0.18,7836.111111111111
-0.315,-0.185,7838.888888888889
-0.315,-0.19,7841.666666666667
-0.32,-0.185,7844.444444444444
-0.305,-0.18,7847.222222222223
-0.305,-0.175,7850.0
-0.295,-0.17,7852.777777777777
-0.29,-0.165,7855.555555555556
-0.295,-0.175,7858.333333333333
-0.295,-0.17,7861.111111111111
-0.285,-0.165,7863.888888888889
-0.285,-0.155,7866.666666666667
-0.27,-0.16,7869.444444444444
-0.28,-0.16,7872.222222222223
-0.28,-0.165,7875.0
-0.295,-0.165,7877.777777777777
-0.28,-0.16,7880.555555555556
-0.285,-0.145,7883.333333333333
-0.275,-0.15,7886.111111111111
-0.285,-0.16,7888.888888888889
-0.295,-0.165,7891.666666666667
-0.305,-0.175,7894.444444444444
-0.295,-0.15,7897.222222222223
-0.285,-0.14,7900.0
-0.285,-0.155,7902.777777777777
-0.29,-0.16,7905.555555555556
-0.3,-0.175,7908.333333333333
-0.31,-0.175,7911.111111111111
-0.295,-0.17,7913.888888888889
-0.3,-0.16,7916.666666666667
-0.29,-0.155,7919.444444444444
-0.285,-0.165,7922.222222222223
-0.305,-0.175,7925.0
-0.31,-0.18,7927.777777777777
-0.3,-0.17,7930.555555555556
-0.295,-0.165,7933.333333333333
-0.305,-0.17,7936.111111111111
-0.3,-0.185,7938.888888888889
-0.305,-0.185,7941.666666666667
-0.32,-0.18,7944.444444444444
-0.32,-0.175,7947.222222222223
-0.31,-0.17,7950.0
-0.3,-0.18,7952.777777777777
-0.31,-0.185,7955.555555555556
-0.32,-0.2,7958.333333333333
-0.34,-0.195,7961.111111111111
-0.33,-0.185,7963.888888888889
-0.31,-0.175,7966.666666666667
-0.315,-0.18,7969.444444444444
-0.325,-0.185,7972.222222222223
-0.325,-0.205,7975.0
-0.345,-0.21,7977.777777777777
-0.33,-0.19,7980.555555555556
-0.32,-0.185,7983.333333333333
-0.32,-0.19,7986.111111111111
-0.335,-0.2,7988.888888888889
-0.335,-0.205,7991.666666666667
-0.355,-0.215,7994.444444444444
-0.34,-0.2,7997.222222222223
-0.32,-0.18,8000.0
-0.315,-0.185,8002.777777777777
-0.33,-0.2,8005.555555555556
-0.34,-0.205,8008.333333333333
-0.34,-0.2,8011.111111111111
-0.35,-0.205,8013.888888888889
-0.33,-0.19,8016.666666666667
-0.33,-0.19,8019.444444444444
-0.34,-0.18,8022.222222222223
-0.35,-0.205,8025.0
-0.355,-0.2,8027.777777777777
-0.345,-0.195,8030.555555555556
-0.335,-0.18,8033.333333333333
-0.335,-0.185,8036.111111111111
-0.34,-0.185,8038.888888888889
-0.34,-0.2,8041.666666666667
-0.345,-0.2,8044.444444444444
-0.335,-0.18,8047.222222222223
-0.335,-0.18,8050.0
-0.325,-0.185,8052.777777777777
-0.325,-0.185,8055.555555555556
-0.335,-0.2,8058.333333333333
-0.34,-0.195,8061.111111111111
-0.34,-0.175,8063.888888888889
-0.32,-0.175,8066.666666666667
-0.315,-0.185,8069.444444444444
-0.32,-0.19,8072.222222222223
-0.335,-0.195,8075.0
-0.335,-0.205,8077.777777777777
-0.32,-0.185,8080.555555555556
-0.325,-0.16,8083.333333333333
-0.315,-0.17,8086.111111111111
-0.32,-0.19,8088.888888888889
-0.32,-0.19,8091.666666666667
-0.345,-0.19,8094.444444444444
-0.335,-0.18,8097.222222222223
-0.32,-0.17,8100.0
-0.31,-0.16,8102.777777777777
-0.32,-0.17,8105.555555555556
-0.32,-0.185,8108.333333333333
-0.34,-0.195,8111.111111111111
-0.33,-0.18,8113.888888888889
-0.32,-0.175,8116.666666666667
-0.31,-0.17,8119.444444444444
-0.31,-0.17,8122.222222222223
-0.31,-0.195,8125.0
-0.295,-0.2,8127.777777777777
-0.28,-0.18,8130.555555555556
-0.255,-0.17,8133.333333333333
-0.25,-0.175,8136.111111111111
-0.25,-0.18,8138.888888888889
-0.255,-0.18,8141.666666666667
-0.26,-0.17,8144.444444444444
-0.24,-0.155,8147.222222222223
-0.22,-0.135,8150.0
-0.23,-0.145,8152.777777777777
-0.23,-0.16,8155.555555555556
-0.215,-0.16,8158.333333333333
-0.22,-0.16,8161.111111111111
-0.225,-0.14,8163.888888888889
-0.23,-0.12,8166.666666666667
-0.23,-0.12,8169.444444444444
-0.235,-0.13,8172.222222222223
-0.245,-0.13,8175.0
-0.255,-0.125,8177.777777777777
-0.24,-0.125,8180.555555555556
-0.235,-0.115,8183.333333333333
-0.245,-0.11,8186.111111111111
-0.235,-0.13,8188.888888888889
-0.23,-0.145,8191.666666666667
-0.22,-0.155,8194.444444444445
-0.195,-0.14,8197.222222222223
-0.22,-0.14,8200.0
-0.245,-0.145,8202.777777777777
-0.26,-0.15,8205.555555555555
-0.27,-0.16,8208.333333333334
-0.29,-0.165,8211.111111111111
-0.3,-0.16,8213.888888888889
-0.305,-0.15,8216.666666666666
-0.305,-0.165,8219.444444444445
-0.32,-0.185,8222.222222222223
-0.33,-0.18,8225.0
-0.35,-0.185,8227.777777777777
-0.35,-0.17,8230.555555555555
-0.335,-0.155,8233.333333333334
-0.335,-0.175,8236.111111111111
-0.335,-0.19,8238.888888888889
-0.34,-0.195,8241.666666666666
-0.35,-0.195,8244.444444444445
-0.35,-0.18,8247.222222222223
-0.345,-0.175,8250.0
-0.335,-0.18,8252.777777777777
-0.345,-0.18,8255.555555555555
-0.355,-0.19,8258.333333333334
-0.37,-0.17,8261.111111111111
-0.35,-0.18,8263.888888888889
-0.345,-0.175,8266.666666666666
-0.335,-0.18,8269.444444444445
-0.335,-0.185,8272.222222222223
-0.335,-0.2,8275.0
-0.355,-0.195,8277.777777777777
-0.355,-0.2,8280.555555555555
-0.345,-0.225,8283.333333333334
-0.355,-0.255,8286.111111111111
-0.395,-0.295,8288.888888888889
-0.45,-0.33,8291.666666666666
-0.48,-0.34,8294.444444444445
-0.505,-0.305,8297.222222222223
-0.525,-0.195,8300.0
-0.545,-0.065,8302.777777777777
-0.5,0.07,8305.555555555555
-0.395,0.18,8308.333333333334
-0.255,0.285,8311.111111111111
-0.07,0.415,8313.888888888889
0.145,0.555,8316.666666666666
0.425,0.67,8319.444444444445
0.685,0.7,8322.222222222223
0.875,0.555,8325.0
0.925,0.21,8327.777777777777
0.795,-0.125,8330.555555555555
0.47,-0.265,8333.333333333334
0.02,-0.24,8336.111111111111
-0.325,-0.215,8338.888888888889
-0.47,-0.215,8341.666666666666
-0.485,-0.23,8344.444444444445
-0.41,-0.22,8347.222222222223
-0.365,-0.21,8350.0
-0.355,-0.235,8352.777777777777
-0.365,-0.235,8355.555555555555
-0.38,-0.235,8358.333333333334
-0.385,-0.23,8361.111111111111
-0.38,-0.225,8363.888888888889
-0.37,-0.21,8366.666666666666
-0.37,-0.215,8369.444444444445
-0.375,-0.225,8372.222222222223
-0.385,-0.24,8375.0
-0.395,-0.25,8377.777777777777
-0.385,-0.23,8380.555555555555
-0.38,-0.23,8383.333333333334
-0.385,-0.225,8386.111111111111
-0.375,-0.23,8388.888888888889
-0.39,-0.24,8391.666666666666
-0.405,-0.235,8394.444444444445
-0.405,-0.23,8397.222222222223
-0.39,-0.225,8400.0
-0.385,-0.23,8402.777777777777
-0.385,-0.245,8405.555555555555
-0.39,-0.235,8408.333333333334
-0.41,-0.235,8411.111111111111
-0.4,-0.22,8413.888888888889
-0.39,-0.22,8416.666666666666
-0.385,-0.225,8419.444444444445
-0.385,-0.23,8422.222222222223
-0.395,-0.245,8425.0
-0.39,-0.225,8427.777777777777
-0.395,-0.22,8430.555555555555
-0.38,-0.21,8433.333333333334
-0.375,-0.21,8436.111111111111
-0.38,-0.22,8438.888888888889
-0.385,-0.24,8441.666666666666
-0.4,-0.235,8444.444444444445
-0.385,-0.225,8447.222222222223
-0.38,-0.21,8450.0
-0.375,-0.2,8452.777777777777
-0.38,-0.225,8455.555555555555
-0.395,-0.225,8458.333333333334
-0.395,-0.225,8461.111111111111
-0.385,-0.225,8463.888888888889
-0.375,-0.215,8466.666666666666
-0.37,-0.215,8469.444444444445
-0.365,-0.235,8472.222222222223
-0.385,-0.24,8475.0
-0.395,-0.24,8477.777777777777
-0.385,-0.235,8480.555555555555
-0.385,-0.22,8483.333333333334
-0.37,-0.225,8486.111111111111
-0.375,-0.235,8488.888888888889
-0.37,-0.245,8491.666666666666
-0.375,-0.245,8494.444444444445
-0.375,-0.23,8497.222222222223
-0.37,-0.225,8500.0
-0.355,-0.22,8502.777777777777
-0.365,-0.245,8505.555555555555
-0.38,-0.25,8508.333333333334
-0.375,-0.255,8511.111111111111
-0.37,-0.255,8513.888888888889
-0.38,-0.24,8516.666666666666
-0.365,-0.25,8519.444444444445
-0.37,-0.26,8522.222222222223
-0.375,-0.275,8525.0
-0.39,-0.285,8527.777777777777
-0.38,-0.275,8530.555555555555
-0.375,-0.28,8533.333333333334
-0.38,-0.29,8536.111111111111
-0.37,-0.3,8538.888888888889
-0.375,-0.305,8541.666666666666
-0.38,-0.315,8544.444444444445
-0.385,-0.31,8547.222222222223
-0.385,-0.315,8550.0
-0.37,-0.325,8552.777777777777
-0.375,-0.335,8555.555555555555
-0.375,-0.35,8558.333333333334
-0.38,-0.345,8561.111111111111
-0.38,-0.34,8563.888888888889
-0.38,-0.335,8566.666666666666
-0.38,-0.35,8569.444444444445
-0.375,-0.36,8572.222222222223
-0.39,-0.37,8575.0
-0.395,-0.365,8577.777777777777
-0.385,-0.36,8580.555555555555
-0.385,-0.345,8583.333333333334
-0.375,-0.34,8586.111111111111
-0.375,-0.35,8588.888888888889
-0.385,-0.355,8591.666666666666
-0.385,-0.345,8594.444444444445
-0.39,-0.325,8597.222222222223
-0.37,-0.305,8600.0
-0.365,-0.3,8602.777777777777
-0.365,-0.285,8605.555555555555
-0.375,-0.285,8608.333333333334
-0.385,-0.28,8611.111111111111
-0.35,-0.265,8613.888888888889
-0.345,-0.23,8616.666666666666
-0.325,-0.235,8619.444444444445
-0.325,-0.24,8622.222222222223
-0.33,-0.245,8625.0
-0.325,-0.225,8627.777777777777
-0.325,-0.215,8630.555555555555
-0.315,-0.195,8633.333333333334
-0.315,-0.18,8636.111111111111
-0.315,-0.18,8638.888888888889
-0.3,-0.19,8641.666666666666
-0.3,-0.18,8644.444444444445
-0.285,-0.165,8647.222222222223
-0.27,-0.14,8650.0
-0.265,-0.155,8652.777777777777
-0.26,-0.165,8655.555555555555
-0.275,-0.16,8658.333333333334
-0.285,-0.155,8661.111111111111
-0.265,-0.145,8663.888888888889
-0.255,-0.135,8666.666666666666
-0.25,-0.15,8669.444444444445
-0.27,-0.165,8672.222222222223
-0.28,-0.17,8675.0
-0.285,-0.15,8677.777777777777
-0.285,-0.145,8680.555555555555
-0.28,-0.145,8683.333333333334
-0.27,-0.145,8686.111111111111
-0.27,-0.16,8688.888888888889
-0.27,-0.17,8691.666666666666
-0.285,-0.17,8694.444444444445
-0.28,-0.155,8697.222222222223
-0.275,-0.135,8700.0
-0.27,-0.145,8702.777777777777
-0.265,-0.155,8705.555555555555
-0.275,-0.165,8708.333333333334
-0.29,-0.18,8711.111111111111
-0.285,-0.165,8713.888888888889
-0.285,-0.15,8716.666666666666
-0.275,-0.16,8719.444444444445
-0.27,-0.15,8722.222222222223
-0.28,-0.17,8725.0
-0.295,-0.175,8727.777777777777
-0.28,-0.165,8730.555555555555
-0.27,-0.155,8733.333333333334
-0.27,-0.165,8736.111111111111
-0.275,-0.175,8738.888888888889
-0.285,-0.18,8741.666666666666
-0.3,-0.175,8744.444444444445
-0.295,-0.165,8747.222222222223
-0.29,-0.16,8750.0
-0.295,-0.165,8752.777777777777
-0.3,-0.185,8755.555555555555
-0.29,-0.195,8758.333333333334
-0.305,-0.185,8761.111111111111
-0.295,-0.185,8763.888888888889
-0.29,-0.17,8766.666666666666
-0.295,-0.175,8769.444444444445
-0.29,-0.17,8772.222222222223
-0.31,-0.185,8775.0
-0.32,-0.18,8777.777777777777
-0.315,-0.185,8780.555555555555
-0.315,-0.18,8783.333333333334
-0.3,-0.175,8786.111111111111
-0.305,-0.185,8788.888888888889
-0.315,-0.19,8791.666666666666
-0.33,-0.185,8794.444444444445
-0.32,-0.17,8797.222222222223
-0.305,-0.16,8800.0
-0.315,-0.185,8802.777777777777
-0.305,-0.185,8805.555555555555
-0.315,-0.19,8808.333333333334
-0.325,-0.2,8811.111111111111
-0.31,-0.195,8813.888888888889
-0.295,-0.165,8816.666666666666
-0.3,-0.175,8819.444444444445
-0.305,-0.18,8822.222222222223
-0.31,-0.19,8825.0
-0.325,-0.195,8827.777777777777
-0.315,-0.19,8830.555555555555
-0.315,-0.16,8833.333333333334
-0.305,-0.175,8836.111111111111
-0.305,-0.165,8838.888888888889
-0.325,-0.185,8841.666666666666
-0.32,-0.18,8844.444444444445
-0.32,-0.18,8847.222222222223
-0.31,-0.155,8850.0
-0.305,-0.17,8852.777777777777
-0.32,-0.18,8855.555555555555
-0.32,-0.18,8858.333333333334
-0.32,-0.185,8861.111111111111
-0.31,-0.165,8863.888888888889
-0.305,-0.15,8866.666666666666
-0.29,-0.16,8869.444444444445
-0.285,-0.165,8872.222222222223
-0.29,-0.18,8875.0
-0.305,-0.18,8877.777777777777
-0.31,-0.165,8880.555555555555
-0.3,-0.15,8883.333333333334
-0.3,-0.155,8886.111111111111
-0.31,-0.155,8888.888888888889
-0.315,-0.17,8891.666666666666
-0.315,-0.175,8894.444444444445
-0.31,-0.165,8897.222222222223
-0.295,-0.155,8900.0
-0.3,-0.15,8902.777777777777
-0.295,-0.155,8905.555555555555
-0.315,-0.165,8908.333333333334
-0.31,-0.165,8911.111111111111
-0.29,-0.16,8913.888888888889
-0.265,-0.16,8916.666666666666
-0.24,-0.165,8919.444444444445
-0.255,-0.17,8922.222222222223
-0.24,-0.175,8925.0
-0.25,-0.16,8927.777777777777
-0.225,-0.135,8930.555555555555
-0.225,-0.14,8933.333333333334
-0.215,-0.145,8936.111111111111
-0.21,-0.14,8938.888888888889
-0.2,-0.145,8941.666666666666
-0.195,-0.135,8944.444444444445
-0.195,-0.125,8947.222222222223
-0.18,-0.115,8950.0
-0.175,-0.115,8952.777777777777
-0.18,-0.125,8955.555555555555
-0.205,-0.13,8958.333333333334
-0.215,-0.105,8961.111111111111
-0.21,-0.095,8963.888888888889
-0.21,-0.095,8966.666666666666
-0.21,-0.095,8969.444444444445
-0.21,-0.095,8972.222222222223
-0.215,-0.095,8975.0
-0.225,-0.115,8977.777777777777
-0.21,-0.12,8980.555555555555
-0.18,-0.12,8983.333333333334
-0.17,-0.13,8986.111111111111
-0.185,-0.135,8988.888888888889
-0.24,-0.125,8991.666666666666
-0.255,-0.14,8994.444444444445
-0.255,-0.135,8997.222222222223
-0.27,-0.12,9000.0
-0.275,-0.15,9002.777777777777
-0.285,-0.15,9005.555555555555
-0.3,-0.155,9008.333333333334
-0.3,-0.16,9011.111111111111
-0.315,-0.145,9013.888888888889
-0.305,-0.14,9016.666666666666
-0.3,-0.145,9019.444444444445
-0.295,-0.145,9022.222222222223
-0.3,-0.16,9025.0
-0.315,-0.165,9027.777777777777
-0.31,-0.155,9030.555555555555
-0.31,-0.145,9033.333333333334
-0.3,-0.155,9036.111111111111
-0.3,-0.155,9038.888888888889
-0.305,-0.17,9041.666666666666
-0.315,-0.165,9044.444444444445
-0.325,-0.16,9047.222222222223
-0.32,-0.155,9050.0
-0.32,-0.16,9052.777777777777
-0.32,-0.17,9055.555555555555
-0.325,-0.17,9058.333333333334
-0.34,-0.165,9061.111111111111
-0.335,-0.165,9063.888888888889
-0.325,-0.145,9066.666666666666
-0.315,-0.17,9069.444444444445
-0.32,-0.19,9072.222222222223
-0.345,-0.225,9075.0
-0.37,-0.25,9077.777777777777
-0.395,-0.27,9080.555555555555
-0.425,-0.28,9083.333333333334
-0.445,-0.305,9086.111111111111
-0.465,-0.29,9088.888888888889
-0.51,-0.2,9091.666666666666
-0.53,-0.075,9094.444444444445
-0.485,0.04,9097.222222222223
-0.37,0.135,9100.0
-0.235,0.215,9102.777777777777
-0.09,0.32,9105.555555555555
0.105,0.435,9108.333333333334
0.375,0.54,9111.111111111111
0.655,0.58,9113.888888888889
0.82,0.465,9116.666666666666
0.865,0.145,9119.444444444445
0.735,-0.155,9122.222222222223
0.45,-0.285,9125.0
0.06,-0.25,9127.777777777777
-0.27,-0.2,9130.555555555555
-0.43,-0.18,9133.333333333334
-0.46,-0.19,9136.111111111111
-0.415,-0.19,9138.888888888889
-0.385,-0.185,9141.666666666666
-0.365,-0.195,9144.444444444445
-0.355,-0.185,9147.222222222223
-0.355,-0.175,9150.0
-0.345,-0.19,9152.777777777777
-0.35,-0.195,9155.555555555555
-0.35,-0.205,9158.333333333334
-0.36,-0.205,9161.111111111111
-0.345,-0.185,9163.888888888889
-0.34,-0.165,9166.666666666666
-0.34,-0.185,9169.444444444445
-0.335,-0.19,9172.222222222223
-0.335,-0.21,9175.0
-0.355,-0.21,9177.777777777777
-0.345,-0.2,9180.555555555555
-0.34,-0.19,9183.333333333334
-0.335,-0.185,9186.111111111111
-0.34,-0.195,9188.888888888889
-0.35,-0.21,9191.666666666666
-0.365,-0.21,9194.444444444445
-0.36,-0.19,9197.222222222223
-0.365,-0.18,9200.0
-0.35,-0.19,9202.777777777777
-0.345,-0.195,9205.555555555555
-0.365,-0.215,9208.333333333334
-0.36,-0.215,9211.111111111111
-0.35,-0.195,9213.888888888889
-0.355,-0.185,9216.666666666666
-0.35,-0.18,9219.444444444445
-0.355,-0.185,9222.222222222223
-0.35,-0.2,9225.0
-0.36,-0.205,9227.777777777777
-0.335,-0.19,9230.555555555555
-0.335,-0.18,9233.333333333334
-0.33,-0.185,9236.111111111111
-0.34,-0.195,9238.888888888889
-0.35,-0.195,9241.666666666666
-0.35,-0.195,9244.444444444445
-0.345,-0.19,9247.222222222223
-0.335,-0.185,9250.0
-0.345,-0.195,9252.777777777777
-0.355,-0.195,9255.555555555555
-0.355,-0.205,9258.333333333334
-0.37,-0.2,9261.111111111111
-0.355,-0.19,9263.888888888889
-0.35,-0.185,9266.666666666666
-0.345,-0.195,9269.444444444445
-0.365,-0.21,9272.222222222223
-0.365,-0.215,9275.0
-0.37,-0.215,9277.777777777777
-0.365,-0.205,9280.555555555555
-0.355,-0.19,9283.333333333334
-0.345,-0.19,9286.111111111111
-0.345,-0.205,9288.888888888889
-0.345,-0.22,9291.666666666666
-0.34,-0.215,9294.444444444445
-0.335,-0.205,9297.222222222223
-0.325,-0.21,9300.0
-0.335,-0.22,9302.777777777777
-0.345,-0.23,9305.555555555555
-0.35,-0.24,9308.333333333334
-0.35,-0.255,9311.111111111111
-0.355,-0.24,9313.888888888889
-0.355,-0.225,9316.666666666666
-0.36,-0.23,9319.444444444445
-0.35,-0.25,9322.222222222223
-0.36,-0.25,9325.0
-0.365,-0.26,9327.777777777777
-0.345,-0.26,9330.555555555555
-0.345,-0.255,9333.333333333334
-0.33,-0.26,9336.111111111111
-0.35,-0.285,9338.888888888889
-0.345,-0.295,9341.666666666666
-0.355,-0.3,9344.444444444445
-0.35,-0.285,9347.222222222223
-0.34,-0.28,9350.0
-0.335,-0.29,9352.777777777777
-0.35,-0.305,9355.555555555555
-0.365,-0.315,9358.333333333334
-0.38,-0.32,9361.111111111111
-0.385,-0.31,9363.888888888889
-0.355,-0.305,9366.666666666666
-0.36,-0.31,9369.444444444445
-0.355,-0.32,9372.222222222223
-0.37,-0.325,9375.0
-0.385,-0.335,9377.777777777777
-0.37,-0.32,9380.555555555555
-0.37,-0.3,9383.333333333334
-0.35,-0.3,9386.111111111111
-0.345,-0.3,9388.888888888889
-0.365,-0.285,9391.666666666666
-0.365,-0.28,9394.444444444445
-0.36,-0.26,9397.222222222223
-0.345,-0.24,9400.0
-0.33,-0.235,9402.777777777777
-0.33,-0.225,9405.555555555555
-0.33,-0.23,9408.333333333334
-0.335,-0.225,9411.111111111111
-0.315,-0.19,9413.888888888889
-0.31,-0.18,9416.666666666666
-0.285,-0.185,9419.444444444445
-0.29,-0.18,9422.222222222223
-0.29,-0.195,9425.0
-0.3,-0.18,9427.777777777777
-0.28,-0.17,9430.555555555555
-0.275,-0.16,9433.333333333334
-0.26,-0.17,9436.111111111111
-0.26,-0.17,9438.888888888889
-0.27,-0.18,9441.666666666666
-0.265,-0.18,9444.444444444445
-0.255,-0.17,9447.222222222223
-0.25,-0.155,9450.0
-0.245,-0.155,9452.777777777777
-0.245,-0.16,9455.555555555555
-0.255,-0.18,9458.333333333334
-0.265,-0.175,9461.111111111111
-0.26,-0.165,9463.888888888889
-0.255,-0.16,9466.666666666666
-0.24,-0.17,9469.444444444445
-0.25,-0.175,9472.222222222223
-0.255,-0.19,9475.0
-0.275,-0.19,9477.777777777777
-0.275,-0.175,9480.555555555555
-0.265,-0.165,9483.333333333334
-0.27,-0.175,9486.111111111111
-0.275,-0.18,9488.888888888889
-0.28,-0.185,9491.666666666666
-0.29,-0.185,9494.444444444445
-0.28,-0.185,9497.222222222223
-0.275,-0.165,9500.0
-0.27,-0.185,9502.777777777777
-0.27,-0.185,9505.555555555555
-0.28,-0.205,9508.333333333334
-0.29,-0.21,9511.111111111111
-0.28,-0.195,9513.888888888889
-0.285,-0.17,9516.666666666666
-0.275,-0.18,9519.444444444445
-0.29,-0.185,9522.222222222223
-0.28,-0.19,9525.0
-0.29,-0.2,9527.777777777777
-0.28,-0.2,9530.555555555555
-0.285,-0.195,9533.333333333334
-0.275,-0.2,9536.111111111111
-0.28,-0.205,9538.888888888889
-0.295,-0.21,9541.666666666666
-0.305,-0.215,9544.444444444445
-0.3,-0.205,9547.222222222223
-0.3,-0.205,9550.0
-0.305,-0.22,9552.777777777777
-0.315,-0.215,9555.555555555555
-0.32,-0.225,9558.333333333334
-0.31,-0.215,9561.111111111111
-0.31,-0.21,9563.888888888889
-0.3,-0.19,9566.666666666666
-0.31,-0.205,9569.444444444445
-0.31,-0.215,9572.222222222223
-0.32,-0.22,9575.0
-0.325,-0.225,9577.777777777777
-0.31,-0.21,9580.555555555555
-0.32,-0.2,9583.333333333334
-0.31,-0.205,9586.111111111111
-0.31,-0.215,9588.888888888889
-0.315,-0.22,9591.666666666666
-0.325,-0.225,9594.444444444445
-0.315,-0.215,9597.222222222223
-0.305,-0.205,9600.0
-0.315,-0.195,9602.777777777777
-0.31,-0.215,9605.555555555555
-0.32,-0.23,9608.333333333334
-0.325,-0.235,9611.111111111111
-0.325,-0.22,9613.888888888889
-0.32,-0.205,9616.666666666666
-0.305,-0.22,9619.444444444445
-0.305,-0.23,9622.222222222223
-0.3,-0.24,9625.0
-0.315,-0.235,9627.777777777777
-0.3,-0.215,9630.555555555555
-0.31,-0.21,9633.333333333334
-0.315,-0.205,9636.111111111111
-0.305,-0.205,9638.888888888889
-0.31,-0.21,9641.666666666666
-0.32,-0.215,9644.444444444445
-0.31,-0.22,9647.222222222223
-0.3,-0.205,9650.0
-0.295,-0.22,9652.777777777777
-0.3,-0.23,9655.555555555555
-0.315,-0.225,9658.333333333334
-0.325,-0.225,9661.111111111111
-0.325,-0.195,9663.888888888889
-0.305,-0.195,9666.666666666666
-0.31,-0.22,9669.444444444445
-0.29,-0.23,9672.222222222223
-0.315,-0.25,9675.0
-0.325,-0.24,9677.777777777777
-0.32,-0.225,9680.555555555555
-0.29,-0.21,9683.333333333334
-0.28,-0.21,9686.111111111111
-0.26,-0.23,9688.888888888889
-0.26,-0.235,9691.666666666666
-0.265,-0.24,9694.444444444445
-0.26,-0.21,9697.222222222223
-0.25,-0.195,9700.0
-0.23,-0.195,9702.777777777777
-0.22,-0.19,9705.555555555555
-0.22,-0.2,9708.333333333334
-0.235,-0.195,9711.111111111111
-0.22,-0.18,9713.888888888889
-0.205,-0.18,9716.666666666666
-0.205,-0.19,9719.444444444445
-0.21,-0.19,9722.222222222223
-0.21,-0.18,9725.0
-0.23,-0.185,9727.777777777777
-0.24,-0.165,9730.555555555555
-0.23,-0.165,9733.333333333334
-0.225,-0.175,9736.111111111111
-0.235,-0.185,9738.888888888889
-0.25,-0.2,9741.666666666666
-0.265,-0.195,9744.444444444445
-0.26,-0.185,9747.222222222223
-0.245,-0.18,9750.0
-0.215,-0.195,9752.777777777777
-0.215,-0.195,9755.555555555555
-0.245,-0.215,9758.333333333334
-0.28,-0.2,9761.111111111111
-0.275,-0.21,9763.888888888889
-0.275,-0.195,9766.666666666666
-0.295,-0.225,9769.444444444445
-0.31,-0.235,9772.222222222223
-0.325,-0.245,9775.0
-0.34,-0.245,9777.777777777777
-0.34,-0.22,9780.555555555555
-0.325,-0.23,9783.333333333334
-0.315,-0.22,9786.111111111111
-0.31,-0.225,9788.888888888889
-0.315,-0.24,9791.666666666666
-0.33,-0.225,9794.444444444445
-0.33,-0.21,9797.222222222223
-0.325,-0.22,9800.0
-0.325,-0.23,9802.777777777777
-0.335,-0.23,9805.555555555555
-0.345,-0.24,9808.333333333334
-0.35,-0.245,9811.111111111111
-0.35,-0.245,9813.888888888889
-0.35,-0.24,9816.666666666666
-0.345,-0.235,9819.444444444445
-0.35,-0.24,9822.222222222223
-0.365,-0.255,9825.0
-0.36,-0.255,9827.777777777777
-0.35,-0.25,9830.555555555555
-0.355,-0.23,9833.333333333334
-0.345,-0.24,9836.111111111111
-0.345,-0.25,9838.888888888889
-0.35,-0.265,9841.666666666666
-0.365,-0.29,9844.444444444445
-0.38,-0.31,9847.222222222223
-0.405,-0.305,9850.0
-0.425,-0.335,9852.777777777777
-0.44,-0.355,9855.555555555555
-0.47,-0.335,9858.333333333334
-0.52,-0.27,9861.111111111111
-0.54,-0.16,9863.888888888889
-0.49,-0.05,9866.666666666666
-0.39,0.01,9869.444444444445
-0.26,0.065,9872.222222222223
-0.115,0.135,9875.0
0.085,0.24,9877.777777777777
0.36,0.355,9880.555555555555
0.615,0.395,9883.333333333334
0.78,0.255,9886.111111111111
0.835,-0.015,9888.888888888889
0.72,-0.295,9891.666666666666
0.41,-0.405,9894.444444444445
0.03,-0.39,9897.222222222223
-0.255,-0.34,9900.0
-0.415,-0.305,9902.777777777777
-0.47,-0.31,9905.555555555555
-0.465,-0.295,9908.333333333334
-0.435,-0.295,9911.111111111111
-0.395,-0.28,9913.888888888889
-0.375,-0.27,9916.666666666666
-0.37,-0.265,9919.444444444445
-0.375,-0.285,9922.222222222223
-0.375,-0.29,9925.0
-0.39,-0.29,9927.777777777777
-0.4,-0.29,9930.555555555555
-0.38,-0.285,9933.333333333334
-0.385,-0.29,9936.111111111111
-0.385,-0.29,9938.888888888889
-0.385,-0.285,9941.666666666666
-0.385,-0.285,9944.444444444445
-0.37,-0.285,9947.222222222223
-0.37,-0.265,9950.0
-0.36,-0.265,9952.777777777777
-0.38,-0.275,9955.555555555555
-0.38,-0.285,9958.333333333334
-0.385,-0.28,9961.111111111111
-0.37,-0.27,9963.888888888889
-0.37,-0.27,9966.666666666666
-0.365,-0.275,9969.444444444445
-0.375,-0.27,9972.222222222223
-0.385,-0.285,9975.0
-0.39,-0.3,9977.777777777777
-0.39,-0.28,9980.555555555555
-0.385,-0.275,9983.333333333334
-0.385,-0.285,9986.111111111111
-0.395,-0.285,9988.888888888889
-0.39,-0.295,9991.666666666666
-0.4,-0.29,9994.444444444445
-0.405,-0.285,9997.222222222223
-0.39,-0.275,10000.0
-0.395,-0.265,10002.777777777777
-0.39,-0.285,10005.555555555555
-0.405,-0.3,10008.333333333334
-0.405,-0.305,10011.111111111111
-0.4,-0.285,10013.888888888889
-0.375,-0.27,10016.666666666666
-0.38,-0.28,10019.444444444445
-0.39,-0.275,10022.222222222223
-0.395,-0.29,10025.0
-0.395,-0.28,10027.777777777777
-0.39,-0.29,10030.555555555555
-0.39,-0.28,10033.333333333334
-0.385,-0.28,10036.111111111111
-0.405,-0.285,10038.888888888889
-0.4,-0.285,10041.666666666666
-0.405,-0.285,10044.444444444445
-0.395,-0.295,10047.222222222223
-0.39,-0.275,10050.0
-0.395,-0.28,10052.777777777777
-0.39,-0.29,10055.555555555555
-0.4,-0.295,10058.333333333334
-0.405,-0.295,10061.111111111111
-0.405,-0.285,10063.888888888889
-0.39,-0.275,10066.666666666666
-0.39,-0.295,10069.444444444445
-0.395,-0.305,10072.222222222223
-0.4,-0.305,10075.0
-0.4,-0.32,10077.777777777777
-0.395,-0.305,10080.555555555555
-0.38,-0.295,10083.333333333334
-0.37,-0.3,10086.111111111111
-0.38,-0.3,10088.888888888889
-0.385,-0.32,10091.666666666666
-0.395,-0.32,10094.444444444445
-0.39,-0.31,10097.222222222223
-0.38,-0.305,10100.0
-0.38,-0.315,10102.777777777777
-0.385,-0.33,10105.555555555555
-0.39,-0.345,10108.333333333334
-0.39,-0.355,10111.111111111111
-0.4,-0.34,10113.888888888889
-0.4,-0.335,10116.666666666666
-0.405,-0.35,10119.444444444445
-0.415,-0.37,10122.222222222223
-0.42,-0.38,10125.0
-0.43,-0.38,10127.777777777777
-0.43,-0.375,10130.555555555555
-0.425,-0.385,10133.333333333334
-0.42,-0.405,10136.111111111111
-0.43,-0.405,10138.888888888889
-0.445,-0.42,10141.666666666666
-0.465,-0.43,10144.444444444445
-0.455,-0.415,10147.222222222223
-0.44,-0.41,10150.0
-0.425,-0.415,10152.777777777777
-0.435,-0.425,10155.555555555555
-0.45,-0.425,10158.333333333334
-0.44,-0.425,10161.111111111111
-0.445,-0.405,10163.888888888889
-0.425,-0.385,10166.666666666666
-0.425,-0.39,10169.444444444445
-0.425,-0.385,10172.222222222223
-0.43,-0.385,10175.0
-0.43,-0.38,10177.777777777777
-0.415,-0.35,10180.555555555555
-0.415,-0.32,10183.333333333334
-0.385,-0.315,10186.111111111111
-0.375,-0.315,10188.888888888889
-0.385,-0.305,10191.666666666666
-0.37,-0.305,10194.444444444445
-0.36,-0.27,10197.222222222223
-0.35,-0.25,10200.0
-0.335,-0.235,10202.777777777777
-0.335,-0.235,10205.555555555555
-0.325,-0.245,10208.333333333334
-0.32,-0.24,10211.111111111111
-0.325,-0.235,10213.888888888889
-0.305,-0.215,10216.666666666666
-0.295,-0.22,10219.444444444445
-0.3,-0.22,10222.222222222223
-0.29,-0.225,10225.0
-0.295,-0.22,10227.777777777777
-0.29,-0.215,10230.555555555555
-0.29,-0.205,10233.333333333334
-0.285,-0.215,10236.111111111111
-0.285,-0.215,10238.888888888889
-0.285,-0.225,10241.666666666666
-0.29,-0.225,10244.444444444445
-0.29,-0.215,10247.222222222223
-0.285,-0.19,10250.0
-0.27,-0.195,10252.777777777777
-0.27,-0.21,10255.555555555555
-0.28,-0.205,10258.333333333334
-0.29,-0.205,10261.111111111111
-0.285,-0.2,10263.888888888889
-0.275,-0.205,10266.666666666666
-0.275,-0.205,10269.444444444445
-0.275,-0.205,10272.222222222223
-0.29,-0.215,10275.0
-0.305,-0.21,10277.777777777777
-0.305,-0.21,10280.555555555555
-0.3,-0.2,10283.333333333334
-0.28,-0.2,10286.111111111111
-0.29,-0.205,10288.888888888889
-0.305,-0.22,10291.666666666666
-0.315,-0.21,10294.444444444445
-0.31,-0.2,10297.222222222223
-0.295,-0.2,10300.0
-0.29,-0.195,10302.777777777777
-0.3,-0.215,10305.555555555555
-0.305,-0.215,10308.333333333334
-0.305,-0.22,10311.111111111111
-0.31,-0.21,10313.888888888889
-0.3,-0.21,10316.666666666666
-0.295,-0.21,10319.444444444445
-0.305,-0.215,10322.222222222223
-0.305,-0.225,10325.0
-0.315,-0.23,10327.777777777777
-0.31,-0.215,10330.555555555555
-0.31,-0.215,10333.333333333334
-0.295,-0.215,10336.111111111111
-0.3,-0.22,10338.888888888889
-0.305,-0.23,10341.666666666666
-0.31,-0.22,10344.444444444445
-0.305,-0.205,10347.222222222223
-0.305,-0.2,10350.0
-0.295,-0.22,10352.777777777777
-0.3,-0.225,10355.555555555555
-0.315,-0.24,10358.333333333334
-0.325,-0.23,10361.111111111111
-0.32,-0.23,10363.888888888889
-0.32,-0.215,10366.666666666666
-0.315,-0.225,10369.444444444445
-0.31,-0.22,10372.222222222223
-0.325,-0.235,10375.0
-0.335,-0.225,10377.777777777777
-0.33,-0.225,10380.555555555555
-0.32,-0.21,10383.333333333334
-0.32,-0.225,10386.111111111111
-0.31,-0.225,10388.888888888889
-0.33,-0.225,10391.666666666666
-0.33,-0.23,10394.444444444445
-0.325,-0.22,10397.222222222223
-0.31,-0.21,10400.0
-0.305,-0.22,10402.777777777777
-0.305,-0.215,10405.555555555555
-0.32,-0.23,10408.333333333334
-0.33,-0.235,10411.111111111111
-0.325,-0.215,10413.888888888889
-0.3,-0.21,10416.666666666666
-0.31,-0.215,10419.444444444445
-0.305,-0.225,10422.222222222223
-0.315,-0.225,10425.0
-0.33,-0.235,10427.777777777777
-0.33,-0.23,10430.555555555555
-0.33,-0.215,10433.333333333334
-0.32,-0.225,10436.111111111111
-0.325,-0.22,10438.888888888889
-0.325,-0.23,10441.666666666666
-0.335,-0.225,10444.444444444445
-0.325,-0.22,10447.222222222223
-0.315,-0.21,10450.0
-0.31,-0.215,10452.777777777777
-0.315,-0.22,10455.555555555555
-0.32,-0.22,10458.333333333334
-0.325,-0.225,10461.111111111111
-0.315,-0.21,10463.888888888889
-0.31,-0.205,10466.666666666666
-0.305,-0.215,10469.444444444445
-0.31,-0.225,10472.222222222223
-0.315,-0.23,10475.0
-0.32,-0.24,10477.777777777777
-0.315,-0.225,10480.555555555555
-0.31,-0.205,10483.333333333334
-0.295,-0.215,10486.111111111111
-0.295,-0.215,10488.888888888889
-0.305,-0.22,10491.666666666666
-0.31,-0.23,10494.444444444445
-0.3,-0.225,10497.222222222223
-0.28,-0.215,10500.0
-0.275,-0.225,10502.777777777777
-0.265,-0.22,10505.555555555555
-0.275,-0.22,10508.333333333334
-0.275,-0.225,10511.111111111111
-0.26,-0.195,10513.888888888889
-0.24,-0.195,10516.666666666666
-0.24,-0.205,10519.444444444445
-0.235,-0.2,10522.222222222223
-0.24,-0.2,10525.0
-0.235,-0.195,10527.777777777777
-0.225,-0.19,10530.555555555555
-0.215,-0.17,10533.333333333334
-0.205,-0.17,10536.111111111111
-0.205,-0.18,10538.888888888889
-0.21,-0.18,10541.666666666666
-0.215,-0.185,10544.444444444445
-0.22,-0.17,10547.222222222223
-0.22,-0.165,10550.0
-0.215,-0.18,10552.777777777777
-0.22,-0.175,10555.555555555555
-0.22,-0.185,10558.333333333334
-0.23,-0.175,10561.111111111111
-0.23,-0.17,10563.888888888889
-0.24,-0.15,10566.666666666666
-0.21,-0.15,10569.444444444445
-0.22,-0.155,10572.222222222223
-0.23,-0.18,10575.0
-0.255,-0.18,10577.777777777777
-0.235,-0.17,10580.555555555555
-0.21,-0.175,10583.333333333334
-0.19,-0.18,10586.111111111111
-0.205,-0.19,10588.888888888889
-0.225,-0.195,10591.666666666666
-0.26,-0.2,10594.444444444445
-0.275,-0.19,10597.222222222223
-0.28,-0.185,10600.0
-0.285,-0.2,10602.777777777777
-0.305,-0.195,10605.555555555555
-0.32,-0.215,10608.333333333334
-0.315,-0.21,10611.111111111111
-0.335,-0.2,10613.888888888889
-0.325,-0.195,10616.666666666666
-0.335,-0.205,10619.444444444445
-0.32,-0.22,10622.222222222223
-0.325,-0.215,10625.0
-0.32,-0.225,10627.777777777777
-0.325,-0.225,10630.555555555555
-0.325,-0.21,10633.333333333334
-0.31,-0.205,10636.111111111111
-0.305,-0.21,10638.888888888889
-0.32,-0.225,10641.666666666666
-0.32,-0.23,10644.444444444445
-0.33,-0.215,10647.222222222223
-0.32,-0.2,10650.0
-0.32,-0.215,10652.777777777777
-0.33,-0.22,10655.555555555555
-0.33,-0.225,10658.333333333334
-0.36,-0.21,10661.111111111111
-0.355,-0.21,10663.888888888889
-0.33,-0.2,10666.666666666666
-0.325,-0.21,10669.444444444445
-0.325,-0.215,10672.222222222223
-0.335,-0.225,10675.0
-0.35,-0.235,10677.777777777777
-0.34,-0.24,10680.555555555555
-0.345,-0.255,10683.333333333334
-0.355,-0.29,10686.111111111111
-0.385,-0.31,10688.888888888889
-0.425,-0.335,10691.666666666666
-0.45,-0.36,10694.444444444445
-0.47,-0.35,10697.222222222223
-0.485,-0.285,10700.0
-0.51,-0.175,10702.777777777777
-0.515,-0.05,10705.555555555555
-0.455,0.075,10708.333333333334
-0.325,0.19,10711.111111111111
-0.165,0.315,10713.888888888889
0.01,0.43,10716.666666666666
0.25,0.545,10719.444444444445
0.515,0.655,10722.222222222223
0.74,0.655,10725.0
0.885,0.505,10727.777777777777
0.935,0.21,10730.555555555555
0.835,-0.09,10733.333333333334
0.525,-0.275,10736.111111111111
0.12,-0.29,10738.888888888889
-0.23,-0.265,10741.666666666666
-0.425,-0.25,10744.444444444445
-0.455,-0.255,10747.222222222223
-0.42,-0.23,10750.0
-0.38,-0.23,10752.777777777777
-0.36,-0.25,10755.555555555555
-0.365,-0.255,10758.333333333334
-0.375,-0.255,10761.111111111111
-0.38,-0.25,10763.888888888889
-0.355,-0.235,10766.666666666666
-0.355,-0.25,10769.444444444445
-0.37,-0.25,10772.222222222223
-0.375,-0.265,10775.0
-0.385,-0.255,10777.777777777777
-0.38,-0.25,10780.555555555555
-0.365,-0.24,10783.333333333334
-0.37,-0.245,10786.111111111111
-0.37,-0.255,10788.888888888889
-0.365,-0.255,10791.666666666666
-0.38,-0.265,10794.444444444445
-0.37,-0.24,10797.222222222223
-0.375,-0.24,10800.0
-0.365,-0.255,10802.777777777777
-0.37,-0.255,10805.555555555555
-0.38,-0.265,10808.333333333334
-0.375,-0.26,10811.111111111111
-0.365,-0.25,10813.888888888889
-0.36,-0.255,10816.666666666666
-0.36,-0.255,10819.444444444445
-0.355,-0.255,10822.222222222223
-0.355,-0.255,10825.0
-0.37,-0.25,10827.777777777777
-0.365,-0.245,10830.555555555555
-0.355,-0.225,10833.333333333334
-0.35,-0.23,10836.111111111111
-0.35,-0.245,10838.888888888889
-0.35,-0.255,10841.666666666666
-0.36,-0.26,10844.444444444445
-0.36,-0.245,10847.222222222223
-0.36,-0.245,10850.0
-0.35,-0.245,10852.777777777777
-0.355,-0.24,10855.555555555555
-0.365,-0.25,10858.333333333334
-0.37,-0.245,10861.111111111111
-0.36,-0.245,10863.888888888889
-0.35,-0.24,10866.666666666666
-0.355,-0.24,10869.444444444445
-0.35,-0.25,10872.222222222223
-0.355,-0.265,10875.0
-0.37,-0.255,10877.777777777777
-0.375,-0.24,10880.555555555555
-0.36,-0.24,10883.333333333334
-0.35,-0.24,10886.111111111111
-0.345,-0.255,10888.888888888889
-0.35,-0.26,10891.666666666666
-0.37,-0.26,10894.444444444445
-0.37,-0.255,10897.222222222223
-0.355,-0.255,10900.0
-0.35,-0.25,10902.777777777777
-0.345,-0.26,10905.555555555555
-0.36,-0.275,10908.333333333334
-0.37,-0.28,10911.111111111111
-0.365,-0.28,10913.888888888889
-0.36,-0.27,10916.666666666666
-0.35,-0.265,10919.444444444445
-0.355,-0.285,10922.222222222223
-0.365,-0.29,10925.0
-0.365,-0.28,10927.777777777777
-0.37,-0.28,10930.555555555555
-0.365,-0.275,10933.333333333334
-0.35,-0.295,10936.111111111111
-0.35,-0.305,10938.888888888889
-0.36,-0.31,10941.666666666666
-0.36,-0.31,10944.444444444445
-0.355,-0.32,10947.222222222223
-0.345,-0.305,10950.0
-0.35,-0.32,10952.777777777777
-0.345,-0.345,10955.555555555555
-0.355,-0.35,10958.333333333334
-0.37,-0.355,10961.111111111111
-0.365,-0.355,10963.888888888889
-0.355,-0.35,10966.666666666666
-0.36,-0.35,10969.444444444445
-0.365,-0.36,10972.222222222223
-0.365,-0.38,10975.0
-0.38,-0.385,10977.777777777777
-0.385,-0.38,10980.555555555555
-0.375,-0.38,10983.333333333334
-0.37,-0.375,10986.111111111111
-0.375,-0.385,10988.888888888889
-0.385,-0.395,10991.666666666666
-0.395,-0.38,10994.444444444445
-0.375,-0.39,10997.222222222223
-0.385,-0.38,11000.0
-0.38,-0.385,11002.777777777777
-0.37,-0.38,11005.555555555555
-0.385,-0.375,11008.333333333334
-0.385,-0.37,11011.111111111111
-0.38,-0.335,11013.888888888889
-0.37,-0.315,11016.666666666666
-0.36,-0.31,11019.444444444445
-0.35,-0.3,11022.222222222223
-0.335,-0.31,11025.0
-0.33,-0.285,11027.777777777777
-0.315,-0.26,11030.555555555555
-0.295,-0.225,11033.333333333334
-0.29,-0.225,11036.111111111111
-0.29,-0.22,11038.888888888889
-0.285,-0.23,11041.666666666666
-0.29,-0.215,11044.444444444445
-0.28,-0.205,11047.222222222223
-0.28,-0.195,11050.0
-0.26,-0.185,11052.777777777777
-0.255,-0.195,11055.555555555555
-0.27,-0.19,11058.333333333334
-0.275,-0.18,11061.111111111111
-0.26,-0.17,11063.888888888889
-0.25,-0.15,11066.666666666666
-0.245,-0.16,11069.444444444445
-0.25,-0.175,11072.222222222223
-0.26,-0.185,11075.0
-0.265,-0.175,11077.777777777777
-0.245,-0.17,11080.555555555555
-0.235,-0.16,11083.333333333334
-0.245,-0.165,11086.111111111111
-0.24,-0.165,11088.888888888889
-0.25,-0.18,11091.666666666666
-0.265,-0.175,11094.444444444445
-0.25,-0.17,11097.222222222223
-0.25,-0.165,11100.0
-0.25,-0.17,11102.777777777777
-0.25,-0.18,11105.555555555555
-0.255,-0.185,11108.333333333334
-0.265,-0.19,11111.111111111111
-0.26,-0.17,11113.888888888889
-0.24,-0.155,11116.666666666666
-0.25,-0.16,11119.444444444445
-0.245,-0.165,11122.222222222223
-0.25,-0.175,11125.0
