MLII,V1,time_ms
-0.345,-0.16,0.0
-0.345,-0.16,2.7777777777777777
-0.345,-0.16,5.555555555555555
-0.345,-0.16,8.333333333333334
-0.345,-0.16,11.11111111111111
-0.345,-0.16,13.88888888888889
-0.345,-0.16,16.666666666666668
-0.345,-0.16,19.444444444444443
-0.33,-0.15,22.22222222222222
-0.32,-0.145,25.0
-0.32,-0.17,27.77777777777778
-0.325,-0.18,30.555555555555557
-0.33,-0.17,33.333333333333336
-0.325,-0.15,36.111111111111114
-0.315,-0.16,38.888888888888886
-0.305,-0.17,41.666666666666664
-0.3,-0.185,44.44444444444444
-0.315,-0.195,47.22222222222222
-0.32,-0.185,50.0
-0.315,-0.185,52.77777777777778
-0.3,-0.175,55.55555555555556
-0.29,-0.2,58.333333333333336
-0.29,-0.19,61.111111111111114
-0.295,-0.205,63.888888888888886
-0.29,-0.195,66.66666666666667
-0.295,-0.175,69.44444444444444
-0.285,-0.175,72.22222222222223
-0.255,-0.19,75.0
-0.23,-0.2,77.77777777777777
-0.2,-0.215,80.55555555555556
-0.195,-0.21,83.33333333333333
-0.16,-0.21,86.11111111111111
-0.16,-0.19,88.88888888888889
-0.165,-0.22,91.66666666666667
-0.2,-0.225,94.44444444444444
-0.2,-0.245,97.22222222222223
-0.21,-0.235,100.0
-0.21,-0.215,102.77777777777777
-0.205,-0.225,105.55555555555556
-0.21,-0.235,108.33333333333333
-0.21,-0.24,111.11111111111111
-0.22,-0.245,113.88888888888889
-0.25,-0.225,116.66666666666667
-0.25,-0.215,119.44444444444444
-0.25,-0.205,122.22222222222223
-0.26,-0.205,125.0
-0.265,-0.205,127.77777777777777
-0.275,-0.195,130.55555555555554
-0.305,-0.19,133.33333333333334
-0.32,-0.175,136.11111111111111
-0.33,-0.18,138.88888888888889
-0.32,-0.18,141.66666666666666
-0.32,-0.2,144.44444444444446
-0.315,-0.2,147.22222222222223
-0.34,-0.185,150.0
-0.35,-0.18,152.77777777777777
-0.335,-0.175,155.55555555555554
-0.32,-0.2,158.33333333333334
-0.31,-0.2,161.11111111111111
-0.335,-0.205,163.88888888888889
-0.345,-0.205,166.66666666666666
-0.35,-0.2,169.44444444444446
-0.35,-0.195,172.22222222222223
-0.355,-0.215,175.0
-0.35,-0.215,177.77777777777777
-0.35,-0.22,180.55555555555554
-0.37,-0.215,183.33333333333334
-0.36,-0.22,186.11111111111111
-0.345,-0.22,188.88888888888889
-0.325,-0.22,191.66666666666666
-0.325,-0.22,194.44444444444446
-0.335,-0.23,197.22222222222223
-0.37,-0.245,200.0
-0.4,-0.235,202.77777777777777
-0.4,-0.23,205.55555555555554
-0.395,-0.23,208.33333333333334
-0.35,-0.24,211.11111111111111
-0.21,-0.24,213.88888888888889
-0.01,-0.24,216.66666666666666
0.245,-0.245,219.44444444444446
0.53,-0.25,222.22222222222223
0.85,-0.285,225.0
1.085,-0.315,227.77777777777777
1.065,-0.375,230.55555555555554
0.815,-0.4,233.33333333333334
0.48,-0.41,236.11111111111111
0.21,-0.365,238.88888888888889
-0.01,-0.295,241.66666666666666
-0.145,-0.23,244.44444444444446
-0.185,-0.2,247.22222222222223
-0.24,-0.2,250.0
-0.285,-0.215,252.77777777777777
-0.285,-0.205,255.55555555555554
-0.285,-0.195,258.3333333333333
-0.29,-0.18,261.1111111111111
-0.3,-0.19,263.8888888888889
-0.335,-0.2,266.6666666666667
-0.36,-0.2,269.44444444444446
-0.36,-0.185,272.22222222222223
-0.385,-0.18,275.0
-0.395,-0.195,277.77777777777777
-0.415,-0.21,280.55555555555554
-0.43,-0.23,283.3333333333333
-0.435,-0.225,286.1111111111111
-0.405,-0.2,288.8888888888889
-0.41,-0.205,291.6666666666667
-0.405,-0.21,294.44444444444446
-0.415,-0.225,297.22222222222223
-0.44,-0.225,300.0
-0.43,-0.21,302.77777777777777
-0.415,-0.19,305.55555555555554
-0.42,-0.19,308.3333333333333
-0.415,-0.225,311.1111111111111
-0.42,-0.23,313.8888888888889
-0.43,-0.245,316.6666666666667
-0.44,-0.235,319.44444444444446
-0.425,-0.225,322.22222222222223
-0.415,-0.225,325.0
-0.425,-0.24,327.77777777777777
-0.43,-0.25,330.55555555555554
-0.425,-0.25,333.3333333333333
-0.415,-0.23,336.1111111111111
-0.42,-0.22,338.8888888888889
-0.415,-0.23,341.6666666666667
-0.42,-0.235,344.44444444444446
-0.42,-0.24,347.22222222222223
-0.435,-0.225,350.0
-0.415,-0.21,352.77777777777777
-0.415,-0.2,355.55555555555554
-0.4,-0.185,358.3333333333333
-0.395,-0.19,361.1111111111111
-0.41,-0.21,363.8888888888889
-0.425,-0.195,366.6666666666667
-0.415,-0.18,369.44444444444446
-0.405,-0.175,372.22222222222223
-0.395,-0.18,375.0
-0.4,-0.195,377.77777777777777
-0.41,-0.2,380.55555555555554
-0.42,-0.185,383.3333333333333
-0.41,-0.195,386.1111111111111
-0.395,-0.195,388.8888888888889
-0.38,-0.21,391.6666666666667
-0.39,-0.215,394.44444444444446
-0.4,-0.22,397.22222222222223
-0.415,-0.21,400.0
-0.42,-0.205,402.77777777777777
-0.385,-0.21,405.55555555555554
-0.375,-0.22,408.3333333333333
-0.38,-0.205,411.1111111111111
-0.375,-0.215,413.8888888888889
-0.365,-0.21,416.6666666666667
-0.35,-0.21,419.44444444444446
-0.35,-0.215,422.22222222222223
-0.35,-0.22,425.0
-0.34,-0.235,427.77777777777777
-0.35,-0.245,430.55555555555554
-0.35,-0.25,433.3333333333333
-0.325,-0.255,436.1111111111111
-0.32,-0.24,438.8888888888889
-0.31,-0.25,441.6666666666667
-0.31,-0.245,444.44444444444446
-0.31,-0.24,447.22222222222223
-0.305,-0.24,450.0
-0.285,-0.25,452.77777777777777
-0.27,-0.24,455.55555555555554
-0.265,-0.245,458.3333333333333
-0.265,-0.23,461.1111111111111
-0.255,-0.235,463.8888888888889
-0.24,-0.23,466.6666666666667
-0.22,-0.225,469.44444444444446
-0.21,-0.21,472.22222222222223
-0.205,-0.205,475.0
-0.19,-0.205,477.77777777777777
-0.175,-0.2,480.55555555555554
-0.175,-0.205,483.3333333333333
-0.165,-0.21,486.1111111111111
-0.155,-0.2,488.8888888888889
-0.145,-0.2,491.6666666666667
-0.13,-0.2,494.44444444444446
-0.125,-0.215,497.22222222222223
-0.135,-0.225,500.0
-0.125,-0.225,502.77777777777777
-0.11,-0.215,505.55555555555554
-0.09,-0.215,508.3333333333333
-0.105,-0.225,511.1111111111111
-0.12,-0.24,513.8888888888889
-0.12,-0.26,516.6666666666666
-0.12,-0.255,519.4444444444445
-0.11,-0.235,522.2222222222222
-0.11,-0.23,525.0
-0.13,-0.23,527.7777777777778
-0.16,-0.245,530.5555555555555
-0.165,-0.255,533.3333333333334
-0.17,-0.24,536.1111111111111
-0.17,-0.225,538.8888888888889
-0.18,-0.215,541.6666666666666
-0.205,-0.235,544.4444444444445
-0.225,-0.26,547.2222222222222
-0.235,-0.265,550.0
-0.245,-0.25,552.7777777777778
-0.25,-0.24,555.5555555555555
-0.255,-0.235,558.3333333333334
-0.265,-0.235,561.1111111111111
-0.275,-0.25,563.8888888888889
-0.285,-0.26,566.6666666666666
-0.295,-0.245,569.4444444444445
-0.29,-0.215,572.2222222222222
-0.305,-0.215,575.0
-0.315,-0.225,577.7777777777778
-0.33,-0.25,580.5555555555555
-0.34,-0.225,583.3333333333334
-0.325,-0.22,586.1111111111111
-0.325,-0.19,588.8888888888889
-0.315,-0.185,591.6666666666666
-0.31,-0.185,594.4444444444445
-0.335,-0.2,597.2222222222222
-0.355,-0.205,600.0
-0.355,-0.19,602.7777777777778
-0.365,-0.175,605.5555555555555
-0.345,-0.175,608.3333333333334
-0.345,-0.19,611.1111111111111
-0.33,-0.205,613.8888888888889
-0.35,-0.205,616.6666666666666
-0.355,-0.185,619.4444444444445
-0.34,-0.18,622.2222222222222
-0.345,-0.195,625.0
-0.345,-0.21,627.7777777777778
-0.35,-0.225,630.5555555555555
-0.35,-0.225,633.3333333333334
-0.35,-0.2,636.1111111111111
-0.345,-0.19,638.8888888888889
-0.33,-0.205,641.6666666666666
-0.34,-0.215,644.4444444444445
-0.35,-0.22,647.2222222222222
-0.36,-0.21,650.0
-0.35,-0.19,652.7777777777778
-0.34,-0.19,655.5555555555555
-0.33,-0.215,658.3333333333334
-0.32,-0.235,661.1111111111111
-0.325,-0.235,663.8888888888889
-0.32,-0.235,666.6666666666666
-0.325,-0.205,669.4444444444445
-0.32,-0.205,672.2222222222222
-0.315,-0.225,675.0
-0.325,-0.23,677.7777777777778
-0.345,-0.24,680.5555555555555
-0.35,-0.235,683.3333333333334
-0.33,-0.215,686.1111111111111
-0.32,-0.2,688.8888888888889
-0.305,-0.22,691.6666666666666
-0.305,-0.21,694.4444444444445
-0.3,-0.22,697.2222222222222
-0.32,-0.21,700.0
-0.325,-0.195,702.7777777777778
-0.325,-0.185,705.5555555555555
-0.305,-0.185,708.3333333333334
-0.29,-0.185,711.1111111111111
-0.305,-0.2,713.8888888888889
-0.32,-0.19,716.6666666666666
-0.325,-0.175,719.4444444444445
-0.325,-0.17,722.2222222222222
-0.31,-0.185,725.0
-0.31,-0.18,727.7777777777778
-0.31,-0.185,730.5555555555555
-0.325,-0.19,733.3333333333334
-0.31,-0.175,736.1111111111111
-0.31,-0.175,738.8888888888889
-0.315,-0.185,741.6666666666666
-0.31,-0.195,744.4444444444445
-0.32,-0.21,747.2222222222222
-0.33,-0.2,750.0
-0.32,-0.2,752.7777777777778
-0.315,-0.195,755.5555555555555
-0.315,-0.215,758.3333333333334
-0.315,-0.215,761.1111111111111
-0.34,-0.21,763.8888888888889
-0.34,-0.21,766.6666666666666
-0.325,-0.2,769.4444444444445
-0.31,-0.2,772.2222222222222
-0.305,-0.2,775.0
-0.32,-0.205,777.7777777777778
-0.32,-0.22,780.5555555555555
-0.33,-0.225,783.3333333333334
-0.33,-0.24,786.1111111111111
-0.335,-0.24,788.8888888888889
-0.32,-0.235,791.6666666666666
-0.32,-0.24,794.4444444444445
-0.33,-0.245,797.2222222222222
-0.34,-0.245,800.0
-0.345,-0.235,802.7777777777778
-0.335,-0.225,805.5555555555555
-0.32,-0.235,808.3333333333334
-0.33,-0.235,811.1111111111111
-0.325,-0.225,813.8888888888889
-0.32,-0.22,816.6666666666666
-0.325,-0.21,819.4444444444445
-0.325,-0.205,822.2222222222222
-0.315,-0.21,825.0
-0.315,-0.185,827.7777777777778
-0.32,-0.195,830.5555555555555
-0.335,-0.195,833.3333333333334
-0.335,-0.19,836.1111111111111
-0.325,-0.18,838.8888888888889
-0.32,-0.18,841.6666666666666
-0.33,-0.165,844.4444444444445
-0.34,-0.18,847.2222222222222
-0.35,-0.19,850.0
-0.33,-0.19,852.7777777777778
-0.335,-0.185,855.5555555555555
-0.325,-0.2,858.3333333333334
-0.31,-0.205,861.1111111111111
-0.34,-0.205,863.8888888888889
-0.355,-0.22,866.6666666666666
-0.335,-0.21,869.4444444444445
-0.32,-0.215,872.2222222222222
-0.305,-0.205,875.0
-0.31,-0.21,877.7777777777778
-0.315,-0.2,880.5555555555555
-0.32,-0.21,883.3333333333334
-0.35,-0.225,886.1111111111111
-0.315,-0.2,888.8888888888889
-0.32,-0.195,891.6666666666666
-0.32,-0.205,894.4444444444445
-0.32,-0.215,897.2222222222222
-0.32,-0.22,900.0
-0.32,-0.25,902.7777777777778
-0.31,-0.22,905.5555555555555
-0.31,-0.225,908.3333333333334
-0.315,-0.235,911.1111111111111
-0.315,-0.225,913.8888888888889
-0.31,-0.23,916.6666666666666
-0.295,-0.225,919.4444444444445
-0.28,-0.225,922.2222222222222
-0.28,-0.235,925.0
-0.29,-0.23,927.7777777777778
-0.295,-0.225,930.5555555555555
-0.295,-0.235,933.3333333333334
-0.285,-0.22,936.1111111111111
-0.275,-0.215,938.8888888888889
-0.24,-0.21,941.6666666666666
-0.22,-0.205,944.4444444444445
-0.215,-0.205,947.2222222222222
-0.215,-0.185,950.0
-0.175,-0.18,952.7777777777778
-0.145,-0.18,955.5555555555555
-0.14,-0.185,958.3333333333334
-0.15,-0.175,961.1111111111111
-0.185,-0.185,963.8888888888889
-0.21,-0.19,966.6666666666666
-0.215,-0.185,969.4444444444445
-0.215,-0.19,972.2222222222222
-0.205,-0.19,975.0
-0.21,-0.2,977.7777777777778
-0.215,-0.2,980.5555555555555
-0.235,-0.215,983.3333333333334
-0.255,-0.21,986.1111111111111
-0.25,-0.205,988.8888888888889
-0.25,-0.215,991.6666666666666
-0.24,-0.21,994.4444444444445
-0.255,-0.225,997.2222222222222
-0.27,-0.215,1000.0
-0.275,-0.22,1002.7777777777778
-0.3,-0.22,1005.5555555555555
-0.3,-0.22,1008.3333333333334
-0.325,-0.22,1011.1111111111111
-0.32,-0.225,1013.8888888888889
-0.325,-0.225,1016.6666666666666
-0.315,-0.23,1019.4444444444445
-0.305,-0.24,1022.2222222222222
-0.305,-0.245,1025.0
-0.315,-0.23,1027.7777777777778
-0.32,-0.24,1030.5555555555557
-0.355,-0.26,1033.3333333333333
-0.35,-0.25,1036.111111111111
-0.35,-0.25,1038.888888888889
-0.335,-0.255,1041.6666666666667
-0.32,-0.24,1044.4444444444443
-0.325,-0.255,1047.2222222222222
-0.34,-0.245,1050.0
-0.35,-0.245,1052.7777777777778
-0.325,-0.225,1055.5555555555557
-0.305,-0.22,1058.3333333333333
-0.31,-0.195,1061.111111111111
-0.325,-0.22,1063.888888888889
-0.36,-0.215,1066.6666666666667
-0.355,-0.22,1069.4444444444443
-0.36,-0.19,1072.2222222222222
-0.355,-0.175,1075.0
-0.36,-0.165,1077.7777777777778
-0.37,-0.19,1080.5555555555557
-0.27,-0.185,1083.3333333333333
-0.085,-0.185,1086.111111111111
0.135,-0.185,1088.888888888889
0.385,-0.185,1091.6666666666667
0.69,-0.215,1094.4444444444443
0.945,-0.265,1097.2222222222222
1.02,-0.32,1100.0
0.89,-0.37,1102.7777777777778
0.605,-0.39,1105.5555555555557
0.345,-0.355,1108.3333333333333
0.115,-0.31,1111.111111111111
-0.055,-0.265,1113.888888888889
-0.14,-0.23,1116.6666666666667
-0.185,-0.21,1119.4444444444443
-0.235,-0.195,1122.2222222222222
-0.24,-0.195,1125.0
-0.25,-0.2,1127.7777777777778
-0.27,-0.215,1130.5555555555557
-0.3,-0.225,1133.3333333333333
-0.315,-0.225,1136.111111111111
-0.34,-0.21,1138.888888888889
-0.37,-0.215,1141.6666666666667
-0.38,-0.225,1144.4444444444443
-0.405,-0.25,1147.2222222222222
-0.395,-0.25,1150.0
-0.385,-0.235,1152.7777777777778
-0.375,-0.205,1155.5555555555557
-0.365,-0.215,1158.3333333333333
-0.375,-0.23,1161.111111111111
-0.395,-0.245,1163.888888888889
-0.415,-0.245,1166.6666666666667
-0.42,-0.23,1169.4444444444443
-0.405,-0.2,1172.2222222222222
-0.39,-0.205,1175.0
-0.41,-0.205,1177.7777777777778
-0.4,-0.215,1180.5555555555557
-0.41,-0.195,1183.3333333333333
-0.39,-0.17,1186.111111111111
-0.395,-0.175,1188.888888888889
-0.39,-0.175,1191.6666666666667
-0.395,-0.185,1194.4444444444443
-0.415,-0.19,1197.2222222222222
-0.425,-0.18,1200.0
-0.42,-0.175,1202.7777777777778
-0.395,-0.16,1205.5555555555557
-0.39,-0.18,1208.3333333333333
-0.4,-0.19,1211.111111111111
-0.405,-0.2,1213.888888888889
-0.405,-0.195,1216.6666666666667
-0.395,-0.2,1219.4444444444443
-0.385,-0.2,1222.2222222222222
-0.385,-0.19,1225.0
-0.385,-0.205,1227.7777777777778
-0.4,-0.205,1230.5555555555557
-0.405,-0.2,1233.3333333333333
-0.405,-0.2,1236.111111111111
-0.4,-0.19,1238.888888888889
-0.39,-0.205,1241.6666666666667
-0.385,-0.205,1244.4444444444443
-0.4,-0.22,1247.2222222222222
-0.415,-0.22,1250.0
-0.405,-0.215,1252.7777777777778
-0.39,-0.22,1255.5555555555557
-0.375,-0.23,1258.3333333333333
-0.37,-0.235,1261.111111111111
-0.385,-0.23,1263.888888888889
-0.4,-0.23,1266.6666666666667
-0.385,-0.23,1269.4444444444443
-0.37,-0.225,1272.2222222222222
-0.36,-0.225,1275.0
-0.365,-0.235,1277.7777777777778
-0.365,-0.225,1280.5555555555557
-0.375,-0.225,1283.3333333333333
-0.38,-0.23,1286.111111111111
-0.355,-0.225,1288.888888888889
-0.34,-0.215,1291.6666666666667
-0.34,-0.215,1294.4444444444443
-0.335,-0.205,1297.2222222222222
-0.345,-0.195,1300.0
-0.335,-0.195,1302.7777777777778
-0.32,-0.185,1305.5555555555557
-0.315,-0.185,1308.3333333333333
-0.33,-0.18,1311.111111111111
-0.315,-0.2,1313.888888888889
-0.33,-0.19,1316.6666666666667
-0.315,-0.18,1319.4444444444443
-0.3,-0.17,1322.2222222222222
-0.275,-0.175,1325.0
-0.255,-0.17,1327.7777777777778
-0.24,-0.185,1330.5555555555557
-0.255,-0.195,1333.3333333333333
-0.245,-0.205,1336.111111111111
-0.235,-0.185,1338.888888888889
-0.22,-0.205,1341.6666666666667
-0.21,-0.195,1344.4444444444443
-0.21,-0.22,1347.2222222222222
-0.215,-0.215,1350.0
-0.205,-0.215,1352.7777777777778
-0.185,-0.21,1355.5555555555557
-0.17,-0.215,1358.3333333333333
-0.15,-0.21,1361.111111111111
-0.14,-0.215,1363.888888888889
-0.145,-0.23,1366.6666666666667
-0.14,-0.23,1369.4444444444443
-0.115,-0.225,1372.2222222222222
-0.12,-0.23,1375.0
-0.125,-0.245,1377.7777777777778
-0.115,-0.255,1380.5555555555557
-0.13,-0.27,1383.3333333333333
-0.12,-0.255,1386.111111111111
-0.12,-0.25,1388.888888888889
-0.125,-0.25,1391.6666666666667
-0.115,-0.24,1394.4444444444443
-0.13,-0.25,1397.2222222222222
-0.125,-0.26,1400.0
-0.125,-0.255,1402.7777777777778
-0.13,-0.24,1405.5555555555557
-0.14,-0.225,1408.3333333333333
-0.16,-0.215,1411.111111111111
-0.17,-0.225,1413.888888888889
-0.19,-0.22,1416.6666666666667
-0.195,-0.205,1419.4444444444443
-0.19,-0.195,1422.2222222222222
-0.18,-0.185,1425.0
-0.195,-0.185,1427.7777777777778
-0.225,-0.185,1430.5555555555557
-0.235,-0.19,1433.3333333333333
-0.24,-0.18,1436.111111111111
-0.235,-0.165,1438.888888888889
-0.235,-0.165,1441.6666666666667
-0.24,-0.16,1444.4444444444443
-0.27,-0.18,1447.2222222222222
-0.275,-0.185,1450.0
-0.28,-0.195,1452.7777777777778
-0.275,-0.18,1455.5555555555557
-0.275,-0.175,1458.3333333333333
-0.28,-0.19,1461.111111111111
-0.3,-0.195,1463.888888888889
-0.31,-0.195,1466.6666666666667
-0.31,-0.195,1469.4444444444443
-0.305,-0.185,1472.2222222222222
-0.295,-0.165,1475.0
-0.295,-0.18,1477.7777777777778
-0.31,-0.2,1480.5555555555557
-0.32,-0.2,1483.3333333333333
-0.305,-0.2,1486.111111111111
-0.3,-0.19,1488.888888888889
-0.295,-0.185,1491.6666666666667
-0.315,-0.19,1494.4444444444443
-0.315,-0.22,1497.2222222222222
-0.32,-0.23,1500.0
-0.305,-0.21,1502.7777777777778
-0.305,-0.21,1505.5555555555557
-0.295,-0.2,1508.3333333333333
-0.31,-0.205,1511.111111111111
-0.305,-0.225,1513.888888888889
-0.3,-0.23,1516.6666666666667
-0.305,-0.22,1519.4444444444443
-0.3,-0.2,1522.2222222222222
-0.31,-0.18,1525.0
-0.295,-0.185,1527.7777777777778
-0.295,-0.205,1530.5555555555557
-0.295,-0.205,1533.3333333333333
-0.29,-0.185,1536.111111111111
-0.285,-0.16,1538.888888888889
-0.28,-0.16,1541.6666666666667
-0.275,-0.17,1544.4444444444443
-0.275,-0.17,1547.2222222222222
-0.285,-0.17,1550.0
-0.29,-0.15,1552.7777777777778
-0.275,-0.145,1555.5555555555557
-0.28,-0.15,1558.3333333333333
-0.27,-0.17,1561.111111111111
-0.285,-0.175,1563.888888888889
-0.295,-0.175,1566.6666666666667
-0.295,-0.16,1569.4444444444443
-0.275,-0.15,1572.2222222222222
-0.27,-0.165,1575.0
-0.265,-0.17,1577.7777777777778
-0.265,-0.195,1580.5555555555557
-0.27,-0.19,1583.3333333333333
-0.265,-0.185,1586.111111111111
-0.27,-0.165,1588.888888888889
-0.26,-0.16,1591.6666666666667
-0.26,-0.175,1594.4444444444443
-0.265,-0.185,1597.2222222222222
-0.285,-0.185,1600.0
-0.285,-0.175,1602.7777777777778
-0.275,-0.175,1605.5555555555557
-0.26,-0.185,1608.3333333333333
-0.265,-0.205,1611.111111111111
-0.28,-0.22,1613.888888888889
-0.285,-0.215,1616.6666666666667
-0.28,-0.2,1619.4444444444443
-0.265,-0.195,1622.2222222222222
-0.265,-0.205,1625.0
-0.265,-0.21,1627.7777777777778
-0.265,-0.215,1630.5555555555557
-0.265,-0.21,1633.3333333333333
-0.27,-0.195,1636.111111111111
-0.27,-0.19,1638.888888888889
-0.255,-0.195,1641.6666666666667
-0.265,-0.2,1644.4444444444443
-0.28,-0.2,1647.2222222222222
-0.29,-0.185,1650.0
-0.28,-0.165,1652.7777777777778
-0.27,-0.15,1655.5555555555557
-0.27,-0.155,1658.3333333333333
-0.265,-0.16,1661.111111111111
-0.265,-0.175,1663.888888888889
-0.295,-0.165,1666.6666666666667
-0.28,-0.155,1669.4444444444443
-0.285,-0.14,1672.2222222222222
-0.265,-0.155,1675.0
-0.265,-0.155,1677.7777777777778
-0.28,-0.165,1680.5555555555557
-0.285,-0.16,1683.3333333333333
-0.285,-0.15,1686.111111111111
-0.275,-0.15,1688.888888888889
-0.275,-0.17,1691.6666666666667
-0.275,-0.18,1694.4444444444443
-0.275,-0.2,1697.2222222222222
-0.285,-0.18,1700.0
-0.285,-0.17,1702.7777777777778
-0.27,-0.16,1705.5555555555557
-0.265,-0.18,1708.3333333333333
-0.27,-0.19,1711.111111111111
-0.275,-0.185,1713.888888888889
-0.285,-0.19,1716.6666666666667
-0.28,-0.175,1719.4444444444443
-0.265,-0.16,1722.2222222222222
-0.265,-0.18,1725.0
-0.275,-0.185,1727.7777777777778
-0.27,-0.19,1730.5555555555557
-0.275,-0.2,1733.3333333333333
-0.275,-0.205,1736.111111111111
-0.275,-0.19,1738.888888888889
-0.26,-0.19,1741.6666666666667
-0.265,-0.21,1744.4444444444443
-0.275,-0.225,1747.2222222222222
-0.285,-0.225,1750.0
-0.28,-0.21,1752.7777777777778
-0.28,-0.19,1755.5555555555557
-0.26,-0.2,1758.3333333333333
-0.27,-0.205,1761.111111111111
-0.275,-0.215,1763.888888888889
-0.28,-0.22,1766.6666666666667
-0.28,-0.2,1769.4444444444443
-0.27,-0.175,1772.2222222222222
-0.255,-0.165,1775.0
-0.225,-0.165,1777.7777777777778
-0.235,-0.175,1780.5555555555557
-0.245,-0.175,1783.3333333333333
-0.24,-0.15,1786.111111111111
-0.22,-0.14,1788.888888888889
-0.21,-0.145,1791.6666666666667
-0.215,-0.15,1794.4444444444443
-0.22,-0.15,1797.2222222222222
-0.225,-0.16,1800.0
-0.235,-0.14,1802.7777777777778
-0.23,-0.12,1805.5555555555557
-0.22,-0.14,1808.3333333333333
-0.19,-0.155,1811.111111111111
-0.18,-0.175,1813.888888888889
-0.185,-0.185,1816.6666666666667
-0.15,-0.155,1819.4444444444443
-0.115,-0.145,1822.2222222222222
-0.105,-0.155,1825.0
-0.1,-0.175,1827.7777777777778
-0.125,-0.195,1830.5555555555557
-0.15,-0.19,1833.3333333333333
-0.155,-0.18,1836.111111111111
-0.15,-0.165,1838.888888888889
-0.16,-0.175,1841.6666666666667
-0.175,-0.18,1844.4444444444443
-0.185,-0.205,1847.2222222222222
-0.2,-0.2,1850.0
-0.19,-0.175,1852.7777777777778
-0.19,-0.185,1855.5555555555557
-0.18,-0.2,1858.3333333333333
-0.195,-0.215,1861.111111111111
-0.21,-0.235,1863.888888888889
-0.225,-0.23,1866.6666666666667
-0.22,-0.21,1869.4444444444443
-0.225,-0.205,1872.2222222222222
-0.24,-0.205,1875.0
-0.24,-0.22,1877.7777777777778
-0.26,-0.22,1880.5555555555557
-0.29,-0.23,1883.3333333333333
-0.285,-0.205,1886.111111111111
-0.28,-0.21,1888.888888888889
-0.265,-0.21,1891.6666666666667
-0.275,-0.2,1894.4444444444443
-0.295,-0.21,1897.2222222222222
-0.305,-0.2,1900.0
-0.295,-0.17,1902.7777777777778
-0.29,-0.16,1905.5555555555557
-0.275,-0.16,1908.3333333333333
-0.285,-0.17,1911.111111111111
-0.295,-0.175,1913.888888888889
-0.305,-0.19,1916.6666666666667
-0.32,-0.155,1919.4444444444443
-0.305,-0.15,1922.2222222222222
-0.295,-0.155,1925.0
-0.3,-0.16,1927.7777777777778
-0.305,-0.185,1930.5555555555557
-0.305,-0.18,1933.3333333333333
-0.295,-0.17,1936.111111111111
-0.285,-0.15,1938.888888888889
-0.29,-0.155,1941.6666666666667
-0.31,-0.18,1944.4444444444443
-0.34,-0.18,1947.2222222222222
-0.37,-0.185,1950.0
-0.365,-0.16,1952.7777777777778
-0.29,-0.16,1955.5555555555557
-0.15,-0.16,1958.3333333333333
0.065,-0.165,1961.111111111111
0.295,-0.18,1963.888888888889
0.54,-0.19,1966.6666666666667
0.84,-0.2,1969.4444444444443
1.085,-0.215,1972.2222222222222
1.165,-0.265,1975.0
1.04,-0.335,1977.7777777777778
0.765,-0.365,1980.5555555555557
0.48,-0.35,1983.3333333333333
0.22,-0.31,1986.111111111111
0.015,-0.24,1988.888888888889
-0.08,-0.2,1991.6666666666667
-0.115,-0.19,1994.4444444444443
-0.185,-0.21,1997.2222222222222
-0.235,-0.22,2000.0
-0.245,-0.2,2002.7777777777778
-0.235,-0.19,2005.5555555555557
-0.24,-0.18,2008.3333333333333
-0.26,-0.18,2011.111111111111
-0.3,-0.19,2013.888888888889
-0.345,-0.185,2016.6666666666667
-0.35,-0.16,2019.4444444444443
-0.365,-0.15,2022.2222222222222
-0.35,-0.155,2025.0
-0.365,-0.15,2027.7777777777778
-0.375,-0.155,2030.5555555555557
-0.39,-0.145,2033.3333333333333
-0.375,-0.13,2036.111111111111
-0.37,-0.13,2038.888888888889
-0.37,-0.135,2041.6666666666667
-0.375,-0.14,2044.4444444444443
-0.385,-0.15,2047.2222222222222
-0.39,-0.15,2050.0
-0.395,-0.135,2052.777777777778
-0.4,-0.13,2055.5555555555557
-0.39,-0.145,2058.3333333333335
-0.39,-0.16,2061.1111111111113
-0.4,-0.155,2063.8888888888887
-0.4,-0.155,2066.6666666666665
-0.39,-0.165,2069.4444444444443
-0.385,-0.15,2072.222222222222
-0.385,-0.16,2075.0
-0.385,-0.155,2077.777777777778
-0.395,-0.16,2080.5555555555557
-0.41,-0.155,2083.3333333333335
-0.4,-0.16,2086.1111111111113
-0.39,-0.15,2088.8888888888887
-0.385,-0.16,2091.6666666666665
-0.395,-0.16,2094.4444444444443
-0.395,-0.17,2097.222222222222
-0.405,-0.185,2100.0
-0.405,-0.18,2102.777777777778
-0.39,-0.18,2105.5555555555557
-0.38,-0.18,2108.3333333333335
-0.38,-0.19,2111.1111111111113
-0.395,-0.19,2113.8888888888887
-0.4,-0.185,2116.6666666666665
-0.41,-0.185,2119.4444444444443
-0.39,-0.175,2122.222222222222
-0.385,-0.17,2125.0
-0.375,-0.17,2127.777777777778
-0.385,-0.18,2130.5555555555557
-0.395,-0.165,2133.3333333333335
-0.395,-0.155,2136.1111111111113
-0.39,-0.155,2138.8888888888887
-0.38,-0.15,2141.6666666666665
-0.385,-0.135,2144.4444444444443
-0.39,-0.13,2147.222222222222
-0.395,-0.135,2150.0
-0.385,-0.125,2152.777777777778
-0.375,-0.125,2155.5555555555557
-0.365,-0.115,2158.3333333333335
-0.365,-0.12,2161.1111111111113
-0.37,-0.13,2163.8888888888887
-0.37,-0.13,2166.6666666666665
-0.365,-0.13,2169.4444444444443
-0.35,-0.12,2172.222222222222
-0.34,-0.13,2175.0
-0.345,-0.125,2177.777777777778
-0.345,-0.145,2180.5555555555557
-0.36,-0.155,2183.3333333333335
-0.35,-0.155,2186.1111111111113
-0.32,-0.145,2188.8888888888887
-0.305,-0.13,2191.6666666666665
-0.29,-0.14,2194.4444444444443
-0.3,-0.15,2197.222222222222
-0.29,-0.16,2200.0
-0.295,-0.155,2202.777777777778
-0.28,-0.145,2205.5555555555557
-0.255,-0.13,2208.3333333333335
-0.235,-0.15,2211.1111111111113
-0.245,-0.175,2213.8888888888887
-0.245,-0.185,2216.6666666666665
-0.235,-0.185,2219.4444444444443
-0.225,-0.17,2222.222222222222
-0.205,-0.16,2225.0
-0.18,-0.165,2227.777777777778
-0.18,-0.18,2230.5555555555557
-0.19,-0.185,2233.3333333333335
-0.17,-0.185,2236.1111111111113
-0.155,-0.155,2238.8888888888887
-0.145,-0.16,2241.6666666666665
-0.14,-0.17,2244.4444444444443
-0.15,-0.18,2247.222222222222
-0.14,-0.19,2250.0
-0.145,-0.165,2252.777777777778
-0.135,-0.155,2255.5555555555557
-0.11,-0.14,2258.3333333333335
-0.13,-0.13,2261.1111111111113
-0.125,-0.15,2263.8888888888887
-0.13,-0.15,2266.6666666666665
-0.135,-0.145,2269.4444444444443
-0.12,-0.14,2272.222222222222
-0.12,-0.14,2275.0
-0.12,-0.125,2277.777777777778
-0.145,-0.145,2280.5555555555557
-0.165,-0.15,2283.3333333333335
-0.17,-0.14,2286.1111111111113
-0.175,-0.12,2288.8888888888887
-0.175,-0.12,2291.6666666666665
-0.19,-0.13,2294.4444444444443
-0.215,-0.15,2297.222222222222
-0.225,-0.155,2300.0
-0.235,-0.15,2302.777777777778
-0.25,-0.135,2305.5555555555557
-0.245,-0.135,2308.3333333333335
-0.265,-0.15,2311.1111111111113
-0.27,-0.155,2313.8888888888887
-0.295,-0.15,2316.6666666666665
-0.315,-0.13,2319.4444444444443
-0.305,-0.12,2322.222222222222
-0.295,-0.12,2325.0
-0.3,-0.125,2327.777777777778
-0.315,-0.145,2330.5555555555557
-0.325,-0.155,2333.3333333333335
-0.325,-0.15,2336.1111111111113
-0.325,-0.135,2338.8888888888887
-0.325,-0.145,2341.6666666666665
-0.33,-0.16,2344.4444444444443
-0.34,-0.165,2347.222222222222
-0.355,-0.17,2350.0
-0.36,-0.16,2352.777777777778
-0.35,-0.145,2355.5555555555557
-0.335,-0.135,2358.3333333333335
-0.355,-0.155,2361.1111111111113
-0.36,-0.165,2363.8888888888887
-0.365,-0.16,2366.6666666666665
-0.365,-0.145,2369.4444444444443
-0.345,-0.125,2372.222222222222
-0.35,-0.12,2375.0
-0.36,-0.11,2377.777777777778
-0.36,-0.125,2380.5555555555557
-0.355,-0.115,2383.3333333333335
-0.35,-0.115,2386.1111111111113
-0.345,-0.095,2388.8888888888887
-0.335,-0.095,2391.6666666666665
-0.345,-0.1,2394.4444444444443
-0.365,-0.115,2397.222222222222
-0.375,-0.115,2400.0
-0.365,-0.09,2402.777777777778
-0.35,-0.085,2405.5555555555557
-0.355,-0.09,2408.3333333333335
-0.345,-0.105,2411.1111111111113
-0.35,-0.125,2413.8888888888887
-0.35,-0.125,2416.6666666666665
-0.355,-0.105,2419.4444444444443
-0.345,-0.11,2422.222222222222
-0.33,-0.12,2425.0
-0.325,-0.125,2427.777777777778
-0.33,-0.14,2430.5555555555557
-0.35,-0.145,2433.3333333333335
-0.35,-0.125,2436.1111111111113
-0.35,-0.11,2438.8888888888887
-0.34,-0.12,2441.6666666666665
-0.34,-0.12,2444.4444444444443
-0.35,-0.125,2447.222222222222
-0.355,-0.145,2450.0
-0.345,-0.135,2452.777777777778
-0.335,-0.13,2455.5555555555557
-0.33,-0.145,2458.3333333333335
-0.34,-0.14,2461.1111111111113
-0.34,-0.175,2463.8888888888887
-0.35,-0.18,2466.6666666666665
-0.34,-0.15,2469.4444444444443
-0.325,-0.135,2472.222222222222
-0.325,-0.135,2475.0
-0.32,-0.145,2477.777777777778
-0.34,-0.165,2480.5555555555557
-0.355,-0.165,2483.3333333333335
-0.36,-0.16,2486.1111111111113
-0.355,-0.135,2488.8888888888887
-0.345,-0.12,2491.6666666666665
-0.33,-0.135,2494.4444444444443
-0.335,-0.14,2497.222222222222
-0.345,-0.14,2500.0
-0.345,-0.125,2502.777777777778
-0.35,-0.12,2505.5555555555557
-0.33,-0.1,2508.3333333333335
-0.33,-0.095,2511.1111111111113
-0.345,-0.1,2513.8888888888887
-0.345,-0.115,2516.6666666666665
-0.35,-0.105,2519.4444444444443
-0.34,-0.085,2522.222222222222
-0.345,-0.07,2525.0
-0.345,-0.08,2527.777777777778
-0.345,-0.115,2530.5555555555557
-0.35,-0.125,2533.3333333333335
-0.345,-0.115,2536.1111111111113
-0.345,-0.095,2538.8888888888887
-0.335,-0.105,2541.6666666666665
-0.355,-0.11,2544.4444444444443
-0.36,-0.11,2547.222222222222
-0.365,-0.14,2550.0
-0.365,-0.14,2552.777777777778
-0.36,-0.12,2555.5555555555557
-0.35,-0.105,2558.3333333333335
-0.355,-0.11,2561.1111111111113
-0.355,-0.115,2563.8888888888887
-0.355,-0.125,2566.6666666666665
-0.35,-0.13,2569.4444444444443
-0.345,-0.105,2572.222222222222
-0.34,-0.115,2575.0
-0.355,-0.115,2577.777777777778
-0.37,-0.135,2580.5555555555557
-0.38,-0.145,2583.3333333333335
-0.38,-0.14,2586.1111111111113
-0.375,-0.13,2588.8888888888887
-0.365,-0.13,2591.6666666666665
-0.36,-0.14,2594.4444444444443
-0.355,-0.155,2597.222222222222
-0.355,-0.165,2600.0
-0.365,-0.16,2602.777777777778
-0.365,-0.135,2605.5555555555557
-0.345,-0.115,2608.3333333333335
-0.34,-0.12,2611.1111111111113
-0.36,-0.145,2613.8888888888887
-0.385,-0.15,2616.6666666666665
-0.38,-0.15,2619.4444444444443
-0.36,-0.11,2622.222222222222
-0.345,-0.105,2625.0
-0.345,-0.105,2627.777777777778
-0.365,-0.105,2630.5555555555557
-0.375,-0.11,2633.3333333333335
-0.385,-0.11,2636.1111111111113
-0.355,-0.09,2638.8888888888887
-0.35,-0.07,2641.6666666666665
-0.35,-0.08,2644.4444444444443
-0.36,-0.1,2647.222222222222
-0.37,-0.105,2650.0
-0.37,-0.1,2652.777777777778
-0.355,-0.075,2655.5555555555557
-0.35,-0.075,2658.3333333333335
-0.35,-0.095,2661.1111111111113
-0.365,-0.105,2663.8888888888887
-0.365,-0.115,2666.6666666666665
-0.36,-0.11,2669.4444444444443
-0.335,-0.105,2672.222222222222
-0.325,-0.09,2675.0
-0.33,-0.105,2677.777777777778
-0.325,-0.105,2680.5555555555557
-0.33,-0.11,2683.3333333333335
-0.315,-0.115,2686.1111111111113
-0.305,-0.095,2688.8888888888887
-0.31,-0.085,2691.6666666666665
-0.32,-0.1,2694.4444444444443
-0.325,-0.125,2697.222222222222
-0.32,-0.13,2700.0
-0.31,-0.13,2702.777777777778
-0.28,-0.105,2705.5555555555557
-0.265,-0.12,2708.3333333333335
-0.245,-0.125,2711.1111111111113
-0.24,-0.145,2713.8888888888887
-0.23,-0.155,2716.6666666666665
-0.23,-0.145,2719.4444444444443
-0.225,-0.115,2722.222222222222
-0.22,-0.115,2725.0
-0.235,-0.125,2727.777777777778
-0.25,-0.14,2730.5555555555557
-0.265,-0.165,2733.3333333333335
-0.275,-0.15,2736.1111111111113
-0.255,-0.13,2738.8888888888887
-0.26,-0.11,2741.6666666666665
-0.255,-0.11,2744.4444444444443
-0.27,-0.12,2747.222222222222
-0.3,-0.11,2750.0
-0.315,-0.1,2752.777777777778
-0.315,-0.095,2755.5555555555557
-0.32,-0.085,2758.3333333333335
-0.325,-0.08,2761.1111111111113
-0.335,-0.09,2763.8888888888887
-0.355,-0.1,2766.6666666666665
-0.365,-0.095,2769.4444444444443
-0.365,-0.085,2772.222222222222
-0.38,-0.09,2775.0
-0.39,-0.1,2777.777777777778
-0.4,-0.105,2780.5555555555557
-0.395,-0.1,2783.3333333333335
-0.38,-0.1,2786.1111111111113
-0.375,-0.095,2788.8888888888887
-0.385,-0.1,2791.6666666666665
-0.415,-0.11,2794.4444444444443
-0.42,-0.115,2797.222222222222
-0.42,-0.115,2800.0
-0.425,-0.105,2802.777777777778
-0.415,-0.095,2805.5555555555557
-0.405,-0.095,2808.3333333333335
-0.41,-0.1,2811.1111111111113
-0.425,-0.115,2813.8888888888887
-0.43,-0.115,2816.6666666666665
-0.41,-0.11,2819.4444444444443
-0.395,-0.105,2822.222222222222
-0.4,-0.115,2825.0
-0.42,-0.14,2827.777777777778
-0.425,-0.14,2830.5555555555557
-0.435,-0.135,2833.3333333333335
-0.45,-0.125,2836.1111111111113
-0.455,-0.11,2838.8888888888887
-0.465,-0.105,2841.6666666666665
-0.45,-0.125,2844.4444444444443
-0.41,-0.135,2847.222222222222
-0.265,-0.135,2850.0
-0.025,-0.105,2852.777777777778
0.205,-0.1,2855.5555555555557
0.46,-0.11,2858.3333333333335
0.715,-0.135,2861.1111111111113
0.975,-0.17,2863.8888888888887
1.095,-0.19,2866.6666666666665
1.01,-0.205,2869.4444444444443
0.755,-0.21,2872.222222222222
0.46,-0.215,2875.0
0.19,-0.21,2877.777777777778
-0.05,-0.18,2880.5555555555557
-0.185,-0.135,2883.3333333333335
-0.225,-0.085,2886.1111111111113
-0.25,-0.06,2888.8888888888887
-0.28,-0.06,2891.6666666666665
-0.325,-0.075,2894.4444444444443
-0.35,-0.09,2897.222222222222
-0.355,-0.09,2900.0
-0.35,-0.075,2902.777777777778
-0.365,-0.075,2905.5555555555557
-0.385,-0.075,2908.3333333333335
-0.425,-0.08,2911.1111111111113
-0.445,-0.09,2913.8888888888887
-0.445,-0.09,2916.6666666666665
-0.455,-0.095,2919.4444444444443
-0.45,-0.09,2922.222222222222
-0.455,-0.09,2925.0
-0.48,-0.09,2927.777777777778
-0.495,-0.1,2930.5555555555557
-0.485,-0.1,2933.3333333333335
-0.475,-0.085,2936.1111111111113
-0.47,-0.085,2938.8888888888887
-0.47,-0.08,2941.6666666666665
-0.48,-0.095,2944.4444444444443
-0.505,-0.115,2947.222222222222
-0.5,-0.13,2950.0
-0.49,-0.13,2952.777777777778
-0.48,-0.13,2955.5555555555557
-0.495,-0.13,2958.3333333333335
-0.5,-0.13,2961.1111111111113
-0.49,-0.14,2963.8888888888887
-0.49,-0.135,2966.6666666666665
-0.475,-0.135,2969.4444444444443
-0.465,-0.13,2972.222222222222
-0.475,-0.135,2975.0
-0.475,-0.14,2977.777777777778
-0.485,-0.135,2980.5555555555557
-0.49,-0.135,2983.3333333333335
-0.48,-0.12,2986.1111111111113
-0.475,-0.115,2988.8888888888887
-0.465,-0.105,2991.6666666666665
-0.475,-0.095,2994.4444444444443
-0.49,-0.09,2997.222222222222
-0.475,-0.085,3000.0
-0.465,-0.075,3002.777777777778
-0.475,-0.075,3005.5555555555557
-0.485,-0.07,3008.3333333333335
-0.485,-0.075,3011.1111111111113
-0.485,-0.07,3013.8888888888887
-0.475,-0.075,3016.6666666666665
-0.47,-0.065,3019.4444444444443
-0.465,-0.07,3022.222222222222
-0.475,-0.065,3025.0
-0.475,-0.075,3027.777777777778
-0.48,-0.085,3030.5555555555557
-0.47,-0.085,3033.3333333333335
-0.475,-0.085,3036.1111111111113
-0.46,-0.105,3038.8888888888887
-0.46,-0.105,3041.6666666666665
-0.465,-0.105,3044.4444444444443
-0.485,-0.11,3047.222222222222
-0.475,-0.1,3050.0
-0.47,-0.1,3052.777777777778
-0.455,-0.1,3055.5555555555557
-0.465,-0.095,3058.3333333333335
-0.455,-0.1,3061.1111111111113
-0.46,-0.1,3063.8888888888887
-0.46,-0.1,3066.6666666666665
-0.455,-0.095,3069.4444444444443
-0.435,-0.105,3072.222222222222
-0.435,-0.115,3075.0
-0.43,-0.135,3077.777777777778
-0.435,-0.14,3080.5555555555557
-0.435,-0.14,3083.3333333333335
-0.415,-0.13,3086.1111111111113
-0.41,-0.13,3088.8888888888887
-0.4,-0.13,3091.6666666666665
-0.395,-0.13,3094.4444444444443
-0.41,-0.13,3097.222222222222
-0.4,-0.14,3100.0
-0.38,-0.125,3102.777777777778
-0.355,-0.13,3105.5555555555557
-0.355,-0.12,3108.3333333333335
-0.375,-0.12,3111.1111111111113
-0.355,-0.125,3113.8888888888887
-0.345,-0.115,3116.6666666666665
-0.32,-0.105,3119.4444444444443
-0.305,-0.1,3122.222222222222
-0.29,-0.09,3125.0
-0.29,-0.09,3127.777777777778
-0.28,-0.105,3130.5555555555557
-0.275,-0.095,3133.3333333333335
-0.255,-0.095,3136.1111111111113
-0.235,-0.09,3138.8888888888887
-0.235,-0.09,3141.6666666666665
-0.235,-0.095,3144.4444444444443
-0.245,-0.09,3147.222222222222
-0.24,-0.095,3150.0
-0.21,-0.1,3152.777777777778
-0.195,-0.115,3155.5555555555557
-0.18,-0.115,3158.3333333333335
-0.19,-0.12,3161.1111111111113
-0.195,-0.14,3163.8888888888887
-0.19,-0.135,3166.6666666666665
-0.185,-0.12,3169.4444444444443
-0.175,-0.12,3172.222222222222
-0.17,-0.12,3175.0
-0.18,-0.12,3177.777777777778
-0.185,-0.135,3180.5555555555557
-0.175,-0.135,3183.3333333333335
-0.19,-0.135,3186.1111111111113
-0.19,-0.13,3188.8888888888887
-0.195,-0.125,3191.6666666666665
-0.21,-0.14,3194.4444444444443
-0.235,-0.165,3197.222222222222
-0.26,-0.155,3200.0
-0.255,-0.16,3202.777777777778
-0.255,-0.145,3205.5555555555557
-0.27,-0.155,3208.3333333333335
-0.295,-0.16,3211.1111111111113
-0.32,-0.165,3213.8888888888887
-0.335,-0.16,3216.6666666666665
-0.345,-0.14,3219.4444444444443
-0.325,-0.13,3222.222222222222
-0.33,-0.125,3225.0
-0.355,-0.14,3227.777777777778
-0.37,-0.145,3230.5555555555557
-0.37,-0.135,3233.3333333333335
-0.375,-0.125,3236.1111111111113
-0.365,-0.1,3238.8888888888887
-0.375,-0.085,3241.6666666666665
-0.38,-0.1,3244.4444444444443
-0.39,-0.1,3247.222222222222
-0.41,-0.1,3250.0
-0.405,-0.085,3252.777777777778
-0.405,-0.085,3255.5555555555557
-0.395,-0.09,3258.3333333333335
-0.41,-0.09,3261.1111111111113
-0.42,-0.09,3263.8888888888887
-0.42,-0.09,3266.6666666666665
-0.41,-0.085,3269.4444444444443
-0.39,-0.09,3272.222222222222
-0.395,-0.095,3275.0
-0.405,-0.09,3277.777777777778
-0.415,-0.105,3280.5555555555557
-0.42,-0.105,3283.3333333333335
-0.415,-0.11,3286.1111111111113
-0.41,-0.115,3288.8888888888887
-0.415,-0.12,3291.6666666666665
-0.42,-0.11,3294.4444444444443
-0.425,-0.115,3297.222222222222
-0.425,-0.11,3300.0
-0.425,-0.105,3302.777777777778
-0.4,-0.105,3305.5555555555557
-0.405,-0.115,3308.3333333333335
-0.415,-0.11,3311.1111111111113
-0.425,-0.11,3313.8888888888887
-0.42,-0.11,3316.6666666666665
-0.42,-0.12,3319.4444444444443
-0.42,-0.13,3322.222222222222
-0.43,-0.135,3325.0
-0.43,-0.145,3327.777777777778
-0.43,-0.155,3330.5555555555557
-0.43,-0.14,3333.3333333333335
-0.405,-0.14,3336.1111111111113
-0.405,-0.145,3338.8888888888887
-0.405,-0.145,3341.6666666666665
-0.415,-0.15,3344.4444444444443
-0.43,-0.145,3347.222222222222
-0.42,-0.13,3350.0
-0.415,-0.14,3352.777777777778
-0.41,-0.145,3355.5555555555557
-0.4,-0.145,3358.3333333333335
-0.415,-0.135,3361.1111111111113
-0.415,-0.125,3363.8888888888887
-0.415,-0.115,3366.6666666666665
-0.41,-0.105,3369.4444444444443
-0.39,-0.105,3372.222222222222
-0.39,-0.11,3375.0
-0.4,-0.1,3377.777777777778
-0.41,-0.105,3380.5555555555557
-0.415,-0.095,3383.3333333333335
-0.395,-0.09,3386.1111111111113
-0.385,-0.1,3388.8888888888887
-0.39,-0.1,3391.6666666666665
-0.405,-0.095,3394.4444444444443
-0.395,-0.105,3397.222222222222
-0.4,-0.105,3400.0
-0.385,-0.105,3402.777777777778
-0.38,-0.115,3405.5555555555557
-0.39,-0.125,3408.3333333333335
-0.4,-0.125,3411.1111111111113
-0.415,-0.13,3413.8888888888887
-0.41,-0.13,3416.6666666666665
-0.4,-0.125,3419.4444444444443
-0.4,-0.13,3422.222222222222
-0.41,-0.125,3425.0
-0.42,-0.13,3427.777777777778
-0.405,-0.13,3430.5555555555557
-0.41,-0.125,3433.3333333333335
-0.4,-0.125,3436.1111111111113
-0.4,-0.125,3438.8888888888887
-0.395,-0.145,3441.6666666666665
-0.4,-0.145,3444.4444444444443
-0.415,-0.155,3447.222222222222
-0.42,-0.15,3450.0
-0.415,-0.14,3452.777777777778
-0.41,-0.145,3455.5555555555557
-0.42,-0.155,3458.3333333333335
-0.42,-0.155,3461.1111111111113
-0.42,-0.155,3463.8888888888887
-0.43,-0.145,3466.6666666666665
-0.415,-0.155,3469.4444444444443
-0.395,-0.155,3472.222222222222
-0.4,-0.155,3475.0
-0.405,-0.135,3477.777777777778
-0.42,-0.14,3480.5555555555557
-0.435,-0.125,3483.3333333333335
-0.425,-0.13,3486.1111111111113
-0.42,-0.11,3488.8888888888887
-0.415,-0.11,3491.6666666666665
-0.405,-0.115,3494.4444444444443
-0.41,-0.12,3497.222222222222
-0.43,-0.1,3500.0
-0.43,-0.095,3502.777777777778
-0.395,-0.1,3505.5555555555557
-0.41,-0.095,3508.3333333333335
-0.42,-0.105,3511.1111111111113
-0.425,-0.11,3513.8888888888887
-0.415,-0.125,3516.6666666666665
-0.405,-0.11,3519.4444444444443
-0.41,-0.105,3522.222222222222
-0.405,-0.115,3525.0
-0.415,-0.115,3527.777777777778
-0.415,-0.13,3530.5555555555557
-0.415,-0.135,3533.3333333333335
-0.405,-0.125,3536.1111111111113
-0.385,-0.125,3538.8888888888887
-0.41,-0.12,3541.6666666666665
-0.42,-0.13,3544.4444444444443
-0.43,-0.13,3547.222222222222
-0.42,-0.135,3550.0
-0.41,-0.135,3552.777777777778
-0.4,-0.115,3555.5555555555557
-0.405,-0.125,3558.3333333333335
-0.42,-0.13,3561.1111111111113
-0.42,-0.155,3563.8888888888887
-0.43,-0.15,3566.6666666666665
-0.415,-0.16,3569.4444444444443
-0.4,-0.155,3572.222222222222
-0.41,-0.15,3575.0
-0.405,-0.16,3577.777777777778
-0.405,-0.16,3580.5555555555557
-0.415,-0.16,3583.3333333333335
-0.4,-0.16,3586.1111111111113
-0.41,-0.15,3588.8888888888887
-0.41,-0.15,3591.6666666666665
-0.42,-0.16,3594.4444444444443
-0.41,-0.155,3597.222222222222
-0.405,-0.15,3600.0
-0.39,-0.145,3602.777777777778
-0.375,-0.135,3605.5555555555557
-0.375,-0.13,3608.3333333333335
-0.375,-0.125,3611.1111111111113
-0.375,-0.11,3613.8888888888887
-0.375,-0.11,3616.6666666666665
-0.365,-0.11,3619.4444444444443
-0.345,-0.095,3622.222222222222
-0.345,-0.1,3625.0
-0.35,-0.1,3627.777777777778
-0.375,-0.105,3630.5555555555557
-0.37,-0.115,3633.3333333333335
-0.335,-0.105,3636.1111111111113
-0.29,-0.095,3638.8888888888887
-0.27,-0.095,3641.6666666666665
-0.25,-0.105,3644.4444444444443
-0.235,-0.115,3647.222222222222
-0.225,-0.125,3650.0
-0.225,-0.12,3652.777777777778
-0.225,-0.125,3655.5555555555557
-0.245,-0.135,3658.3333333333335
-0.245,-0.13,3661.1111111111113
-0.26,-0.145,3663.8888888888887
-0.27,-0.145,3666.6666666666665
-0.275,-0.135,3669.4444444444443
-0.27,-0.13,3672.222222222222
-0.275,-0.13,3675.0
-0.29,-0.14,3677.777777777778
-0.31,-0.16,3680.5555555555557
-0.315,-0.17,3683.3333333333335
-0.32,-0.155,3686.1111111111113
-0.32,-0.16,3688.8888888888887
-0.33,-0.155,3691.6666666666665
-0.355,-0.175,3694.4444444444443
-0.38,-0.185,3697.222222222222
-0.39,-0.175,3700.0
-0.395,-0.18,3702.777777777778
-0.385,-0.175,3705.5555555555557
-0.4,-0.17,3708.3333333333335
-0.4,-0.18,3711.1111111111113
-0.42,-0.18,3713.8888888888887
-0.435,-0.18,3716.6666666666665
-0.425,-0.175,3719.4444444444443
-0.41,-0.17,3722.222222222222
-0.42,-0.15,3725.0
-0.42,-0.155,3727.777777777778
-0.43,-0.155,3730.5555555555557
-0.435,-0.15,3733.3333333333335
-0.43,-0.14,3736.1111111111113
-0.415,-0.13,3738.8888888888887
-0.425,-0.135,3741.6666666666665
-0.435,-0.13,3744.4444444444443
-0.44,-0.14,3747.222222222222
-0.425,-0.13,3750.0
-0.43,-0.125,3752.777777777778
-0.42,-0.12,3755.5555555555557
-0.41,-0.12,3758.3333333333335
-0.42,-0.12,3761.1111111111113
-0.43,-0.14,3763.8888888888887
-0.455,-0.135,3766.6666666666665
-0.46,-0.14,3769.4444444444443
-0.47,-0.14,3772.222222222222
-0.49,-0.14,3775.0
-0.475,-0.145,3777.777777777778
-0.415,-0.145,3780.5555555555557
-0.27,-0.145,3783.3333333333335
-0.045,-0.14,3786.1111111111113
0.18,-0.14,3788.8888888888887
0.43,-0.135,3791.6666666666665
0.72,-0.155,3794.4444444444443
0.98,-0.18,3797.222222222222
1.1,-0.21,3800.0
1.04,-0.25,3802.777777777778
0.79,-0.29,3805.5555555555557
0.48,-0.3,3808.3333333333335
0.175,-0.29,3811.1111111111113
-0.075,-0.26,3813.8888888888887
-0.23,-0.23,3816.6666666666665
-0.28,-0.18,3819.4444444444443
-0.305,-0.17,3822.222222222222
-0.355,-0.18,3825.0
-0.38,-0.19,3827.777777777778
-0.395,-0.18,3830.5555555555557
-0.395,-0.18,3833.3333333333335
-0.395,-0.17,3836.1111111111113
-0.4,-0.18,3838.8888888888887
-0.43,-0.19,3841.6666666666665
-0.455,-0.18,3844.4444444444443
-0.47,-0.175,3847.222222222222
-0.485,-0.175,3850.0
-0.485,-0.165,3852.777777777778
-0.485,-0.165,3855.5555555555557
-0.505,-0.16,3858.3333333333335
-0.51,-0.15,3861.1111111111113
-0.505,-0.145,3863.8888888888887
-0.515,-0.125,3866.6666666666665
-0.5,-0.13,3869.4444444444443
-0.49,-0.13,3872.222222222222
-0.49,-0.135,3875.0
-0.495,-0.135,3877.777777777778
-0.51,-0.13,3880.5555555555557
-0.525,-0.13,3883.3333333333335
-0.51,-0.115,3886.1111111111113
-0.49,-0.14,3888.8888888888887
-0.49,-0.145,3891.6666666666665
-0.485,-0.15,3894.4444444444443
-0.49,-0.14,3897.222222222222
-0.505,-0.145,3900.0
-0.5,-0.15,3902.777777777778
-0.485,-0.14,3905.5555555555557
-0.49,-0.145,3908.3333333333335
-0.49,-0.15,3911.1111111111113
-0.495,-0.165,3913.8888888888887
-0.485,-0.16,3916.6666666666665
-0.485,-0.145,3919.4444444444443
-0.485,-0.16,3922.222222222222
-0.485,-0.16,3925.0
-0.49,-0.175,3927.777777777778
-0.49,-0.16,3930.5555555555557
-0.485,-0.15,3933.3333333333335
-0.47,-0.155,3936.1111111111113
-0.47,-0.175,3938.8888888888887
-0.48,-0.18,3941.6666666666665
-0.475,-0.19,3944.4444444444443
-0.49,-0.19,3947.222222222222
-0.49,-0.17,3950.0
-0.47,-0.16,3952.777777777778
-0.455,-0.18,3955.5555555555557
-0.45,-0.185,3958.3333333333335
-0.455,-0.2,3961.1111111111113
-0.46,-0.185,3963.8888888888887
-0.47,-0.17,3966.6666666666665
-0.46,-0.17,3969.4444444444443
-0.455,-0.165,3972.222222222222
-0.445,-0.175,3975.0
-0.465,-0.185,3977.777777777778
-0.47,-0.17,3980.5555555555557
-0.46,-0.15,3983.3333333333335
-0.45,-0.145,3986.1111111111113
-0.43,-0.14,3988.8888888888887
-0.435,-0.155,3991.6666666666665
-0.425,-0.15,3994.4444444444443
-0.43,-0.145,3997.222222222222
-0.435,-0.135,4000.0
-0.43,-0.125,4002.777777777778
-0.42,-0.13,4005.5555555555557
-0.42,-0.15,4008.3333333333335
-0.42,-0.15,4011.1111111111113
-0.425,-0.15,4013.8888888888887
-0.41,-0.135,4016.6666666666665
-0.39,-0.145,4019.4444444444443
-0.375,-0.15,4022.222222222222
-0.38,-0.16,4025.0
-0.37,-0.16,4027.777777777778
-0.37,-0.17,4030.5555555555557
-0.38,-0.16,4033.3333333333335
-0.37,-0.16,4036.1111111111113
-0.355,-0.165,4038.8888888888887
-0.345,-0.165,4041.6666666666665
-0.355,-0.185,4044.4444444444443
-0.345,-0.175,4047.222222222222
-0.34,-0.18,4050.0
-0.315,-0.175,4052.777777777778
-0.3,-0.18,4055.5555555555557
-0.295,-0.195,4058.3333333333335
-0.28,-0.2,4061.1111111111113
-0.28,-0.21,4063.8888888888887
-0.27,-0.21,4066.6666666666665
-0.25,-0.195,4069.4444444444443
-0.245,-0.21,4072.222222222222
-0.245,-0.225,4075.0
-0.235,-0.215,4077.777777777778
-0.23,-0.22,4080.5555555555557
-0.235,-0.21,4083.3333333333335
-0.225,-0.19,4086.1111111111113
-0.205,-0.2,4088.8888888888887
-0.195,-0.2,4091.6666666666665
-0.195,-0.215,4094.4444444444443
-0.195,-0.215,4097.222222222223
-0.2,-0.205,4100.0
-0.18,-0.185,4102.777777777777
-0.17,-0.185,4105.555555555556
-0.17,-0.19,4108.333333333333
-0.17,-0.205,4111.111111111111
-0.185,-0.2,4113.888888888889
-0.185,-0.195,4116.666666666667
-0.175,-0.155,4119.444444444444
-0.165,-0.15,4122.222222222223
-0.165,-0.155,4125.0
-0.18,-0.175,4127.777777777777
-0.18,-0.195,4130.555555555556
-0.185,-0.165,4133.333333333333
-0.195,-0.155,4136.111111111111
-0.205,-0.15,4138.888888888889
-0.23,-0.145,4141.666666666667
-0.24,-0.17,4144.444444444444
-0.245,-0.19,4147.222222222223
-0.265,-0.175,4150.0
-0.27,-0.155,4152.777777777777
-0.27,-0.165,4155.555555555556
-0.285,-0.17,4158.333333333333
-0.305,-0.185,4161.111111111111
-0.315,-0.185,4163.888888888889
-0.315,-0.175,4166.666666666667
-0.315,-0.155,4169.444444444444
-0.31,-0.15,4172.222222222223
-0.315,-0.16,4175.0
-0.32,-0.18,4177.777777777777
-0.335,-0.185,4180.555555555556
-0.34,-0.18,4183.333333333333
-0.34,-0.16,4186.111111111111
-0.335,-0.165,4188.888888888889
-0.34,-0.18,4191.666666666667
-0.345,-0.195,4194.444444444444
-0.36,-0.22,4197.222222222223
-0.365,-0.2,4200.0
-0.355,-0.185,4202.777777777777
-0.35,-0.17,4205.555555555556
-0.345,-0.18,4208.333333333333
-0.36,-0.2,4211.111111111111
-0.375,-0.21,4213.888888888889
-0.37,-0.185,4216.666666666667
-0.37,-0.18,4219.444444444444
-0.365,-0.165,4222.222222222223
-0.36,-0.17,4225.0
-0.365,-0.2,4227.777777777777
-0.375,-0.185,4230.555555555556
-0.365,-0.17,4233.333333333333
-0.35,-0.16,4236.111111111111
-0.33,-0.15,4238.888888888889
-0.345,-0.145,4241.666666666667
-0.35,-0.16,4244.444444444444
-0.35,-0.165,4247.222222222223
-0.35,-0.16,4250.0
-0.345,-0.135,4252.777777777777
-0.33,-0.11,4255.555555555556
-0.335,-0.125,4258.333333333333
-0.34,-0.135,4261.111111111111
-0.355,-0.15,4263.888888888889
-0.365,-0.145,4266.666666666667
-0.34,-0.13,4269.444444444444
-0.33,-0.125,4272.222222222223
-0.335,-0.135,4275.0
-0.34,-0.155,4277.777777777777
-0.345,-0.18,4280.555555555556
-0.345,-0.16,4283.333333333333
-0.34,-0.155,4286.111111111111
-0.32,-0.155,4288.888888888889
-0.33,-0.155,4291.666666666667
-0.34,-0.165,4294.444444444444
-0.33,-0.17,4297.222222222223
-0.335,-0.18,4300.0
-0.335,-0.165,4302.777777777777
-0.33,-0.15,4305.555555555556
-0.335,-0.15,4308.333333333333
-0.335,-0.17,4311.111111111111
-0.335,-0.18,4313.888888888889
-0.335,-0.19,4316.666666666667
-0.325,-0.19,4319.444444444444
-0.31,-0.175,4322.222222222223
-0.315,-0.185,4325.0
-0.325,-0.205,4327.777777777777
-0.32,-0.2,4330.555555555556
-0.335,-0.21,4333.333333333333
-0.32,-0.195,4336.111111111111
-0.31,-0.185,4338.888888888889
-0.315,-0.18,4341.666666666667
-0.32,-0.195,4344.444444444444
-0.32,-0.21,4347.222222222223
-0.32,-0.205,4350.0
-0.32,-0.2,4352.777777777777
-0.31,-0.18,4355.555555555556
-0.32,-0.165,4358.333333333333
-0.32,-0.17,4361.111111111111
-0.33,-0.16,4363.888888888889
-0.34,-0.175,4366.666666666667
-0.32,-0.145,4369.444444444444
-0.31,-0.15,4372.222222222223
-0.31,-0.15,4375.0
-0.325,-0.145,4377.777777777777
-0.335,-0.165,4380.555555555556
-0.335,-0.155,4383.333333333333
-0.315,-0.145,4386.111111111111
-0.315,-0.135,4388.888888888889
-0.33,-0.145,4391.666666666667
-0.33,-0.14,4394.444444444444
-0.33,-0.15,4397.222222222223
-0.33,-0.16,4400.0
-0.33,-0.16,4402.777777777777
-0.31,-0.16,4405.555555555556
-0.32,-0.165,4408.333333333333
-0.33,-0.16,4411.111111111111
-0.33,-0.17,4413.888888888889
-0.33,-0.165,4416.666666666667
-0.325,-0.16,4419.444444444444
-0.315,-0.17,4422.222222222223
-0.32,-0.16,4425.0
-0.325,-0.165,4427.777777777777
-0.33,-0.17,4430.555555555556
-0.335,-0.16,4433.333333333333
-0.325,-0.155,4436.111111111111
-0.305,-0.165,4438.888888888889
-0.315,-0.165,4441.666666666667
-0.32,-0.18,4444.444444444444
-0.33,-0.185,4447.222222222223
-0.33,-0.185,4450.0
-0.315,-0.185,4452.777777777777
-0.315,-0.19,4455.555555555556
-0.31,-0.195,4458.333333333333
-0.325,-0.205,4461.111111111111
-0.325,-0.195,4463.888888888889
-0.325,-0.195,4466.666666666667
-0.315,-0.175,4469.444444444444
-0.31,-0.18,4472.222222222223
-0.315,-0.19,4475.0
-0.32,-0.195,4477.777777777777
-0.325,-0.185,4480.555555555556
-0.32,-0.17,4483.333333333333
-0.315,-0.165,4486.111111111111
-0.315,-0.16,4488.888888888889
-0.31,-0.155,4491.666666666667
-0.325,-0.17,4494.444444444444
-0.33,-0.145,4497.222222222223
-0.325,-0.13,4500.0
-0.325,-0.125,4502.777777777777
-0.31,-0.135,4505.555555555556
-0.3,-0.14,4508.333333333333
-0.32,-0.155,4511.111111111111
-0.32,-0.15,4513.888888888889
-0.33,-0.13,4516.666666666667
-0.325,-0.12,4519.444444444444
-0.31,-0.13,4522.222222222223
-0.32,-0.14,4525.0
-0.315,-0.16,4527.777777777777
-0.315,-0.16,4530.555555555556
-0.32,-0.155,4533.333333333333
-0.325,-0.14,4536.111111111111
-0.31,-0.14,4538.888888888889
-0.305,-0.15,4541.666666666667
-0.31,-0.175,4544.444444444444
-0.32,-0.185,4547.222222222223
-0.33,-0.165,4550.0
-0.315,-0.155,4552.777777777777
-0.295,-0.145,4555.555555555556
-0.29,-0.15,4558.333333333333
-0.29,-0.175,4561.111111111111
-0.31,-0.17,4563.888888888889
-0.3,-0.16,4566.666666666667
-0.285,-0.145,4569.444444444444
-0.28,-0.145,4572.222222222223
-0.28,-0.165,4575.0
-0.275,-0.185,4577.777777777777
-0.285,-0.185,4580.555555555556
-0.275,-0.185,4583.333333333333
-0.25,-0.17,4586.111111111111
-0.22,-0.17,4588.888888888889
-0.2,-0.17,4591.666666666667
-0.2,-0.19,4594.444444444444
-0.18,-0.195,4597.222222222223
-0.155,-0.18,4600.0
-0.13,-0.15,4602.777777777777
-0.125,-0.17,4605.555555555556
-0.13,-0.155,4608.333333333333
-0.165,-0.175,4611.111111111111
-0.18,-0.19,4613.888888888889
-0.19,-0.165,4616.666666666667
-0.195,-0.155,4619.444444444444
-0.19,-0.14,4622.222222222223
-0.2,-0.14,4625.0
-0.215,-0.155,4627.777777777777
-0.22,-0.155,4630.555555555556
-0.225,-0.145,4633.333333333333
-0.23,-0.125,4636.111111111111
-0.215,-0.13,4638.888888888889
-0.235,-0.125,4641.666666666667
-0.255,-0.135,4644.444444444444
-0.26,-0.145,4647.222222222223
-0.285,-0.14,4650.0
-0.295,-0.125,4652.777777777777
-0.31,-0.12,4655.555555555556
-0.31,-0.125,4658.333333333333
-0.325,-0.14,4661.111111111111
-0.335,-0.145,4663.888888888889
-0.355,-0.16,4666.666666666667
-0.35,-0.155,4669.444444444444
-0.35,-0.14,4672.222222222223
-0.36,-0.13,4675.0
-0.36,-0.15,4677.777777777777
-0.37,-0.17,4680.555555555556
-0.375,-0.175,4683.333333333333
-0.36,-0.15,4686.111111111111
-0.35,-0.125,4688.888888888889
-0.35,-0.135,4691.666666666667
-0.37,-0.15,4694.444444444444
-0.385,-0.17,4697.222222222223
-0.385,-0.175,4700.0
-0.375,-0.175,4702.777777777777
-0.36,-0.17,4705.555555555556
-0.37,-0.175,4708.333333333333
-0.37,-0.185,4711.111111111111
-0.37,-0.195,4713.888888888889
-0.375,-0.2,4716.666666666667
-0.39,-0.185,4719.444444444444
-0.385,-0.175,4722.222222222223
-0.405,-0.16,4725.0
-0.43,-0.16,4727.777777777777
-0.43,-0.175,4730.555555555556
-0.415,-0.185,4733.333333333333
-0.3,-0.17,4736.111111111111
-0.135,-0.16,4738.888888888889
0.075,-0.15,4741.666666666667
0.275,-0.155,4744.444444444444
0.515,-0.165,4747.222222222223
0.785,-0.185,4750.0
0.975,-0.19,4752.777777777777
1.0,-0.22,4755.555555555556
0.82,-0.26,4758.333333333333
0.53,-0.285,4761.111111111111
0.265,-0.28,4763.888888888889
0.0,-0.25,4766.666666666667
-0.2,-0.205,4769.444444444444
-0.27,-0.14,4772.222222222223
-0.3,-0.11,4775.0
-0.335,-0.115,4777.777777777777
-0.37,-0.125,4780.555555555556
-0.37,-0.12,4783.333333333333
-0.36,-0.14,4786.111111111111
-0.365,-0.14,4788.888888888889
-0.39,-0.135,4791.666666666667
-0.415,-0.145,4794.444444444444
-0.455,-0.15,4797.222222222223
-0.48,-0.155,4800.0
-0.47,-0.15,4802.777777777777
-0.465,-0.135,4805.555555555556
-0.48,-0.13,4808.333333333333
-0.475,-0.14,4811.111111111111
-0.5,-0.145,4813.888888888889
-0.495,-0.145,4816.666666666667
-0.485,-0.155,4819.444444444444
-0.49,-0.155,4822.222222222223
-0.49,-0.145,4825.0
-0.5,-0.145,4827.777777777777
-0.515,-0.16,4830.555555555556
-0.515,-0.165,4833.333333333333
-0.5,-0.18,4836.111111111111
-0.485,-0.18,4838.888888888889
-0.485,-0.16,4841.666666666667
-0.49,-0.165,4844.444444444444
-0.51,-0.17,4847.222222222223
-0.52,-0.165,4850.0
-0.52,-0.165,4852.777777777777
-0.51,-0.16,4855.555555555556
-0.495,-0.175,4858.333333333333
-0.49,-0.18,4861.111111111111
-0.5,-0.175,4863.888888888889
-0.5,-0.16,4866.666666666667
-0.515,-0.155,4869.444444444444
-0.515,-0.155,4872.222222222223
-0.52,-0.15,4875.0
-0.52,-0.135,4877.777777777777
-0.52,-0.14,4880.555555555556
-0.525,-0.12,4883.333333333333
-0.505,-0.12,4886.111111111111
-0.5,-0.125,4888.888888888889
-0.49,-0.135,4891.666666666667
-0.515,-0.13,4894.444444444444
-0.515,-0.14,4897.222222222223
-0.535,-0.12,4900.0
-0.51,-0.105,4902.777777777777
-0.515,-0.11,4905.555555555556
-0.515,-0.12,4908.333333333333
-0.54,-0.12,4911.111111111111
-0.545,-0.125,4913.888888888889
-0.52,-0.115,4916.666666666667
-0.51,-0.115,4919.444444444444
-0.485,-0.115,4922.222222222223
-0.485,-0.125,4925.0
-0.495,-0.145,4927.777777777777
-0.51,-0.155,4930.555555555556
-0.525,-0.135,4933.333333333333
-0.51,-0.125,4936.111111111111
-0.5,-0.11,4938.888888888889
-0.495,-0.13,4941.666666666667
-0.51,-0.15,4944.444444444444
-0.505,-0.145,4947.222222222223
-0.5,-0.15,4950.0
-0.475,-0.13,4952.777777777777
-0.49,-0.12,4955.555555555556
-0.48,-0.145,4958.333333333333
-0.485,-0.16,4961.111111111111
-0.495,-0.185,4963.888888888889
-0.495,-0.18,4966.666666666667
-0.495,-0.16,4969.444444444444
-0.495,-0.16,4972.222222222223
-0.49,-0.155,4975.0
-0.495,-0.17,4977.777777777777
-0.485,-0.19,4980.555555555556
-0.47,-0.185,4983.333333333333
-0.45,-0.16,4986.111111111111
-0.44,-0.15,4988.888888888889
-0.44,-0.155,4991.666666666667
-0.45,-0.175,4994.444444444444
-0.465,-0.185,4997.222222222223
-0.455,-0.15,5000.0
-0.445,-0.15,5002.777777777777
-0.415,-0.135,5005.555555555556
-0.42,-0.125,5008.333333333333
-0.41,-0.145,5011.111111111111
-0.415,-0.145,5013.888888888889
-0.41,-0.14,5016.666666666667
-0.395,-0.11,5019.444444444444
-0.37,-0.095,5022.222222222223
-0.365,-0.1,5025.0
-0.355,-0.115,5027.777777777777
-0.36,-0.135,5030.555555555556
-0.37,-0.14,5033.333333333333
-0.355,-0.12,5036.111111111111
-0.32,-0.105,5038.888888888889
-0.305,-0.115,5041.666666666667
-0.32,-0.135,5044.444444444444
-0.325,-0.155,5047.222222222223
-0.33,-0.16,5050.0
-0.315,-0.145,5052.777777777777
-0.295,-0.14,5055.555555555556
-0.3,-0.14,5058.333333333333
-0.28,-0.16,5061.111111111111
-0.285,-0.175,5063.888888888889
-0.28,-0.175,5066.666666666667
-0.275,-0.145,5069.444444444444
-0.265,-0.145,5072.222222222223
-0.265,-0.15,5075.0
-0.27,-0.155,5077.777777777777
-0.28,-0.17,5080.555555555556
-0.29,-0.18,5083.333333333333
-0.295,-0.17,5086.111111111111
-0.295,-0.16,5088.888888888889
-0.305,-0.16,5091.666666666667
-0.32,-0.19,5094.444444444444
-0.32,-0.195,5097.222222222223
-0.335,-0.185,5100.0
-0.33,-0.17,5102.777777777777
-0.335,-0.145,5105.555555555556
-0.36,-0.16,5108.333333333333
-0.355,-0.155,5111.111111111111
-0.365,-0.18,5113.888888888889
-0.38,-0.175,5116.666666666667
-0.405,-0.14,5119.444444444444
-0.405,-0.125,5122.222222222223
-0.415,-0.125,5125.0
-0.44,-0.14,5127.777777777777
-0.435,-0.15,5130.555555555556
-0.445,-0.125,5133.333333333333
-0.44,-0.11,5136.111111111111
-0.42,-0.085,5138.888888888889
-0.425,-0.09,5141.666666666667
-0.445,-0.12,5144.444444444444
-0.45,-0.12,5147.222222222223
-0.46,-0.115,5150.0
-0.445,-0.095,5152.777777777777
-0.45,-0.08,5155.555555555556
-0.455,-0.085,5158.333333333333
-0.465,-0.105,5161.111111111111
-0.47,-0.105,5163.888888888889
-0.465,-0.11,5166.666666666667
-0.44,-0.105,5169.444444444444
-0.44,-0.1,5172.222222222223
-0.46,-0.11,5175.0
-0.465,-0.13,5177.777777777777
-0.465,-0.14,5180.555555555556
-0.455,-0.13,5183.333333333333
-0.455,-0.11,5186.111111111111
-0.48,-0.11,5188.888888888889
-0.49,-0.105,5191.666666666667
-0.48,-0.12,5194.444444444444
-0.48,-0.135,5197.222222222223
-0.505,-0.13,5200.0
-0.485,-0.11,5202.777777777777
-0.46,-0.095,5205.555555555556
-0.455,-0.115,5208.333333333333
-0.465,-0.14,5211.111111111111
-0.48,-0.16,5213.888888888889
-0.49,-0.155,5216.666666666667
-0.465,-0.135,5219.444444444444
-0.435,-0.14,5222.222222222223
-0.43,-0.13,5225.0
-0.455,-0.155,5227.777777777777
-0.485,-0.17,5230.555555555556
-0.49,-0.14,5233.333333333333
-0.46,-0.125,5236.111111111111
-0.445,-0.125,5238.888888888889
-0.45,-0.125,5241.666666666667
-0.47,-0.14,5244.444444444444
-0.485,-0.13,5247.222222222223
-0.47,-0.125,5250.0
-0.45,-0.09,5252.777777777777
-0.445,-0.09,5255.555555555556
-0.44,-0.085,5258.333333333333
-0.425,-0.1,5261.111111111111
-0.46,-0.1,5263.888888888889
-0.46,-0.1,5266.666666666667
-0.455,-0.08,5269.444444444444
-0.455,-0.07,5272.222222222223
-0.455,-0.09,5275.0
-0.45,-0.1,5277.777777777777
-0.46,-0.105,5280.555555555556
-0.455,-0.095,5283.333333333333
-0.44,-0.075,5286.111111111111
-0.43,-0.09,5288.888888888889
-0.43,-0.11,5291.666666666667
-0.445,-0.125,5294.444444444444
-0.45,-0.125,5297.222222222223
-0.45,-0.12,5300.0
-0.445,-0.095,5302.777777777777
-0.445,-0.09,5305.555555555556
-0.46,-0.105,5308.333333333333
-0.47,-0.125,5311.111111111111
-0.46,-0.12,5313.888888888889
-0.465,-0.11,5316.666666666667
-0.45,-0.09,5319.444444444444
-0.445,-0.09,5322.222222222223
-0.43,-0.105,5325.0
-0.445,-0.135,5327.777777777777
-0.46,-0.14,5330.555555555556
-0.46,-0.13,5333.333333333333
-0.435,-0.125,5336.111111111111
-0.44,-0.12,5338.888888888889
-0.43,-0.135,5341.666666666667
-0.425,-0.165,5344.444444444444
-0.445,-0.135,5347.222222222223
-0.455,-0.135,5350.0
-0.465,-0.11,5352.777777777777
-0.465,-0.12,5355.555555555556
-0.47,-0.135,5358.333333333333
-0.46,-0.135,5361.111111111111
-0.455,-0.125,5363.888888888889
-0.445,-0.11,5366.666666666667
-0.445,-0.1,5369.444444444444
-0.455,-0.09,5372.222222222223
-0.45,-0.095,5375.0
-0.445,-0.1,5377.777777777777
-0.45,-0.1,5380.555555555556
-0.47,-0.075,5383.333333333333
-0.48,-0.065,5386.111111111111
-0.455,-0.085,5388.888888888889
-0.435,-0.09,5391.666666666667
-0.44,-0.105,5394.444444444444
-0.45,-0.095,5397.222222222223
-0.47,-0.08,5400.0
-0.465,-0.07,5402.777777777777
-0.445,-0.09,5405.555555555556
-0.445,-0.11,5408.333333333333
-0.465,-0.11,5411.111111111111
-0.47,-0.115,5413.888888888889
-0.465,-0.1,5416.666666666667
-0.465,-0.095,5419.444444444444
-0.465,-0.09,5422.222222222223
-0.475,-0.115,5425.0
-0.48,-0.12,5427.777777777777
-0.48,-0.12,5430.555555555556
-0.475,-0.1,5433.333333333333
-0.475,-0.1,5436.111111111111
-0.455,-0.1,5438.888888888889
-0.46,-0.115,5441.666666666667
-0.47,-0.12,5444.444444444444
-0.48,-0.115,5447.222222222223
-0.48,-0.115,5450.0
-0.46,-0.11,5452.777777777777
-0.46,-0.12,5455.555555555556
-0.46,-0.12,5458.333333333333
-0.46,-0.125,5461.111111111111
-0.46,-0.14,5463.888888888889
-0.47,-0.13,5466.666666666667
-0.45,-0.12,5469.444444444444
-0.44,-0.125,5472.222222222223
-0.42,-0.125,5475.0
-0.415,-0.135,5477.777777777777
-0.425,-0.125,5480.555555555556
-0.425,-0.11,5483.333333333333
-0.42,-0.1,5486.111111111111
-0.405,-0.105,5488.888888888889
-0.39,-0.1,5491.666666666667
-0.4,-0.09,5494.444444444444
-0.415,-0.09,5497.222222222223
-0.4,-0.07,5500.0
-0.365,-0.07,5502.777777777777
-0.32,-0.065,5505.555555555556
-0.29,-0.075,5508.333333333333
-0.305,-0.09,5511.111111111111
-0.345,-0.075,5513.888888888889
-0.385,-0.085,5516.666666666667
-0.345,-0.08,5519.444444444444
-0.34,-0.085,5522.222222222223
-0.325,-0.08,5525.0
-0.35,-0.085,5527.777777777777
-0.38,-0.1,5530.555555555556
-0.4,-0.105,5533.333333333333
-0.39,-0.11,5536.111111111111
-0.38,-0.11,5538.888888888889
-0.4,-0.105,5541.666666666667
-0.405,-0.11,5544.444444444444
-0.43,-0.11,5547.222222222223
-0.45,-0.11,5550.0
-0.455,-0.105,5552.777777777777
-0.45,-0.1,5555.555555555556
-0.46,-0.1,5558.333333333333
-0.47,-0.09,5561.111111111111
-0.475,-0.12,5563.888888888889
-0.49,-0.135,5566.666666666667
-0.475,-0.13,5569.444444444444
-0.47,-0.125,5572.222222222223
-0.465,-0.125,5575.0
-0.465,-0.115,5577.777777777777
-0.475,-0.13,5580.555555555556
-0.47,-0.145,5583.333333333333
-0.455,-0.135,5586.111111111111
-0.46,-0.125,5588.888888888889
-0.505,-0.14,5591.666666666667
-0.55,-0.125,5594.444444444444
-0.55,-0.14,5597.222222222223
-0.535,-0.13,5600.0
-0.5,-0.115,5602.777777777777
-0.465,-0.1,5605.555555555556
-0.45,-0.09,5608.333333333333
-0.475,-0.095,5611.111111111111
-0.51,-0.105,5613.888888888889
-0.535,-0.095,5616.666666666667
-0.545,-0.085,5619.444444444444
-0.52,-0.075,5622.222222222223
-0.525,-0.055,5625.0
-0.525,-0.06,5627.777777777777
-0.54,-0.08,5630.555555555556
-0.535,-0.075,5633.333333333333
-0.46,-0.065,5636.111111111111
-0.31,-0.055,5638.888888888889
-0.08,-0.055,5641.666666666667
0.185,-0.065,5644.444444444444
0.475,-0.095,5647.222222222223
0.78,-0.12,5650.0
1.025,-0.135,5652.777777777777
1.065,-0.155,5655.555555555556
0.85,-0.18,5658.333333333333
0.515,-0.19,5661.111111111111
0.205,-0.185,5663.888888888889
-0.095,-0.15,5666.666666666667
-0.29,-0.095,5669.444444444444
-0.38,-0.06,5672.222222222223
-0.405,-0.05,5675.0
-0.465,-0.085,5677.777777777777
-0.485,-0.11,5680.555555555556
-0.505,-0.115,5683.333333333333
-0.505,-0.1,5686.111111111111
-0.505,-0.095,5688.888888888889
-0.505,-0.105,5691.666666666667
-0.54,-0.11,5694.444444444444
-0.565,-0.135,5697.222222222223
-0.59,-0.135,5700.0
-0.575,-0.12,5702.777777777777
-0.555,-0.11,5705.555555555556
-0.555,-0.105,5708.333333333333
-0.56,-0.105,5711.111111111111
-0.565,-0.14,5713.888888888889
-0.585,-0.125,5716.666666666667
-0.575,-0.125,5719.444444444444
-0.565,-0.105,5722.222222222223
-0.57,-0.12,5725.0
-0.56,-0.13,5727.777777777777
-0.565,-0.12,5730.555555555556
-0.57,-0.11,5733.333333333333
-0.57,-0.09,5736.111111111111
-0.56,-0.085,5738.888888888889
-0.55,-0.09,5741.666666666667
-0.57,-0.075,5744.444444444444
-0.56,-0.08,5747.222222222223
-0.58,-0.095,5750.0
-0.57,-0.07,5752.777777777777
-0.575,-0.065,5755.555555555556
-0.565,-0.055,5758.333333333333
-0.575,-0.07,5761.111111111111
-0.57,-0.085,5763.888888888889
-0.57,-0.11,5766.666666666667
-0.58,-0.095,5769.444444444444
-0.57,-0.1,5772.222222222223
-0.56,-0.095,5775.0
-0.565,-0.105,5777.777777777777
-0.56,-0.115,5780.555555555556
-0.565,-0.12,5783.333333333333
-0.555,-0.12,5786.111111111111
-0.555,-0.1,5788.888888888889
-0.565,-0.095,5791.666666666667
-0.555,-0.105,5794.444444444444
-0.56,-0.11,5797.222222222223
-0.575,-0.11,5800.0
-0.565,-0.08,5802.777777777777
-0.55,-0.075,5805.555555555556
-0.54,-0.105,5808.333333333333
-0.53,-0.13,5811.111111111111
-0.54,-0.145,5813.888888888889
-0.57,-0.14,5816.666666666667
-0.57,-0.125,5819.444444444444
-0.565,-0.13,5822.222222222223
-0.565,-0.12,5825.0
-0.555,-0.145,5827.777777777777
-0.555,-0.155,5830.555555555556
-0.555,-0.145,5833.333333333333
-0.53,-0.125,5836.111111111111
-0.52,-0.11,5838.888888888889
-0.525,-0.105,5841.666666666667
-0.525,-0.12,5844.444444444444
-0.535,-0.135,5847.222222222223
-0.53,-0.13,5850.0
-0.52,-0.095,5852.777777777777
-0.5,-0.085,5855.555555555556
-0.5,-0.08,5858.333333333333
-0.515,-0.095,5861.111111111111
-0.525,-0.105,5863.888888888889
-0.525,-0.09,5866.666666666667
-0.49,-0.075,5869.444444444444
-0.475,-0.07,5872.222222222223
-0.465,-0.07,5875.0
-0.48,-0.095,5877.777777777777
-0.47,-0.115,5880.555555555556
-0.47,-0.105,5883.333333333333
-0.45,-0.09,5886.111111111111
-0.445,-0.085,5888.888888888889
-0.44,-0.095,5891.666666666667
-0.435,-0.1,5894.444444444444
-0.445,-0.12,5897.222222222223
-0.445,-0.11,5900.0
-0.435,-0.095,5902.777777777777
-0.435,-0.1,5905.555555555556
-0.42,-0.1,5908.333333333333
-0.395,-0.12,5911.111111111111
-0.38,-0.14,5913.888888888889
-0.355,-0.125,5916.666666666667
-0.34,-0.125,5919.444444444444
-0.33,-0.12,5922.222222222223
-0.345,-0.135,5925.0
-0.34,-0.155,5927.777777777777
-0.345,-0.17,5930.555555555556
-0.345,-0.16,5933.333333333333
-0.33,-0.15,5936.111111111111
-0.31,-0.15,5938.888888888889
-0.305,-0.165,5941.666666666667
-0.295,-0.175,5944.444444444444
-0.3,-0.19,5947.222222222223
-0.315,-0.17,5950.0
-0.305,-0.155,5952.777777777777
-0.28,-0.145,5955.555555555556
-0.295,-0.155,5958.333333333333
-0.3,-0.165,5961.111111111111
-0.305,-0.175,5963.888888888889
-0.31,-0.16,5966.666666666667
-0.315,-0.14,5969.444444444444
-0.325,-0.125,5972.222222222223
-0.32,-0.12,5975.0
-0.32,-0.135,5977.777777777777
-0.35,-0.135,5980.555555555556
-0.36,-0.105,5983.333333333333
-0.37,-0.09,5986.111111111111
-0.37,-0.08,5988.888888888889
-0.37,-0.09,5991.666666666667
-0.385,-0.1,5994.444444444444
-0.405,-0.105,5997.222222222223
-0.41,-0.1,6000.0
-0.405,-0.09,6002.777777777777
-0.41,-0.09,6005.555555555556
-0.415,-0.09,6008.333333333333
-0.435,-0.11,6011.111111111111
-0.445,-0.12,6013.888888888889
-0.47,-0.115,6016.666666666667
-0.445,-0.105,6019.444444444444
-0.445,-0.095,6022.222222222223
-0.425,-0.115,6025.0
-0.455,-0.135,6027.777777777777
-0.46,-0.125,6030.555555555556
-0.465,-0.115,6033.333333333333
-0.465,-0.09,6036.111111111111
-0.465,-0.1,6038.888888888889
-0.465,-0.12,6041.666666666667
-0.455,-0.14,6044.444444444444
-0.45,-0.145,6047.222222222223
-0.46,-0.14,6050.0
-0.45,-0.13,6052.777777777777
-0.445,-0.135,6055.555555555556
-0.455,-0.14,6058.333333333333
-0.465,-0.145,6061.111111111111
-0.46,-0.155,6063.888888888889
-0.465,-0.135,6066.666666666667
-0.445,-0.13,6069.444444444444
-0.43,-0.13,6072.222222222223
-0.425,-0.13,6075.0
-0.445,-0.135,6077.777777777777
-0.44,-0.13,6080.555555555556
-0.45,-0.12,6083.333333333333
-0.455,-0.115,6086.111111111111
-0.435,-0.11,6088.888888888889
-0.43,-0.105,6091.666666666667
-0.43,-0.105,6094.444444444444
-0.455,-0.095,6097.222222222223
-0.465,-0.095,6100.0
-0.44,-0.09,6102.777777777777
-0.425,-0.1,6105.555555555556
-0.42,-0.105,6108.333333333333
-0.44,-0.105,6111.111111111111
-0.45,-0.1,6113.888888888889
-0.435,-0.095,6116.666666666667
-0.42,-0.08,6119.444444444444
-0.4,-0.085,6122.222222222223
-0.4,-0.095,6125.0
-0.41,-0.105,6127.777777777777
-0.425,-0.115,6130.555555555556
-0.425,-0.115,6133.333333333333
-0.415,-0.12,6136.111111111111
-0.415,-0.115,6138.888888888889
-0.425,-0.115,6141.666666666667
-0.415,-0.12,6144.444444444444
-0.415,-0.125,6147.222222222223
-0.415,-0.13,6150.0
-0.4,-0.12,6152.777777777777
-0.4,-0.105,6155.555555555556
-0.41,-0.11,6158.333333333333
-0.425,-0.13,6161.111111111111
-0.425,-0.15,6163.888888888889
-0.42,-0.16,6166.666666666667
-0.41,-0.155,6169.444444444444
-0.4,-0.135,6172.222222222223
-0.41,-0.135,6175.0
-0.425,-0.155,6177.777777777777
-0.435,-0.17,6180.555555555556
-0.44,-0.165,6183.333333333333
-0.39,-0.135,6186.111111111111
-0.385,-0.125,6188.888888888889
-0.37,-0.125,6191.666666666667
-0.36,-0.15,6194.444444444444
-0.35,-0.16,6197.222222222223
-0.355,-0.145,6200.0
-0.39,-0.13,6202.777777777777
-0.41,-0.105,6205.555555555556
-0.45,-0.11,6208.333333333333
-0.46,-0.12,6211.111111111111
-0.465,-0.125,6213.888888888889
-0.465,-0.1,6216.666666666667
-0.44,-0.1,6219.444444444444
-0.39,-0.085,6222.222222222223
-0.355,-0.105,6225.0
-0.305,-0.11,6227.777777777777
-0.315,-0.13,6230.555555555556
-0.37,-0.115,6233.333333333333
-0.425,-0.1,6236.111111111111
-0.435,-0.11,6238.888888888889
-0.435,-0.12,6241.666666666667
-0.42,-0.13,6244.444444444444
-0.39,-0.13,6247.222222222223
-0.37,-0.11,6250.0
-0.365,-0.095,6252.777777777777
-0.35,-0.12,6255.555555555556
-0.375,-0.13,6258.333333333333
-0.39,-0.14,6261.111111111111
-0.425,-0.13,6263.888888888889
-0.42,-0.12,6266.666666666667
-0.41,-0.13,6269.444444444444
-0.405,-0.145,6272.222222222223
-0.395,-0.14,6275.0
-0.395,-0.15,6277.777777777777
-0.385,-0.145,6280.555555555556
-0.39,-0.155,6283.333333333333
-0.385,-0.155,6286.111111111111
-0.38,-0.155,6288.888888888889
-0.375,-0.15,6291.666666666667
-0.365,-0.14,6294.444444444444
-0.36,-0.165,6297.222222222223
-0.355,-0.17,6300.0
-0.355,-0.155,6302.777777777777
-0.35,-0.14,6305.555555555556
-0.37,-0.13,6308.333333333333
-0.375,-0.135,6311.111111111111
-0.38,-0.145,6313.888888888889
-0.385,-0.13,6316.666666666667
-0.37,-0.12,6319.444444444444
-0.355,-0.11,6322.222222222223
-0.365,-0.105,6325.0
-0.37,-0.115,6327.777777777777
-0.38,-0.12,6330.555555555556
-0.38,-0.115,6333.333333333333
-0.365,-0.095,6336.111111111111
-0.34,-0.075,6338.888888888889
-0.33,-0.09,6341.666666666667
-0.335,-0.115,6344.444444444444
-0.345,-0.135,6347.222222222223
-0.35,-0.125,6350.0
-0.355,-0.115,6352.777777777777
-0.325,-0.105,6355.555555555556
-0.31,-0.105,6358.333333333333
-0.32,-0.135,6361.111111111111
-0.33,-0.13,6363.888888888889
-0.32,-0.135,6366.666666666667
-0.29,-0.11,6369.444444444444
-0.255,-0.095,6372.222222222223
-0.23,-0.095,6375.0
-0.19,-0.115,6377.777777777777
-0.175,-0.13,6380.555555555556
-0.185,-0.13,6383.333333333333
-0.18,-0.125,6386.111111111111
-0.2,-0.14,6388.888888888889
-0.205,-0.15,6391.666666666667
-0.22,-0.16,6394.444444444444
-0.23,-0.165,6397.222222222223
-0.235,-0.155,6400.0
-0.245,-0.135,6402.777777777777
-0.25,-0.135,6405.555555555556
-0.25,-0.15,6408.333333333333
-0.255,-0.165,6411.111111111111
-0.25,-0.165,6413.888888888889
-0.25,-0.16,6416.666666666667
-0.24,-0.135,6419.444444444444
-0.255,-0.13,6422.222222222223
-0.27,-0.145,6425.0
-0.275,-0.145,6427.777777777777
-0.275,-0.135,6430.555555555556
-0.285,-0.125,6433.333333333333
-0.28,-0.11,6436.111111111111
-0.305,-0.105,6438.888888888889
-0.345,-0.115,6441.666666666667
-0.365,-0.125,6444.444444444444
-0.355,-0.12,6447.222222222223
-0.365,-0.11,6450.0
-0.37,-0.09,6452.777777777777
-0.355,-0.11,6455.555555555556
-0.375,-0.105,6458.333333333333
-0.365,-0.125,6461.111111111111
-0.385,-0.13,6463.888888888889
-0.38,-0.11,6466.666666666667
-0.375,-0.095,6469.444444444444
-0.36,-0.115,6472.222222222223
-0.37,-0.125,6475.0
-0.375,-0.14,6477.777777777777
-0.385,-0.145,6480.555555555556
-0.375,-0.135,6483.333333333333
-0.365,-0.13,6486.111111111111
-0.345,-0.125,6488.888888888889
-0.365,-0.14,6491.666666666667
-0.385,-0.145,6494.444444444444
-0.42,-0.14,6497.222222222223
-0.44,-0.13,6500.0
-0.45,-0.12,6502.777777777777
-0.38,-0.125,6505.555555555556
-0.22,-0.135,6508.333333333333
0.01,-0.15,6511.111111111111
0.32,-0.155,6513.888888888889
0.695,-0.155,6516.666666666667
1.095,-0.155,6519.444444444444
1.365,-0.17,6522.222222222223
1.375,-0.21,6525.0
1.13,-0.22,6527.777777777777
0.75,-0.235,6530.555555555556
0.39,-0.23,6533.333333333333
0.12,-0.185,6536.111111111111
-0.015,-0.155,6538.888888888889
-0.065,-0.135,6541.666666666667
-0.1,-0.135,6544.444444444444
-0.17,-0.135,6547.222222222223
-0.2,-0.13,6550.0
-0.225,-0.11,6552.777777777777
-0.235,-0.105,6555.555555555556
-0.27,-0.1,6558.333333333333
-0.305,-0.105,6561.111111111111
-0.355,-0.11,6563.888888888889
-0.375,-0.115,6566.666666666667
-0.38,-0.105,6569.444444444444
-0.395,-0.1,6572.222222222223
-0.38,-0.095,6575.0
-0.395,-0.105,6577.777777777777
-0.405,-0.115,6580.555555555556
-0.425,-0.125,6583.333333333333
-0.415,-0.12,6586.111111111111
-0.41,-0.115,6588.888888888889
-0.405,-0.115,6591.666666666667
-0.4,-0.125,6594.444444444444
-0.42,-0.13,6597.222222222223
-0.43,-0.12,6600.0
-0.415,-0.12,6602.777777777777
-0.415,-0.12,6605.555555555556
-0.425,-0.105,6608.333333333333
-0.435,-0.125,6611.111111111111
-0.425,-0.145,6613.888888888889
-0.43,-0.15,6616.666666666667
-0.42,-0.14,6619.444444444444
-0.41,-0.135,6622.222222222223
-0.405,-0.13,6625.0
-0.415,-0.15,6627.777777777777
-0.415,-0.17,6630.555555555556
-0.425,-0.165,6633.333333333333
-0.41,-0.155,6636.111111111111
-0.4,-0.145,6638.888888888889
-0.39,-0.14,6641.666666666667
-0.405,-0.16,6644.444444444444
-0.415,-0.16,6647.222222222223
-0.42,-0.155,6650.0
-0.41,-0.14,6652.777777777777
-0.39,-0.135,6655.555555555556
-0.39,-0.14,6658.333333333333
-0.395,-0.15,6661.111111111111
-0.415,-0.155,6663.888888888889
-0.42,-0.14,6666.666666666667
-0.4,-0.12,6669.444444444444
-0.395,-0.1,6672.222222222223
-0.41,-0.105,6675.0
-0.42,-0.12,6677.777777777777
-0.42,-0.125,6680.555555555556
-0.415,-0.125,6683.333333333333
-0.415,-0.11,6686.111111111111
-0.39,-0.095,6688.888888888889
-0.395,-0.11,6691.666666666667
-0.39,-0.125,6694.444444444444
-0.395,-0.145,6697.222222222223
-0.39,-0.12,6700.0
-0.395,-0.12,6702.777777777777
-0.39,-0.125,6705.555555555556
-0.385,-0.135,6708.333333333333
-0.385,-0.15,6711.111111111111
-0.395,-0.155,6713.888888888889
-0.385,-0.145,6716.666666666667
-0.375,-0.13,6719.444444444444
-0.36,-0.135,6722.222222222223
-0.375,-0.14,6725.0
-0.37,-0.15,6727.777777777777
-0.36,-0.145,6730.555555555556
-0.355,-0.145,6733.333333333333
-0.33,-0.13,6736.111111111111
-0.32,-0.12,6738.888888888889
-0.315,-0.145,6741.666666666667
-0.32,-0.175,6744.444444444444
-0.325,-0.18,6747.222222222223
-0.32,-0.17,6750.0
-0.28,-0.16,6752.777777777777
-0.26,-0.15,6755.555555555556
-0.255,-0.165,6758.333333333333
-0.26,-0.175,6761.111111111111
-0.265,-0.19,6763.888888888889
-0.26,-0.165,6766.666666666667
-0.23,-0.155,6769.444444444444
-0.205,-0.155,6772.222222222223
-0.19,-0.165,6775.0
-0.19,-0.165,6777.777777777777
-0.19,-0.16,6780.555555555556
-0.185,-0.145,6783.333333333333
-0.155,-0.12,6786.111111111111
-0.135,-0.125,6788.888888888889
-0.115,-0.13,6791.666666666667
-0.125,-0.135,6794.444444444444
-0.125,-0.15,6797.222222222223
-0.11,-0.12,6800.0
-0.11,-0.115,6802.777777777777
-0.105,-0.13,6805.555555555556
-0.09,-0.12,6808.333333333333
-0.09,-0.13,6811.111111111111
-0.08,-0.14,6813.888888888889
-0.08,-0.14,6816.666666666667
-0.09,-0.135,6819.444444444444
-0.065,-0.14,6822.222222222223
-0.09,-0.15,6825.0
-0.09,-0.17,6827.777777777777
-0.09,-0.165,6830.555555555556
-0.1,-0.15,6833.333333333333
-0.11,-0.15,6836.111111111111
-0.125,-0.145,6838.888888888889
-0.13,-0.15,6841.666666666667
-0.145,-0.165,6844.444444444444
-0.165,-0.155,6847.222222222223
-0.19,-0.145,6850.0
-0.195,-0.14,6852.777777777777
-0.2,-0.15,6855.555555555556
-0.21,-0.165,6858.333333333333
-0.23,-0.17,6861.111111111111
-0.245,-0.18,6863.888888888889
-0.26,-0.17,6866.666666666667
-0.27,-0.165,6869.444444444444
-0.265,-0.165,6872.222222222223
-0.27,-0.175,6875.0
-0.28,-0.17,6877.777777777777
-0.295,-0.17,6880.555555555556
-0.325,-0.155,6883.333333333333
-0.315,-0.155,6886.111111111111
-0.31,-0.145,6888.888888888889
-0.3,-0.155,6891.666666666667
-0.29,-0.14,6894.444444444444
-0.31,-0.14,6897.222222222223
-0.32,-0.14,6900.0
-0.32,-0.125,6902.777777777777
-0.305,-0.135,6905.555555555556
-0.31,-0.14,6908.333333333333
-0.33,-0.14,6911.111111111111
-0.345,-0.125,6913.888888888889
-0.355,-0.125,6916.666666666667
-0.34,-0.125,6919.444444444444
-0.33,-0.125,6922.222222222223
-0.335,-0.12,6925.0
-0.325,-0.125,6927.777777777777
-0.325,-0.135,6930.555555555556
-0.33,-0.125,6933.333333333333
-0.33,-0.13,6936.111111111111
-0.32,-0.135,6938.888888888889
-0.325,-0.14,6941.666666666667
-0.33,-0.14,6944.444444444444
-0.335,-0.145,6947.222222222223
-0.335,-0.14,6950.0
-0.33,-0.14,6952.777777777777
-0.315,-0.14,6955.555555555556
-0.325,-0.14,6958.333333333333
-0.32,-0.14,6961.111111111111
-0.315,-0.14,6963.888888888889
-0.325,-0.14,6966.666666666667
-0.31,-0.135,6969.444444444444
-0.315,-0.15,6972.222222222223
-0.31,-0.145,6975.0
-0.295,-0.16,6977.777777777777
-0.305,-0.165,6980.555555555556
-0.315,-0.175,6983.333333333333
-0.325,-0.18,6986.111111111111
-0.31,-0.17,6988.888888888889
-0.31,-0.16,6991.666666666667
-0.305,-0.165,6994.444444444444
-0.295,-0.18,6997.222222222223
-0.31,-0.19,7000.0
-0.305,-0.17,7002.777777777777
-0.295,-0.16,7005.555555555556
-0.285,-0.155,7008.333333333333
-0.285,-0.145,7011.111111111111
-0.285,-0.175,7013.888888888889
-0.3,-0.17,7016.666666666667
-0.31,-0.145,7019.444444444444
-0.3,-0.13,7022.222222222223
-0.295,-0.125,7025.0
-0.28,-0.135,7027.777777777777
-0.31,-0.135,7030.555555555556
-0.31,-0.14,7033.333333333333
-0.295,-0.115,7036.111111111111
-0.275,-0.105,7038.888888888889
-0.275,-0.105,7041.666666666667
-0.29,-0.12,7044.444444444444
-0.3,-0.125,7047.222222222223
-0.31,-0.14,7050.0
-0.3,-0.115,7052.777777777777
-0.275,-0.125,7055.555555555556
-0.28,-0.13,7058.333333333333
-0.285,-0.16,7061.111111111111
-0.3,-0.18,7063.888888888889
-0.31,-0.155,7066.666666666667
-0.3,-0.14,7069.444444444444
-0.28,-0.135,7072.222222222223
-0.285,-0.145,7075.0
-0.3,-0.18,7077.777777777777
-0.305,-0.17,7080.555555555556
-0.31,-0.155,7083.333333333333
-0.3,-0.14,7086.111111111111
-0.295,-0.15,7088.888888888889
-0.29,-0.175,7091.666666666667
-0.285,-0.185,7094.444444444444
-0.295,-0.18,7097.222222222223
-0.295,-0.175,7100.0
-0.275,-0.165,7102.777777777777
-0.28,-0.165,7105.555555555556
-0.28,-0.175,7108.333333333333
-0.3,-0.175,7111.111111111111
-0.305,-0.185,7113.888888888889
-0.3,-0.17,7116.666666666667
-0.29,-0.16,7119.444444444444
-0.285,-0.165,7122.222222222223
-0.28,-0.16,7125.0
-0.285,-0.165,7127.777777777777
-0.29,-0.16,7130.555555555556
-0.3,-0.145,7133.333333333333
-0.29,-0.13,7136.111111111111
-0.295,-0.13,7138.888888888889
-0.29,-0.135,7141.666666666667
-0.29,-0.14,7144.444444444444
-0.295,-0.13,7147.222222222223
-0.3,-0.125,7150.0
-0.3,-0.12,7152.777777777777
-0.295,-0.11,7155.555555555556
-0.29,-0.115,7158.333333333333
-0.295,-0.125,7161.111111111111
-0.29,-0.13,7163.888888888889
-0.31,-0.14,7166.666666666667
-0.3,-0.14,7169.444444444444
-0.29,-0.155,7172.222222222223
-0.285,-0.145,7175.0
-0.285,-0.145,7177.777777777777
-0.305,-0.15,7180.555555555556
-0.3,-0.155,7183.333333333333
-0.3,-0.155,7186.111111111111
-0.295,-0.16,7188.888888888889
-0.28,-0.155,7191.666666666667
-0.285,-0.14,7194.444444444444
-0.305,-0.15,7197.222222222223
-0.3,-0.15,7200.0
-0.295,-0.16,7202.777777777777
-0.27,-0.155,7205.555555555556
-0.26,-0.17,7208.333333333333
-0.26,-0.18,7211.111111111111
-0.27,-0.18,7213.888888888889
-0.285,-0.18,7216.666666666667
-0.265,-0.185,7219.444444444444
-0.25,-0.175,7222.222222222223
-0.245,-0.175,7225.0
-0.255,-0.175,7227.777777777777
-0.27,-0.19,7230.555555555556
-0.27,-0.2,7233.333333333333
-0.25,-0.175,7236.111111111111
-0.23,-0.17,7238.888888888889
-0.19,-0.155,7241.666666666667
-0.15,-0.16,7244.444444444444
-0.135,-0.155,7247.222222222223
-0.135,-0.135,7250.0
-0.155,-0.135,7252.777777777777
-0.15,-0.125,7255.555555555556
-0.15,-0.135,7258.333333333333
-0.15,-0.135,7261.111111111111
-0.16,-0.155,7263.888888888889
-0.185,-0.14,7266.666666666667
-0.21,-0.145,7269.444444444444
-0.205,-0.13,7272.222222222223
-0.205,-0.125,7275.0
-0.215,-0.13,7277.777777777777
-0.225,-0.135,7280.555555555556
-0.23,-0.145,7283.333333333333
-0.22,-0.14,7286.111111111111
-0.21,-0.145,7288.888888888889
-0.23,-0.145,7291.666666666667
-0.25,-0.15,7294.444444444444
-0.29,-0.165,7297.222222222223
-0.3,-0.175,7300.0
-0.295,-0.16,7302.777777777777
-0.305,-0.14,7305.555555555556
-0.305,-0.145,7308.333333333333
-0.33,-0.155,7311.111111111111
-0.335,-0.17,7313.888888888889
-0.335,-0.17,7316.666666666667
-0.34,-0.18,7319.444444444444
-0.335,-0.165,7322.222222222223
-0.33,-0.155,7325.0
-0.32,-0.165,7327.777777777777
-0.315,-0.195,7330.555555555556
-0.34,-0.19,7333.333333333333
-0.34,-0.2,7336.111111111111
-0.315,-0.175,7338.888888888889
-0.315,-0.175,7341.666666666667
-0.335,-0.185,7344.444444444444
-0.345,-0.21,7347.222222222223
-0.35,-0.2,7350.0
-0.35,-0.195,7352.777777777777
-0.335,-0.18,7355.555555555556
-0.335,-0.17,7358.333333333333
-0.33,-0.165,7361.111111111111
-0.345,-0.18,7363.888888888889
-0.355,-0.17,7366.666666666667
-0.355,-0.15,7369.444444444444
-0.365,-0.145,7372.222222222223
-0.335,-0.14,7375.0
-0.205,-0.14,7377.777777777777
0.015,-0.15,7380.555555555556
0.32,-0.135,7383.333333333333
0.695,-0.12,7386.111111111111
1.075,-0.125,7388.888888888889
1.325,-0.145,7391.666666666667
1.305,-0.2,7394.444444444444
1.045,-0.235,7397.222222222223
0.69,-0.255,7400.0
0.36,-0.225,7402.777777777777
0.105,-0.19,7405.555555555556
-0.02,-0.16,7408.333333333333
-0.055,-0.15,7411.111111111111
-0.095,-0.165,7413.888888888889
-0.145,-0.17,7416.666666666667
-0.185,-0.16,7419.444444444444
-0.205,-0.155,7422.222222222223
-0.21,-0.15,7425.0
-0.235,-0.16,7427.777777777777
-0.27,-0.17,7430.555555555556
-0.285,-0.175,7433.333333333333
-0.29,-0.145,7436.111111111111
-0.3,-0.15,7438.888888888889
-0.305,-0.155,7441.666666666667
-0.32,-0.18,7444.444444444444
-0.315,-0.2,7447.222222222223
-0.305,-0.195,7450.0
-0.31,-0.19,7452.777777777777
-0.36,-0.175,7455.555555555556
-0.425,-0.185,7458.333333333333
-0.47,-0.195,7461.111111111111
-0.495,-0.2,7463.888888888889
-0.495,-0.195,7466.666666666667
-0.475,-0.185,7469.444444444444
-0.455,-0.175,7472.222222222223
-0.45,-0.17,7475.0
-0.45,-0.17,7477.777777777777
-0.455,-0.18,7480.555555555556
-0.45,-0.165,7483.333333333333
-0.445,-0.155,7486.111111111111
-0.425,-0.135,7488.888888888889
-0.42,-0.13,7491.666666666667
-0.42,-0.14,7494.444444444444
-0.42,-0.145,7497.222222222223
-0.42,-0.145,7500.0
-0.415,-0.125,7502.777777777777
-0.415,-0.13,7505.555555555556
-0.405,-0.13,7508.333333333333
-0.415,-0.15,7511.111111111111
-0.435,-0.155,7513.888888888889
-0.435,-0.14,7516.666666666667
-0.41,-0.125,7519.444444444444
-0.4,-0.125,7522.222222222223
-0.41,-0.13,7525.0
-0.41,-0.155,7527.777777777777
-0.42,-0.17,7530.555555555556
-0.415,-0.155,7533.333333333333
-0.41,-0.14,7536.111111111111
-0.415,-0.135,7538.888888888889
-0.415,-0.145,7541.666666666667
-0.42,-0.16,7544.444444444444
-0.42,-0.17,7547.222222222223
-0.435,-0.16,7550.0
-0.435,-0.145,7552.777777777777
-0.43,-0.14,7555.555555555556
-0.44,-0.15,7558.333333333333
-0.435,-0.175,7561.111111111111
-0.43,-0.18,7563.888888888889
-0.43,-0.17,7566.666666666667
-0.42,-0.16,7569.444444444444
-0.405,-0.165,7572.222222222223
-0.4,-0.165,7575.0
-0.42,-0.195,7577.777777777777
-0.435,-0.2,7580.555555555556
-0.445,-0.185,7583.333333333333
-0.415,-0.17,7586.111111111111
-0.405,-0.165,7588.888888888889
-0.41,-0.18,7591.666666666667
-0.415,-0.185,7594.444444444444
-0.42,-0.2,7597.222222222223
-0.435,-0.18,7600.0
-0.41,-0.155,7602.777777777777
-0.4,-0.155,7605.555555555556
-0.39,-0.16,7608.333333333333
-0.39,-0.165,7611.111111111111
-0.405,-0.175,7613.888888888889
-0.395,-0.155,7616.666666666667
-0.37,-0.13,7619.444444444444
-0.365,-0.12,7622.222222222223
-0.36,-0.125,7625.0
-0.36,-0.135,7627.777777777777
-0.36,-0.14,7630.555555555556
-0.33,-0.14,7633.333333333333
-0.32,-0.115,7636.111111111111
-0.315,-0.115,7638.888888888889
-0.325,-0.12,7641.666666666667
-0.33,-0.14,7644.444444444444
-0.32,-0.15,7647.222222222223
-0.32,-0.15,7650.0
-0.28,-0.14,7652.777777777777
-0.25,-0.14,7655.555555555556
-0.235,-0.13,7658.333333333333
-0.21,-0.15,7661.111111111111
-0.21,-0.17,7663.888888888889
-0.225,-0.165,7666.666666666667
-0.19,-0.155,7669.444444444444
-0.165,-0.155,7672.222222222223
-0.17,-0.155,7675.0
-0.18,-0.175,7677.777777777777
-0.195,-0.18,7680.555555555556
-0.21,-0.165,7683.333333333333
-0.2,-0.145,7686.111111111111
-0.175,-0.16,7688.888888888889
-0.16,-0.19,7691.666666666667
-0.175,-0.195,7694.444444444444
-0.175,-0.215,7697.222222222223
-0.18,-0.19,7700.0
-0.17,-0.18,7702.777777777777
-0.165,-0.18,7705.555555555556
-0.16,-0.18,7708.333333333333
-0.175,-0.195,7711.111111111111
-0.19,-0.195,7713.888888888889
-0.195,-0.185,7716.666666666667
-0.19,-0.175,7719.444444444444
-0.22,-0.165,7722.222222222223
-0.255,-0.17,7725.0
-0.3,-0.17,7727.777777777777
-0.34,-0.165,7730.555555555556
-0.335,-0.14,7733.333333333333
-0.32,-0.125,7736.111111111111
-0.315,-0.125,7738.888888888889
-0.335,-0.14,7741.666666666667
-0.345,-0.14,7744.444444444444
-0.35,-0.15,7747.222222222223
-0.35,-0.13,7750.0
-0.36,-0.11,7752.777777777777
-0.365,-0.115,7755.555555555556
-0.365,-0.11,7758.333333333333
-0.365,-0.125,7761.111111111111
-0.355,-0.14,7763.888888888889
-0.37,-0.135,7766.666666666667
-0.37,-0.115,7769.444444444444
-0.365,-0.12,7772.222222222223
-0.365,-0.14,7775.0
-0.375,-0.16,7777.777777777777
-0.385,-0.155,7780.555555555556
-0.385,-0.14,7783.333333333333
-0.37,-0.135,7786.111111111111
-0.38,-0.13,7788.888888888889
-0.39,-0.15,7791.666666666667
-0.405,-0.165,7794.444444444444
-0.4,-0.16,7797.222222222223
-0.405,-0.135,7800.0
-0.405,-0.14,7802.777777777777
-0.385,-0.145,7805.555555555556
-0.375,-0.165,7808.333333333333
-0.385,-0.18,7811.111111111111
-0.395,-0.185,7813.888888888889
-0.415,-0.175,7816.666666666667
-0.395,-0.175,7819.444444444444
-0.375,-0.175,7822.222222222223
-0.365,-0.165,7825.0
-0.37,-0.17,7827.777777777777
-0.395,-0.175,7830.555555555556
-0.39,-0.17,7833.333333333333
-0.395,-0.16,7836.111111111111
-0.38,-0.16,7838.888888888889
-0.375,-0.155,7841.666666666667
-0.37,-0.155,7844.444444444444
-0.39,-0.145,7847.222222222223
-0.405,-0.135,7850.0
-0.385,-0.115,7852.777777777777
-0.37,-0.115,7855.555555555556
-0.36,-0.12,7858.333333333333
-0.36,-0.115,7861.111111111111
-0.37,-0.115,7863.888888888889
-0.375,-0.125,7866.666666666667
-0.385,-0.11,7869.444444444444
-0.365,-0.11,7872.222222222223
-0.36,-0.105,7875.0
-0.36,-0.115,7877.777777777777
-0.355,-0.12,7880.555555555556
-0.355,-0.125,7883.333333333333
-0.345,-0.125,7886.111111111111
-0.345,-0.13,7888.888888888889
-0.34,-0.14,7891.666666666667
-0.34,-0.14,7894.444444444444
-0.355,-0.14,7897.222222222223
-0.37,-0.14,7900.0
-0.36,-0.135,7902.777777777777
-0.355,-0.14,7905.555555555556
-0.35,-0.12,7908.333333333333
-0.335,-0.135,7911.111111111111
-0.34,-0.14,7913.888888888889
-0.335,-0.155,7916.666666666667
-0.335,-0.145,7919.444444444444
-0.34,-0.145,7922.222222222223
-0.34,-0.14,7925.0
-0.365,-0.145,7927.777777777777
-0.35,-0.175,7930.555555555556
-0.335,-0.18,7933.333333333333
-0.335,-0.17,7936.111111111111
-0.325,-0.155,7938.888888888889
-0.34,-0.155,7941.666666666667
-0.355,-0.155,7944.444444444444
-0.375,-0.165,7947.222222222223
-0.375,-0.175,7950.0
-0.345,-0.17,7952.777777777777
-0.325,-0.14,7955.555555555556
-0.325,-0.14,7958.333333333333
-0.34,-0.15,7961.111111111111
-0.365,-0.145,7963.888888888889
-0.37,-0.14,7966.666666666667
-0.375,-0.125,7969.444444444444
-0.355,-0.115,7972.222222222223
-0.365,-0.1,7975.0
-0.37,-0.105,7977.777777777777
-0.395,-0.13,7980.555555555556
-0.385,-0.135,7983.333333333333
-0.36,-0.11,7986.111111111111
-0.345,-0.11,7988.888888888889
-0.325,-0.1,7991.666666666667
-0.315,-0.11,7994.444444444444
-0.31,-0.125,7997.222222222223
-0.305,-0.115,8000.0
-0.255,-0.115,8002.777777777777
-0.21,-0.1,8005.555555555556
-0.23,-0.105,8008.333333333333
-0.29,-0.115,8011.111111111111
-0.36,-0.15,8013.888888888889
-0.405,-0.15,8016.666666666667
-0.44,-0.145,8019.444444444444
-0.455,-0.13,8022.222222222223
-0.44,-0.14,8025.0
-0.42,-0.145,8027.777777777777
-0.4,-0.145,8030.555555555556
-0.385,-0.15,8033.333333333333
-0.36,-0.125,8036.111111111111
-0.33,-0.125,8038.888888888889
-0.295,-0.135,8041.666666666667
-0.3,-0.16,8044.444444444444
-0.345,-0.17,8047.222222222223
-0.4,-0.17,8050.0
-0.41,-0.165,8052.777777777777
-0.38,-0.16,8055.555555555556
-0.365,-0.165,8058.333333333333
-0.37,-0.185,8061.111111111111
-0.375,-0.175,8063.888888888889
-0.38,-0.16,8066.666666666667
-0.35,-0.14,8069.444444444444
-0.34,-0.14,8072.222222222223
-0.34,-0.14,8075.0
-0.33,-0.14,8077.777777777777
-0.33,-0.14,8080.555555555556
-0.33,-0.13,8083.333333333333
-0.32,-0.11,8086.111111111111
-0.32,-0.1,8088.888888888889
-0.325,-0.115,8091.666666666667
-0.34,-0.125,8094.444444444444
-0.34,-0.125,8097.222222222223
-0.315,-0.105,8100.0
-0.295,-0.095,8102.777777777777
-0.25,-0.095,8105.555555555556
-0.205,-0.095,8108.333333333333
-0.175,-0.115,8111.111111111111
-0.195,-0.115,8113.888888888889
-0.215,-0.11,8116.666666666667
-0.215,-0.12,8119.444444444444
-0.215,-0.115,8122.222222222223
-0.215,-0.14,8125.0
-0.22,-0.14,8127.777777777777
-0.235,-0.145,8130.555555555556
-0.25,-0.135,8133.333333333333
-0.25,-0.135,8136.111111111111
-0.25,-0.135,8138.888888888889
-0.245,-0.145,8141.666666666667
-0.25,-0.145,8144.444444444444
-0.265,-0.15,8147.222222222223
-0.285,-0.135,8150.0
-0.295,-0.15,8152.777777777777
-0.305,-0.155,8155.555555555556
-0.31,-0.165,8158.333333333333
-0.345,-0.165,8161.111111111111
-0.37,-0.175,8163.888888888889
-0.375,-0.16,8166.666666666667
-0.365,-0.17,8169.444444444444
-0.355,-0.16,8172.222222222223
-0.35,-0.16,8175.0
-0.35,-0.155,8177.777777777777
-0.36,-0.165,8180.555555555556
-0.38,-0.17,8183.333333333333
-0.37,-0.17,8186.111111111111
-0.36,-0.155,8188.888888888889
-0.36,-0.14,8191.666666666667
-0.365,-0.13,8194.444444444445
-0.375,-0.145,8197.222222222223
-0.39,-0.145,8200.0
-0.39,-0.135,8202.777777777777
-0.365,-0.12,8205.555555555555
-0.355,-0.105,8208.333333333334
-0.36,-0.125,8211.111111111111
-0.38,-0.14,8213.888888888889
-0.38,-0.12,8216.666666666666
-0.38,-0.11,8219.444444444445
-0.385,-0.11,8222.222222222223
-0.395,-0.115,8225.0
-0.41,-0.115,8227.777777777777
-0.445,-0.135,8230.555555555555
-0.44,-0.145,8233.333333333334
-0.365,-0.135,8236.111111111111
-0.175,-0.125,8238.888888888889
0.08,-0.125,8241.666666666666
0.35,-0.125,8244.444444444445
0.655,-0.145,8247.222222222223
0.975,-0.17,8250.0
1.21,-0.19,8252.777777777777
1.22,-0.21,8255.555555555555
0.995,-0.235,8258.333333333334
0.67,-0.26,8261.111111111111
0.335,-0.27,8263.888888888889
0.045,-0.24,8266.666666666666
-0.105,-0.185,8269.444444444445
-0.125,-0.145,8272.222222222223
-0.165,-0.14,8275.0
-0.22,-0.145,8277.777777777777
-0.24,-0.175,8280.555555555555
-0.27,-0.185,8283.333333333334
-0.295,-0.175,8286.111111111111
-0.33,-0.155,8288.888888888889
-0.36,-0.145,8291.666666666666
-0.385,-0.175,8294.444444444445
-0.4,-0.18,8297.222222222223
-0.405,-0.175,8300.0
-0.405,-0.17,8302.777777777777
-0.41,-0.145,8305.555555555555
-0.425,-0.155,8308.333333333334
-0.45,-0.145,8311.111111111111
-0.48,-0.16,8313.888888888889
-0.485,-0.155,8316.666666666666
-0.465,-0.135,8319.444444444445
-0.45,-0.115,8322.222222222223
-0.445,-0.125,8325.0
-0.435,-0.125,8327.777777777777
-0.435,-0.135,8330.555555555555
-0.445,-0.135,8333.333333333334
-0.44,-0.125,8336.111111111111
-0.44,-0.115,8338.888888888889
-0.46,-0.105,8341.666666666666
-0.465,-0.115,8344.444444444445
-0.475,-0.125,8347.222222222223
-0.475,-0.13,8350.0
-0.47,-0.145,8352.777777777777
-0.45,-0.14,8355.555555555555
-0.45,-0.12,8358.333333333334
-0.45,-0.135,8361.111111111111
-0.45,-0.155,8363.888888888889
-0.45,-0.155,8366.666666666666
-0.435,-0.14,8369.444444444445
-0.43,-0.145,8372.222222222223
-0.445,-0.13,8375.0
-0.455,-0.145,8377.777777777777
-0.465,-0.15,8380.555555555555
-0.475,-0.155,8383.333333333334
-0.465,-0.145,8386.111111111111
-0.455,-0.145,8388.888888888889
-0.46,-0.125,8391.666666666666
-0.455,-0.135,8394.444444444445
-0.475,-0.155,8397.222222222223
-0.475,-0.16,8400.0
-0.47,-0.175,8402.777777777777
-0.45,-0.16,8405.555555555555
-0.435,-0.155,8408.333333333334
-0.44,-0.175,8411.111111111111
-0.44,-0.175,8413.888888888889
-0.455,-0.17,8416.666666666666
-0.45,-0.17,8419.444444444445
-0.44,-0.165,8422.222222222223
-0.415,-0.175,8425.0
-0.43,-0.18,8427.777777777777
-0.44,-0.175,8430.555555555555
-0.445,-0.16,8433.333333333334
-0.435,-0.165,8436.111111111111
-0.425,-0.15,8438.888888888889
-0.42,-0.14,8441.666666666666
-0.415,-0.135,8444.444444444445
-0.425,-0.135,8447.222222222223
-0.425,-0.14,8450.0
-0.42,-0.135,8452.777777777777
-0.41,-0.13,8455.555555555555
-0.405,-0.12,8458.333333333334
-0.405,-0.12,8461.111111111111
-0.405,-0.13,8463.888888888889
-0.405,-0.135,8466.666666666666
-0.395,-0.125,8469.444444444445
-0.38,-0.115,8472.222222222223
-0.37,-0.11,8475.0
-0.36,-0.115,8477.777777777777
-0.37,-0.135,8480.555555555555
-0.37,-0.13,8483.333333333334
-0.355,-0.13,8486.111111111111
-0.33,-0.13,8488.888888888889
-0.315,-0.135,8491.666666666666
-0.32,-0.145,8494.444444444445
-0.32,-0.14,8497.222222222223
-0.325,-0.145,8500.0
-0.31,-0.135,8502.777777777777
-0.295,-0.15,8505.555555555555
-0.29,-0.145,8508.333333333334
-0.285,-0.155,8511.111111111111
-0.285,-0.15,8513.888888888889
-0.29,-0.14,8516.666666666666
-0.275,-0.135,8519.444444444445
-0.255,-0.16,8522.222222222223
-0.24,-0.155,8525.0
-0.22,-0.17,8527.777777777777
-0.215,-0.185,8530.555555555555
-0.215,-0.16,8533.333333333334
-0.19,-0.17,8536.111111111111
-0.175,-0.175,8538.888888888889
-0.175,-0.18,8541.666666666666
-0.195,-0.185,8544.444444444445
-0.2,-0.19,8547.222222222223
-0.195,-0.185,8550.0
-0.155,-0.17,8552.777777777777
-0.13,-0.17,8555.555555555555
-0.12,-0.16,8558.333333333334
-0.11,-0.18,8561.111111111111
-0.11,-0.165,8563.888888888889
-0.11,-0.16,8566.666666666666
-0.105,-0.14,8569.444444444445
-0.125,-0.14,8572.222222222223
-0.145,-0.14,8575.0
-0.16,-0.145,8577.777777777777
-0.18,-0.14,8580.555555555555
-0.185,-0.125,8583.333333333334
-0.185,-0.12,8586.111111111111
-0.175,-0.105,8588.888888888889
-0.165,-0.13,8591.666666666666
-0.17,-0.135,8594.444444444445
-0.205,-0.135,8597.222222222223
-0.245,-0.115,8600.0
-0.26,-0.115,8602.777777777777
-0.27,-0.12,8605.555555555555
-0.27,-0.13,8608.333333333334
-0.28,-0.14,8611.111111111111
-0.285,-0.135,8613.888888888889
-0.3,-0.135,8616.666666666666
-0.295,-0.125,8619.444444444445
-0.3,-0.125,8622.222222222223
-0.3,-0.13,8625.0
-0.315,-0.135,8627.777777777777
-0.32,-0.15,8630.555555555555
-0.33,-0.135,8633.333333333334
-0.305,-0.115,8636.111111111111
-0.3,-0.11,8638.888888888889
-0.32,-0.13,8641.666666666666
-0.32,-0.14,8644.444444444445
-0.315,-0.16,8647.222222222223
-0.33,-0.14,8650.0
-0.32,-0.13,8652.777777777777
-0.31,-0.135,8655.555555555555
-0.32,-0.16,8658.333333333334
-0.33,-0.16,8661.111111111111
-0.34,-0.175,8663.888888888889
-0.335,-0.165,8666.666666666666
-0.33,-0.15,8669.444444444445
-0.315,-0.14,8672.222222222223
-0.31,-0.155,8675.0
-0.31,-0.165,8677.777777777777
-0.33,-0.16,8680.555555555555
-0.335,-0.145,8683.333333333334
-0.325,-0.12,8686.111111111111
-0.32,-0.12,8688.888888888889
-0.305,-0.125,8691.666666666666
-0.33,-0.125,8694.444444444445
-0.33,-0.12,8697.222222222223
-0.33,-0.105,8700.0
-0.315,-0.095,8702.777777777777
-0.295,-0.085,8705.555555555555
-0.29,-0.105,8708.333333333334
-0.3,-0.115,8711.111111111111
-0.3,-0.125,8713.888888888889
-0.325,-0.1,8716.666666666666
-0.3,-0.09,8719.444444444445
-0.295,-0.095,8722.222222222223
-0.285,-0.1,8725.0
-0.3,-0.12,8727.777777777777
-0.305,-0.125,8730.555555555555
-0.295,-0.11,8733.333333333334
-0.295,-0.105,8736.111111111111
-0.28,-0.11,8738.888888888889
-0.265,-0.115,8741.666666666666
-0.275,-0.13,8744.444444444445
-0.3,-0.13,8747.222222222223
-0.305,-0.115,8750.0
-0.315,-0.11,8752.777777777777
-0.315,-0.095,8755.555555555555
-0.3,-0.12,8758.333333333334
-0.31,-0.135,8761.111111111111
-0.305,-0.145,8763.888888888889
-0.29,-0.14,8766.666666666666
-0.28,-0.12,8769.444444444445
-0.265,-0.12,8772.222222222223
-0.295,-0.13,8775.0
-0.285,-0.16,8777.777777777777
-0.31,-0.17,8780.555555555555
-0.29,-0.17,8783.333333333334
-0.275,-0.145,8786.111111111111
-0.27,-0.13,8788.888888888889
-0.275,-0.145,8791.666666666666
-0.27,-0.15,8794.444444444445
-0.28,-0.165,8797.222222222223
-0.31,-0.16,8800.0
-0.3,-0.145,8802.777777777777
-0.29,-0.125,8805.555555555555
-0.295,-0.13,8808.333333333334
-0.28,-0.14,8811.111111111111
-0.29,-0.145,8813.888888888889
-0.295,-0.14,8816.666666666666
-0.28,-0.105,8819.444444444445
-0.265,-0.085,8822.222222222223
-0.27,-0.09,8825.0
-0.295,-0.1,8827.777777777777
-0.305,-0.11,8830.555555555555
-0.31,-0.115,8833.333333333334
-0.305,-0.1,8836.111111111111
-0.28,-0.08,8838.888888888889
-0.285,-0.08,8841.666666666666
-0.29,-0.1,8844.444444444445
-0.295,-0.11,8847.222222222223
-0.3,-0.115,8850.0
-0.295,-0.08,8852.777777777777
-0.29,-0.095,8855.555555555555
-0.28,-0.105,8858.333333333334
-0.27,-0.12,8861.111111111111
-0.28,-0.125,8863.888888888889
-0.285,-0.13,8866.666666666666
-0.28,-0.12,8869.444444444445
-0.27,-0.105,8872.222222222223
-0.285,-0.11,8875.0
-0.295,-0.115,8877.777777777777
-0.295,-0.125,8880.555555555555
-0.3,-0.14,8883.333333333334
-0.295,-0.115,8886.111111111111
-0.285,-0.1,8888.888888888889
-0.28,-0.11,8891.666666666666
-0.285,-0.13,8894.444444444445
-0.29,-0.15,8897.222222222223
-0.29,-0.16,8900.0
-0.275,-0.15,8902.777777777777
-0.275,-0.13,8905.555555555555
-0.27,-0.13,8908.333333333334
-0.295,-0.14,8911.111111111111
-0.32,-0.165,8913.888888888889
-0.33,-0.15,8916.666666666666
-0.315,-0.145,8919.444444444445
-0.31,-0.125,8922.222222222223
-0.3,-0.13,8925.0
-0.305,-0.14,8927.777777777777
-0.305,-0.155,8930.555555555555
-0.305,-0.155,8933.333333333334
-0.3,-0.13,8936.111111111111
-0.28,-0.105,8938.888888888889
-0.28,-0.1,8941.666666666666
-0.29,-0.105,8944.444444444445
-0.295,-0.115,8947.222222222223
-0.31,-0.115,8950.0
-0.29,-0.1,8952.777777777777
-0.29,-0.085,8955.555555555555
-0.275,-0.085,8958.333333333334
-0.27,-0.09,8961.111111111111
-0.275,-0.105,8963.888888888889
-0.285,-0.115,8966.666666666666
-0.28,-0.09,8969.444444444445
-0.27,-0.085,8972.222222222223
-0.265,-0.085,8975.0
-0.27,-0.1,8977.777777777777
-0.28,-0.125,8980.555555555555
-0.275,-0.12,8983.333333333334
-0.25,-0.11,8986.111111111111
-0.245,-0.09,8988.888888888889
-0.26,-0.105,8991.666666666666
-0.265,-0.11,8994.444444444445
-0.265,-0.12,8997.222222222223
-0.25,-0.135,9000.0
-0.21,-0.12,9002.777777777777
-0.175,-0.105,9005.555555555555
-0.145,-0.095,9008.333333333334
-0.12,-0.105,9011.111111111111
-0.105,-0.115,9013.888888888889
-0.115,-0.125,9016.666666666666
-0.115,-0.125,9019.444444444445
-0.13,-0.115,9022.222222222223
-0.12,-0.12,9025.0
-0.135,-0.15,9027.777777777777
-0.135,-0.15,9030.555555555555
-0.165,-0.16,9033.333333333334
-0.165,-0.15,9036.111111111111
-0.18,-0.135,9038.888888888889
-0.185,-0.14,9041.666666666666
-0.205,-0.14,9044.444444444445
-0.195,-0.15,9047.222222222223
-0.21,-0.16,9050.0
-0.205,-0.16,9052.777777777777
-0.21,-0.135,9055.555555555555
-0.225,-0.125,9058.333333333334
-0.24,-0.13,9061.111111111111
-0.27,-0.125,9063.888888888889
-0.29,-0.13,9066.666666666666
-0.3,-0.12,9069.444444444445
-0.305,-0.11,9072.222222222223
-0.305,-0.105,9075.0
-0.32,-0.095,9077.777777777777
-0.325,-0.09,9080.555555555555
-0.335,-0.11,9083.333333333334
-0.315,-0.1,9086.111111111111
-0.31,-0.1,9088.888888888889
-0.315,-0.1,9091.666666666666
-0.32,-0.09,9094.444444444445
-0.32,-0.095,9097.222222222223
-0.34,-0.105,9100.0
-0.315,-0.1,9102.777777777777
-0.31,-0.105,9105.555555555555
-0.31,-0.11,9108.333333333334
-0.325,-0.115,9111.111111111111
-0.325,-0.125,9113.888888888889
-0.335,-0.11,9116.666666666666
-0.325,-0.125,9119.444444444445
-0.3,-0.115,9122.222222222223
-0.3,-0.125,9125.0
-0.315,-0.115,9127.777777777777
-0.335,-0.115,9130.555555555555
-0.335,-0.125,9133.333333333334
-0.34,-0.115,9136.111111111111
-0.355,-0.115,9138.888888888889
-0.38,-0.11,9141.666666666666
-0.385,-0.11,9144.444444444445
-0.37,-0.12,9147.222222222223
-0.3,-0.135,9150.0
-0.13,-0.13,9152.777777777777
0.07,-0.12,9155.555555555555
0.29,-0.13,9158.333333333334
0.545,-0.15,9161.111111111111
0.83,-0.16,9163.888888888889
1.06,-0.18,9166.666666666666
1.145,-0.22,9169.444444444445
1.015,-0.255,9172.222222222223
0.735,-0.285,9175.0
0.425,-0.275,9177.777777777777
0.165,-0.26,9180.555555555555
-0.04,-0.22,9183.333333333334
-0.145,-0.155,9186.111111111111
-0.155,-0.125,9188.888888888889
-0.17,-0.125,9191.666666666666
-0.185,-0.12,9194.444444444445
-0.21,-0.12,9197.222222222223
-0.245,-0.105,9200.0
-0.28,-0.095,9202.777777777777
-0.29,-0.085,9205.555555555555
-0.315,-0.105,9208.333333333334
-0.345,-0.1,9211.111111111111
-0.37,-0.11,9213.888888888889
-0.395,-0.105,9216.666666666666
-0.435,-0.085,9219.444444444445
-0.43,-0.08,9222.222222222223
-0.43,-0.09,9225.0
-0.42,-0.1,9227.777777777777
-0.42,-0.1,9230.555555555555
-0.445,-0.105,9233.333333333334
-0.44,-0.09,9236.111111111111
-0.435,-0.1,9238.888888888889
-0.425,-0.12,9241.666666666666
-0.43,-0.13,9244.444444444445
-0.44,-0.14,9247.222222222223
-0.44,-0.13,9250.0
-0.43,-0.11,9252.777777777777
-0.43,-0.09,9255.555555555555
-0.435,-0.115,9258.333333333334
-0.44,-0.13,9261.111111111111
-0.455,-0.135,9263.888888888889
-0.455,-0.125,9266.666666666666
-0.445,-0.105,9269.444444444445
-0.435,-0.11,9272.222222222223
-0.425,-0.115,9275.0
-0.42,-0.13,9277.777777777777
-0.42,-0.145,9280.555555555555
-0.43,-0.14,9283.333333333334
-0.44,-0.125,9286.111111111111
-0.415,-0.11,9288.888888888889
-0.415,-0.13,9291.666666666666
-0.43,-0.135,9294.444444444445
-0.435,-0.145,9297.222222222223
-0.44,-0.14,9300.0
-0.435,-0.135,9302.777777777777
-0.43,-0.125,9305.555555555555
-0.415,-0.135,9308.333333333334
-0.42,-0.145,9311.111111111111
-0.42,-0.155,9313.888888888889
-0.43,-0.155,9316.666666666666
-0.42,-0.13,9319.444444444445
-0.41,-0.105,9322.222222222223
-0.405,-0.095,9325.0
-0.41,-0.105,9327.777777777777
-0.41,-0.115,9330.555555555555
-0.425,-0.12,9333.333333333334
-0.41,-0.105,9336.111111111111
-0.39,-0.07,9338.888888888889
-0.38,-0.08,9341.666666666666
-0.385,-0.09,9344.444444444445
-0.405,-0.115,9347.222222222223
-0.415,-0.105,9350.0
-0.415,-0.095,9352.777777777777
-0.41,-0.075,9355.555555555555
-0.405,-0.08,9358.333333333334
-0.4,-0.09,9361.111111111111
-0.41,-0.11,9363.888888888889
-0.42,-0.125,9366.666666666666
-0.41,-0.115,9369.444444444445
-0.41,-0.1,9372.222222222223
-0.395,-0.105,9375.0
-0.395,-0.115,9377.777777777777
-0.405,-0.125,9380.555555555555
-0.4,-0.13,9383.333333333334
-0.39,-0.12,9386.111111111111
-0.38,-0.11,9388.888888888889
-0.375,-0.115,9391.666666666666
-0.375,-0.115,9394.444444444445
-0.38,-0.115,9397.222222222223
-0.375,-0.125,9400.0
-0.37,-0.125,9402.777777777777
-0.365,-0.12,9405.555555555555
-0.355,-0.135,9408.333333333334
-0.35,-0.14,9411.111111111111
-0.35,-0.145,9413.888888888889
-0.355,-0.16,9416.666666666666
-0.35,-0.155,9419.444444444445
-0.335,-0.155,9422.222222222223
-0.315,-0.14,9425.0
-0.305,-0.145,9427.777777777777
-0.3,-0.15,9430.555555555555
-0.3,-0.155,9433.333333333334
-0.28,-0.15,9436.111111111111
-0.265,-0.15,9438.888888888889
-0.255,-0.15,9441.666666666666
-0.265,-0.145,9444.444444444445
-0.26,-0.14,9447.222222222223
-0.265,-0.135,9450.0
-0.27,-0.135,9452.777777777777
-0.245,-0.115,9455.555555555555
-0.225,-0.125,9458.333333333334
-0.235,-0.125,9461.111111111111
-0.215,-0.115,9463.888888888889
-0.215,-0.105,9466.666666666666
-0.205,-0.11,9469.444444444445
-0.19,-0.105,9472.222222222223
-0.175,-0.11,9475.0
-0.175,-0.11,9477.777777777777
-0.18,-0.12,9480.555555555555
-0.175,-0.105,9483.333333333334
-0.17,-0.11,9486.111111111111
-0.15,-0.115,9488.888888888889
-0.14,-0.12,9491.666666666666
-0.145,-0.125,9494.444444444445
-0.15,-0.14,9497.222222222223
-0.16,-0.135,9500.0
-0.15,-0.125,9502.777777777777
-0.17,-0.125,9505.555555555555
-0.17,-0.145,9508.333333333334
-0.175,-0.145,9511.111111111111
-0.21,-0.145,9513.888888888889
-0.24,-0.125,9516.666666666666
-0.25,-0.115,9519.444444444445
-0.25,-0.11,9522.222222222223
-0.24,-0.115,9525.0
-0.245,-0.13,9527.777777777777
-0.25,-0.13,9530.555555555555
-0.275,-0.13,9533.333333333334
-0.26,-0.12,9536.111111111111
-0.275,-0.125,9538.888888888889
-0.29,-0.135,9541.666666666666
-0.305,-0.15,9544.444444444445
-0.315,-0.145,9547.222222222223
-0.33,-0.15,9550.0
-0.32,-0.125,9552.777777777777
-0.33,-0.12,9555.555555555555
-0.325,-0.145,9558.333333333334
-0.305,-0.16,9561.111111111111
-0.315,-0.155,9563.888888888889
-0.325,-0.15,9566.666666666666
-0.325,-0.135,9569.444444444445
-0.325,-0.125,9572.222222222223
-0.33,-0.13,9575.0
-0.32,-0.13,9577.777777777777
-0.34,-0.14,9580.555555555555
-0.365,-0.135,9583.333333333334
-0.35,-0.11,9586.111111111111
-0.355,-0.08,9588.888888888889
-0.355,-0.085,9591.666666666666
-0.35,-0.095,9594.444444444445
-0.355,-0.11,9597.222222222223
-0.36,-0.115,9600.0
-0.355,-0.095,9602.777777777777
-0.325,-0.07,9605.555555555555
-0.305,-0.08,9608.333333333334
-0.32,-0.09,9611.111111111111
-0.325,-0.095,9613.888888888889
-0.34,-0.09,9616.666666666666
-0.34,-0.1,9619.444444444445
-0.335,-0.08,9622.222222222223
-0.32,-0.075,9625.0
-0.33,-0.085,9627.777777777777
-0.345,-0.105,9630.555555555555
-0.345,-0.11,9633.333333333334
-0.33,-0.11,9636.111111111111
-0.31,-0.1,9638.888888888889
-0.315,-0.09,9641.666666666666
-0.325,-0.105,9644.444444444445
-0.335,-0.1,9647.222222222223
-0.345,-0.115,9650.0
-0.335,-0.1,9652.777777777777
-0.32,-0.1,9655.555555555555
-0.325,-0.1,9658.333333333334
-0.335,-0.1,9661.111111111111
-0.345,-0.125,9663.888888888889
-0.35,-0.12,9666.666666666666
-0.335,-0.13,9669.444444444445
-0.335,-0.12,9672.222222222223
-0.315,-0.13,9675.0
-0.32,-0.115,9677.777777777777
-0.315,-0.13,9680.555555555555
-0.325,-0.145,9683.333333333334
-0.31,-0.135,9686.111111111111
-0.31,-0.125,9688.888888888889
-0.305,-0.14,9691.666666666666
-0.305,-0.135,9694.444444444445
-0.31,-0.135,9697.222222222223
-0.33,-0.13,9700.0
-0.325,-0.125,9702.777777777777
-0.315,-0.115,9705.555555555555
-0.295,-0.12,9708.333333333334
-0.295,-0.11,9711.111111111111
-0.3,-0.105,9713.888888888889
-0.31,-0.11,9716.666666666666
-0.295,-0.1,9719.444444444445
-0.29,-0.08,9722.222222222223
-0.29,-0.08,9725.0
-0.315,-0.085,9727.777777777777
-0.315,-0.085,9730.555555555555
-0.31,-0.09,9733.333333333334
-0.28,-0.09,9736.111111111111
-0.28,-0.075,9738.888888888889
-0.28,-0.08,9741.666666666666
-0.305,-0.08,9744.444444444445
-0.31,-0.08,9747.222222222223
-0.325,-0.075,9750.0
-0.335,-0.095,9752.777777777777
-0.335,-0.09,9755.555555555555
-0.315,-0.1,9758.333333333334
-0.32,-0.1,9761.111111111111
-0.315,-0.115,9763.888888888889
-0.32,-0.105,9766.666666666666
-0.295,-0.105,9769.444444444445
-0.285,-0.095,9772.222222222223
-0.285,-0.115,9775.0
-0.29,-0.105,9777.777777777777
-0.305,-0.105,9780.555555555555
-0.31,-0.12,9783.333333333334
-0.31,-0.1,9786.111111111111
-0.295,-0.11,9788.888888888889
-0.305,-0.125,9791.666666666666
-0.31,-0.125,9794.444444444445
-0.32,-0.125,9797.222222222223
-0.32,-0.135,9800.0
-0.325,-0.125,9802.777777777777
-0.32,-0.135,9805.555555555555
-0.325,-0.135,9808.333333333334
-0.315,-0.15,9811.111111111111
-0.31,-0.145,9813.888888888889
-0.31,-0.145,9816.666666666666
-0.33,-0.135,9819.444444444445
-0.315,-0.125,9822.222222222223
-0.33,-0.135,9825.0
-0.315,-0.13,9827.777777777777
-0.33,-0.13,9830.555555555555
-0.325,-0.115,9833.333333333334
-0.32,-0.12,9836.111111111111
-0.305,-0.1,9838.888888888889
-0.315,-0.105,9841.666666666666
-0.315,-0.1,9844.444444444445
-0.315,-0.09,9847.222222222223
-0.335,-0.1,9850.0
-0.325,-0.09,9852.777777777777
-0.325,-0.085,9855.555555555555
-0.32,-0.09,9858.333333333334
-0.31,-0.09,9861.111111111111
-0.315,-0.08,9863.888888888889
-0.32,-0.09,9866.666666666666
-0.32,-0.085,9869.444444444445
-0.31,-0.09,9872.222222222223
-0.3,-0.1,9875.0
-0.295,-0.105,9877.777777777777
-0.32,-0.1,9880.555555555555
-0.335,-0.105,9883.333333333334
-0.305,-0.1,9886.111111111111
-0.275,-0.1,9888.888888888889
-0.27,-0.105,9891.666666666666
-0.27,-0.115,9894.444444444445
-0.28,-0.11,9897.222222222223
-0.305,-0.095,9900.0
-0.305,-0.09,9902.777777777777
-0.275,-0.095,9905.555555555555
-0.275,-0.1,9908.333333333334
-0.275,-0.095,9911.111111111111
-0.285,-0.11,9913.888888888889
-0.29,-0.12,9916.666666666666
-0.27,-0.12,9919.444444444445
-0.215,-0.13,9922.222222222223
-0.2,-0.14,9925.0
-0.185,-0.13,9927.777777777777
-0.155,-0.12,9930.555555555555
-0.135,-0.12,9933.333333333334
-0.145,-0.13,9936.111111111111
-0.175,-0.125,9938.888888888889
-0.195,-0.14,9941.666666666666
-0.215,-0.14,9944.444444444445
-0.23,-0.145,9947.222222222223
-0.245,-0.135,9950.0
-0.24,-0.13,9952.777777777777
-0.24,-0.125,9955.555555555555
-0.23,-0.125,9958.333333333334
-0.23,-0.12,9961.111111111111
-0.24,-0.115,9963.888888888889
-0.255,-0.095,9966.666666666666
-0.255,-0.095,9969.444444444445
-0.27,-0.095,9972.222222222223
-0.28,-0.095,9975.0
-0.285,-0.095,9977.777777777777
-0.3,-0.09,9980.555555555555
-0.315,-0.095,9983.333333333334
-0.34,-0.085,9986.111111111111
-0.34,-0.085,9988.888888888889
-0.34,-0.095,9991.666666666666
-0.33,-0.105,9994.444444444445
-0.34,-0.1,9997.222222222223
-0.36,-0.1,10000.0
-0.35,-0.11,10002.777777777777
-0.335,-0.105,10005.555555555555
-0.32,-0.105,10008.333333333334
-0.345,-0.115,10011.111111111111
-0.36,-0.12,10013.888888888889
-0.37,-0.115,10016.666666666666
-0.375,-0.105,10019.444444444445
-0.385,-0.11,10022.222222222223
-0.37,-0.11,10025.0
-0.355,-0.12,10027.777777777777
-0.36,-0.125,10030.555555555555
-0.375,-0.115,10033.333333333334
-0.385,-0.105,10036.111111111111
-0.36,-0.1,10038.888888888889
-0.33,-0.11,10041.666666666666
-0.33,-0.13,10044.444444444445
-0.345,-0.145,10047.222222222223
-0.385,-0.145,10050.0
-0.4,-0.125,10052.777777777777
-0.415,-0.13,10055.555555555555
-0.415,-0.14,10058.333333333334
-0.42,-0.135,10061.111111111111
-0.385,-0.14,10063.888888888889
-0.28,-0.135,10066.666666666666
-0.08,-0.12,10069.444444444445
0.155,-0.11,10072.222222222223
0.425,-0.12,10075.0
0.745,-0.14,10077.777777777777
1.03,-0.16,10080.555555555555
1.165,-0.155,10083.333333333334
1.085,-0.17,10086.111111111111
0.85,-0.195,10088.888888888889
0.57,-0.205,10091.666666666666
0.3,-0.2,10094.444444444445
0.03,-0.165,10097.222222222223
-0.145,-0.12,10100.0
-0.195,-0.06,10102.777777777777
-0.22,-0.05,10105.555555555555
-0.265,-0.055,10108.333333333334
-0.305,-0.075,10111.111111111111
-0.33,-0.09,10113.888888888889
-0.335,-0.09,10116.666666666666
-0.355,-0.07,10119.444444444445
-0.38,-0.075,10122.222222222223
-0.42,-0.09,10125.0
-0.445,-0.11,10127.777777777777
-0.45,-0.105,10130.555555555555
-0.46,-0.11,10133.333333333334
-0.445,-0.11,10136.111111111111
-0.435,-0.085,10138.888888888889
-0.45,-0.11,10141.666666666666
-0.45,-0.12,10144.444444444445
-0.465,-0.13,10147.222222222223
-0.475,-0.115,10150.0
-0.475,-0.105,10152.777777777777
-0.475,-0.1,10155.555555555555
-0.48,-0.115,10158.333333333334
-0.47,-0.125,10161.111111111111
-0.46,-0.145,10163.888888888889
-0.465,-0.135,10166.666666666666
-0.46,-0.13,10169.444444444445
-0.44,-0.13,10172.222222222223
-0.43,-0.14,10175.0
-0.43,-0.145,10177.777777777777
-0.44,-0.15,10180.555555555555
-0.45,-0.15,10183.333333333334
-0.465,-0.135,10186.111111111111
-0.48,-0.125,10188.888888888889
-0.485,-0.135,10191.666666666666
-0.485,-0.15,10194.444444444445
-0.475,-0.135,10197.222222222223
-0.48,-0.13,10200.0
-0.475,-0.12,10202.777777777777
-0.465,-0.105,10205.555555555555
-0.44,-0.115,10208.333333333334
-0.45,-0.11,10211.111111111111
-0.455,-0.115,10213.888888888889
-0.455,-0.115,10216.666666666666
-0.465,-0.09,10219.444444444445
-0.45,-0.075,10222.222222222223
-0.45,-0.08,10225.0
-0.465,-0.09,10227.777777777777
-0.485,-0.095,10230.555555555555
-0.485,-0.09,10233.333333333334
-0.475,-0.075,10236.111111111111
-0.47,-0.07,10238.888888888889
-0.465,-0.085,10241.666666666666
-0.465,-0.095,10244.444444444445
-0.47,-0.115,10247.222222222223
-0.47,-0.11,10250.0
-0.455,-0.105,10252.777777777777
-0.45,-0.1,10255.555555555555
-0.44,-0.115,10258.333333333334
-0.44,-0.115,10261.111111111111
-0.46,-0.125,10263.888888888889
-0.475,-0.125,10266.666666666666
-0.445,-0.115,10269.444444444445
-0.445,-0.105,10272.222222222223
-0.42,-0.11,10275.0
-0.42,-0.12,10277.777777777777
-0.42,-0.13,10280.555555555555
-0.43,-0.135,10283.333333333334
-0.435,-0.11,10286.111111111111
-0.42,-0.12,10288.888888888889
-0.41,-0.135,10291.666666666666
-0.41,-0.14,10294.444444444445
-0.405,-0.16,10297.222222222223
-0.405,-0.145,10300.0
-0.395,-0.13,10302.777777777777
-0.385,-0.12,10305.555555555555
-0.375,-0.145,10308.333333333334
-0.365,-0.15,10311.111111111111
-0.38,-0.15,10313.888888888889
-0.385,-0.135,10316.666666666666
-0.365,-0.13,10319.444444444445
-0.35,-0.125,10322.222222222223
-0.345,-0.14,10325.0
-0.335,-0.145,10327.777777777777
-0.335,-0.14,10330.555555555555
-0.33,-0.12,10333.333333333334
-0.31,-0.105,10336.111111111111
-0.305,-0.075,10338.888888888889
-0.285,-0.085,10341.666666666666
-0.275,-0.1,10344.444444444445
-0.275,-0.11,10347.222222222223
-0.28,-0.11,10350.0
-0.265,-0.095,10352.777777777777
-0.255,-0.09,10355.555555555555
-0.235,-0.1,10358.333333333334
-0.2,-0.11,10361.111111111111
-0.22,-0.105,10363.888888888889
-0.23,-0.11,10366.666666666666
-0.23,-0.1,10369.444444444445
-0.225,-0.09,10372.222222222223
-0.2,-0.115,10375.0
-0.19,-0.135,10377.777777777777
-0.185,-0.145,10380.555555555555
-0.2,-0.15,10383.333333333334
-0.195,-0.12,10386.111111111111
-0.185,-0.115,10388.888888888889
-0.175,-0.12,10391.666666666666
-0.18,-0.13,10394.444444444445
-0.18,-0.135,10397.222222222223
-0.185,-0.14,10400.0
-0.19,-0.14,10402.777777777777
-0.175,-0.115,10405.555555555555
-0.185,-0.13,10408.333333333334
-0.2,-0.14,10411.111111111111
-0.225,-0.16,10413.888888888889
-0.245,-0.16,10416.666666666666
-0.25,-0.145,10419.444444444445
-0.245,-0.125,10422.222222222223
-0.235,-0.135,10425.0
-0.245,-0.15,10427.777777777777
-0.275,-0.16,10430.555555555555
-0.29,-0.155,10433.333333333334
-0.3,-0.135,10436.111111111111
-0.295,-0.125,10438.888888888889
-0.305,-0.115,10441.666666666666
-0.305,-0.12,10444.444444444445
-0.315,-0.155,10447.222222222223
-0.335,-0.135,10450.0
-0.335,-0.125,10452.777777777777
-0.34,-0.105,10455.555555555555
-0.325,-0.09,10458.333333333334
-0.335,-0.09,10461.111111111111
-0.355,-0.105,10463.888888888889
-0.365,-0.1,10466.666666666666
-0.365,-0.095,10469.444444444445
-0.355,-0.07,10472.222222222223
-0.34,-0.065,10475.0
-0.355,-0.065,10477.777777777777
-0.35,-0.095,10480.555555555555
-0.36,-0.085,10483.333333333334
-0.36,-0.06,10486.111111111111
-0.35,-0.06,10488.888888888889
-0.365,-0.05,10491.666666666666
-0.37,-0.075,10494.444444444445
-0.37,-0.095,10497.222222222223
-0.37,-0.105,10500.0
-0.365,-0.1,10502.777777777777
-0.35,-0.09,10505.555555555555
-0.345,-0.085,10508.333333333334
-0.355,-0.095,10511.111111111111
-0.375,-0.11,10513.888888888889
-0.385,-0.11,10516.666666666666
-0.39,-0.095,10519.444444444445
-0.365,-0.075,10522.222222222223
-0.345,-0.075,10525.0
-0.34,-0.085,10527.777777777777
-0.35,-0.1,10530.555555555555
-0.36,-0.11,10533.333333333334
-0.35,-0.11,10536.111111111111
-0.345,-0.095,10538.888888888889
-0.33,-0.105,10541.666666666666
-0.34,-0.11,10544.444444444445
-0.345,-0.13,10547.222222222223
-0.365,-0.145,10550.0
-0.35,-0.135,10552.777777777777
-0.33,-0.125,10555.555555555555
-0.315,-0.11,10558.333333333334
-0.325,-0.105,10561.111111111111
-0.33,-0.13,10563.888888888889
-0.345,-0.13,10566.666666666666
-0.335,-0.125,10569.444444444445
-0.33,-0.115,10572.222222222223
-0.32,-0.11,10575.0
-0.315,-0.115,10577.777777777777
-0.335,-0.12,10580.555555555555
-0.33,-0.105,10583.333333333334
-0.335,-0.1,10586.111111111111
-0.32,-0.09,10588.888888888889
-0.32,-0.085,10591.666666666666
-0.315,-0.07,10594.444444444445
-0.32,-0.085,10597.222222222223
-0.32,-0.09,10600.0
-0.325,-0.09,10602.777777777777
-0.325,-0.06,10605.555555555555
-0.325,-0.06,10608.333333333334
-0.32,-0.05,10611.111111111111
-0.325,-0.075,10613.888888888889
-0.335,-0.075,10616.666666666666
-0.325,-0.085,10619.444444444445
-0.32,-0.075,10622.222222222223
-0.31,-0.095,10625.0
-0.315,-0.07,10627.777777777777
-0.32,-0.1,10630.555555555555
-0.34,-0.115,10633.333333333334
-0.32,-0.105,10636.111111111111
-0.32,-0.09,10638.888888888889
-0.305,-0.09,10641.666666666666
-0.31,-0.08,10644.444444444445
-0.315,-0.095,10647.222222222223
-0.34,-0.105,10650.0
-0.345,-0.1,10652.777777777777
-0.32,-0.095,10655.555555555555
-0.33,-0.095,10658.333333333334
-0.315,-0.1,10661.111111111111
-0.315,-0.125,10663.888888888889
-0.33,-0.14,10666.666666666666
-0.33,-0.145,10669.444444444445
-0.33,-0.12,10672.222222222223
-0.335,-0.11,10675.0
-0.335,-0.12,10677.777777777777
-0.32,-0.125,10680.555555555555
-0.33,-0.13,10683.333333333334
-0.325,-0.125,10686.111111111111
-0.32,-0.115,10688.888888888889
-0.315,-0.11,10691.666666666666
-0.325,-0.115,10694.444444444445
-0.32,-0.115,10697.222222222223
-0.34,-0.12,10700.0
-0.33,-0.115,10702.777777777777
-0.33,-0.1,10705.555555555555
-0.32,-0.085,10708.333333333334
-0.33,-0.08,10711.111111111111
-0.345,-0.085,10713.888888888889
-0.335,-0.1,10716.666666666666
-0.34,-0.085,10719.444444444445
-0.325,-0.07,10722.222222222223
-0.32,-0.065,10725.0
-0.315,-0.06,10727.777777777777
-0.31,-0.075,10730.555555555555
-0.33,-0.08,10733.333333333334
-0.325,-0.08,10736.111111111111
-0.32,-0.07,10738.888888888889
-0.32,-0.06,10741.666666666666
-0.325,-0.07,10744.444444444445
-0.33,-0.085,10747.222222222223
-0.345,-0.095,10750.0
-0.34,-0.095,10752.777777777777
-0.325,-0.09,10755.555555555555
-0.32,-0.085,10758.333333333334
-0.335,-0.085,10761.111111111111
-0.33,-0.1,10763.888888888889
-0.345,-0.105,10766.666666666666
-0.335,-0.095,10769.444444444445
-0.325,-0.08,10772.222222222223
-0.31,-0.085,10775.0
-0.315,-0.07,10777.777777777777
-0.32,-0.1,10780.555555555555
-0.335,-0.13,10783.333333333334
-0.34,-0.125,10786.111111111111
-0.32,-0.11,10788.888888888889
-0.32,-0.11,10791.666666666666
-0.32,-0.11,10794.444444444445
-0.31,-0.115,10797.222222222223
-0.31,-0.135,10800.0
-0.3,-0.135,10802.777777777777
-0.3,-0.12,10805.555555555555
-0.31,-0.105,10808.333333333334
-0.315,-0.105,10811.111111111111
-0.325,-0.13,10813.888888888889
-0.32,-0.13,10816.666666666666
-0.31,-0.115,10819.444444444445
-0.285,-0.095,10822.222222222223
-0.27,-0.08,10825.0
-0.285,-0.08,10827.777777777777
-0.285,-0.09,10830.555555555555
-0.3,-0.095,10833.333333333334
-0.29,-0.075,10836.111111111111
-0.26,-0.065,10838.888888888889
-0.235,-0.045,10841.666666666666
-0.215,-0.055,10844.444444444445
-0.19,-0.08,10847.222222222223
-0.17,-0.075,10850.0
-0.14,-0.07,10852.777777777777
-0.135,-0.06,10855.555555555555
-0.14,-0.045,10858.333333333334
-0.17,-0.055,10861.111111111111
-0.165,-0.085,10863.888888888889
-0.175,-0.095,10866.666666666666
-0.185,-0.09,10869.444444444445
-0.195,-0.085,10872.222222222223
-0.2,-0.085,10875.0
-0.205,-0.095,10877.777777777777
-0.225,-0.115,10880.555555555555
-0.225,-0.105,10883.333333333334
-0.22,-0.11,10886.111111111111
-0.215,-0.095,10888.888888888889
-0.225,-0.085,10891.666666666666
-0.235,-0.09,10894.444444444445
-0.26,-0.115,10897.222222222223
-0.28,-0.115,10900.0
-0.28,-0.12,10902.777777777777
-0.295,-0.1,10905.555555555555
-0.295,-0.105,10908.333333333334
-0.305,-0.115,10911.111111111111
-0.315,-0.13,10913.888888888889
-0.325,-0.14,10916.666666666666
-0.33,-0.14,10919.444444444445
-0.315,-0.11,10922.222222222223
-0.305,-0.105,10925.0
-0.3,-0.105,10927.777777777777
-0.315,-0.13,10930.555555555555
-0.335,-0.13,10933.333333333334
-0.34,-0.12,10936.111111111111
-0.33,-0.095,10938.888888888889
-0.315,-0.095,10941.666666666666
-0.32,-0.1,10944.444444444445
-0.335,-0.115,10947.222222222223
-0.34,-0.095,10950.0
-0.345,-0.085,10952.777777777777
-0.34,-0.07,10955.555555555555
-0.325,-0.055,10958.333333333334
-0.335,-0.075,10961.111111111111
-0.355,-0.085,10963.888888888889
-0.365,-0.085,10966.666666666666
-0.375,-0.075,10969.444444444445
-0.385,-0.055,10972.222222222223
-0.39,-0.04,10975.0
-0.395,-0.05,10977.777777777777
-0.36,-0.075,10980.555555555555
-0.245,-0.085,10983.333333333334
-0.04,-0.08,10986.111111111111
0.19,-0.065,10988.888888888889
0.48,-0.055,10991.666666666666
0.81,-0.09,10994.444444444445
1.095,-0.13,10997.222222222223
1.19,-0.165,11000.0
1.035,-0.2,11002.777777777777
0.735,-0.21,11005.555555555555
0.45,-0.19,11008.333333333334
0.18,-0.175,11011.111111111111
-0.015,-0.155,11013.888888888889
-0.095,-0.12,11016.666666666666
-0.11,-0.08,11019.444444444445
-0.135,-0.07,11022.222222222223
-0.165,-0.09,11025.0
-0.19,-0.11,11027.777777777777
-0.225,-0.14,11030.555555555555
-0.245,-0.125,11033.333333333334
-0.27,-0.115,11036.111111111111
-0.305,-0.105,11038.888888888889
-0.325,-0.1,11041.666666666666
-0.365,-0.125,11044.444444444445
-0.38,-0.13,11047.222222222223
-0.395,-0.125,11050.0
-0.39,-0.12,11052.777777777777
-0.385,-0.1,11055.555555555555
-0.375,-0.105,11058.333333333334
-0.385,-0.115,11061.111111111111
-0.395,-0.125,11063.888888888889
-0.41,-0.115,11066.666666666666
-0.405,-0.085,11069.444444444445
-0.4,-0.065,11072.222222222223
-0.395,-0.07,11075.0
-0.4,-0.09,11077.777777777777
-0.42,-0.075,11080.555555555555
-0.42,-0.09,11083.333333333334
-0.41,-0.07,11086.111111111111
-0.405,-0.05,11088.888888888889
-0.405,-0.05,11091.666666666666
-0.405,-0.07,11094.444444444445
-0.405,-0.105,11097.222222222223
-0.4,-0.09,11100.0
-0.39,-0.06,11102.777777777777
-0.385,-0.065,11105.555555555555
-0.4,-0.075,11108.333333333334
-0.405,-0.085,11111.111111111111
-0.4,-0.1,11113.888888888889
-0.415,-0.09,11116.666666666666
-0.4,-0.085,11119.444444444445
-0.42,-0.08,11122.222222222223
-0.385,-0.08,11125.0
