MLII,V2,time_ms
-0.375,0.05,0.0
-0.375,0.05,2.7777777777777777
-0.375,0.05,5.555555555555555
-0.375,0.05,8.333333333333334
-0.375,0.05,11.11111111111111
-0.375,0.05,13.88888888888889
-0.375,0.05,16.666666666666668
-0.375,0.05,19.444444444444443
-0.385,0.05,22.22222222222222
-0.385,0.035,25.0
-0.385,0.035,27.77777777777778
-0.38,0.05,30.555555555555557
-0.36,0.065,33.333333333333336
-0.36,0.065,36.111111111111114
-0.37,0.04,38.888888888888886
-0.365,0.045,41.666666666666664
-0.37,0.035,44.44444444444444
-0.36,0.055,47.22222222222222
-0.355,0.07,50.0
-0.345,0.075,52.77777777777778
-0.34,0.065,55.55555555555556
-0.345,0.055,58.333333333333336
-0.345,0.07,61.111111111111114
-0.33,0.08,63.888888888888886
-0.325,0.09,66.66666666666667
-0.31,0.085,69.44444444444444
-0.305,0.09,72.22222222222223
-0.31,0.085,75.0
-0.31,0.085,77.77777777777777
-0.3,0.105,80.55555555555556
-0.28,0.12,83.33333333333333
-0.25,0.125,86.11111111111111
-0.25,0.12,88.88888888888889
-0.245,0.125,91.66666666666667
-0.235,0.135,94.44444444444444
-0.22,0.145,97.22222222222223
-0.195,0.16,100.0
-0.165,0.165,102.77777777777777
-0.16,0.175,105.55555555555556
-0.16,0.17,108.33333333333333
-0.135,0.18,111.11111111111111
-0.12,0.21,113.88888888888889
-0.09,0.23,116.66666666666667
-0.06,0.235,119.44444444444444
-0.045,0.24,122.22222222222223
-0.035,0.255,125.0
-0.015,0.255,127.77777777777777
0.0,0.275,130.55555555555554
0.03,0.3,133.33333333333334
0.06,0.295,136.11111111111111
0.07,0.315,138.88888888888889
0.075,0.315,141.66666666666666
0.075,0.335,144.44444444444446
0.1,0.35,147.22222222222223
0.11,0.35,150.0
0.135,0.355,152.77777777777777
0.13,0.355,155.55555555555554
0.145,0.35,158.33333333333334
0.135,0.355,161.11111111111111
0.16,0.37,163.88888888888889
0.165,0.39,166.66666666666666
0.175,0.395,169.44444444444446
0.185,0.385,172.22222222222223
0.175,0.37,175.0
0.165,0.365,177.77777777777777
0.17,0.38,180.55555555555554
0.16,0.385,183.33333333333334
0.15,0.375,186.11111111111111
0.14,0.37,188.88888888888889
0.12,0.345,191.66666666666666
0.085,0.345,194.44444444444446
0.08,0.335,197.22222222222223
0.07,0.33,200.0
0.055,0.31,202.77777777777777
0.02,0.28,205.55555555555554
-0.005,0.265,208.33333333333334
-0.05,0.25,211.11111111111111
-0.065,0.24,213.88888888888889
-0.085,0.225,216.66666666666666
-0.095,0.205,219.44444444444446
-0.125,0.18,222.22222222222223
-0.145,0.165,225.0
-0.165,0.145,227.77777777777777
-0.175,0.135,230.55555555555554
-0.185,0.13,233.33333333333334
-0.205,0.125,236.11111111111111
-0.215,0.105,238.88888888888889
-0.22,0.085,241.66666666666666
-0.23,0.075,244.44444444444446
-0.245,0.08,247.22222222222223
-0.24,0.08,250.0
-0.245,0.075,252.77777777777777
-0.245,0.06,255.55555555555554
-0.265,0.04,258.3333333333333
-0.265,0.04,261.1111111111111
-0.265,0.05,263.8888888888889
-0.26,0.065,266.6666666666667
-0.255,0.05,269.44444444444446
-0.27,0.04,272.22222222222223
-0.265,0.03,275.0
-0.275,0.03,277.77777777777777
-0.265,0.035,280.55555555555554
-0.275,0.045,283.3333333333333
-0.265,0.045,286.1111111111111
-0.27,0.035,288.8888888888889
-0.265,0.025,291.6666666666667
-0.28,0.015,294.44444444444446
-0.285,0.02,297.22222222222223
-0.275,0.035,300.0
-0.26,0.045,302.77777777777777
-0.25,0.045,305.55555555555554
-0.265,0.04,308.3333333333333
-0.27,0.025,311.1111111111111
-0.265,0.045,313.8888888888889
-0.24,0.06,316.6666666666667
-0.245,0.06,319.44444444444446
-0.25,0.045,322.22222222222223
-0.25,0.04,325.0
-0.255,0.05,327.77777777777777
-0.24,0.055,330.55555555555554
-0.23,0.07,333.3333333333333
-0.225,0.07,336.1111111111111
-0.23,0.07,338.8888888888889
-0.24,0.05,341.6666666666667
-0.24,0.055,344.44444444444446
-0.24,0.065,347.22222222222223
-0.22,0.065,350.0
-0.22,0.075,352.77777777777777
-0.22,0.065,355.55555555555554
-0.225,0.06,358.3333333333333
-0.24,0.065,361.1111111111111
-0.235,0.07,363.8888888888889
-0.215,0.09,366.6666666666667
-0.22,0.07,369.44444444444446
-0.23,0.06,372.22222222222223
-0.23,0.065,375.0
-0.235,0.055,377.77777777777777
-0.235,0.065,380.55555555555554
-0.22,0.065,383.3333333333333
-0.215,0.08,386.1111111111111
-0.23,0.075,388.8888888888889
-0.24,0.07,391.6666666666667
-0.25,0.06,394.44444444444446
-0.245,0.06,397.22222222222223
-0.24,0.065,400.0
-0.24,0.07,402.77777777777777
-0.235,0.05,405.55555555555554
-0.25,0.045,408.3333333333333
-0.255,0.045,411.1111111111111
-0.255,0.05,413.8888888888889
-0.25,0.06,416.6666666666667
-0.245,0.05,419.44444444444446
-0.255,0.04,422.22222222222223
-0.27,0.03,425.0
-0.27,0.02,427.77777777777777
-0.265,0.02,430.55555555555554
-0.26,0.04,433.3333333333333
-0.255,0.025,436.1111111111111
-0.27,0.025,438.8888888888889
-0.28,0.025,441.6666666666667
-0.29,0.01,444.44444444444446
-0.285,0.015,447.22222222222223
-0.285,0.03,450.0
-0.29,0.01,452.77777777777777
-0.29,0.0,455.55555555555554
-0.29,-0.01,458.3333333333333
-0.3,-0.01,461.1111111111111
-0.295,-0.005,463.8888888888889
-0.3,0.005,466.6666666666667
-0.3,0.0,469.44444444444446
-0.305,-0.005,472.22222222222223
-0.3,-0.02,475.0
-0.32,-0.02,477.77777777777777
-0.315,-0.01,480.55555555555554
-0.315,-0.01,483.3333333333333
-0.3,-0.01,486.1111111111111
-0.31,-0.025,488.8888888888889
-0.31,-0.035,491.6666666666667
-0.325,-0.03,494.44444444444446
-0.325,-0.02,497.22222222222223
-0.32,-0.015,500.0
-0.32,-0.015,502.77777777777777
-0.31,-0.03,505.55555555555554
-0.325,-0.045,508.3333333333333
-0.325,-0.04,511.1111111111111
-0.32,-0.04,513.8888888888889
-0.315,-0.02,516.6666666666666
-0.295,-0.035,519.4444444444445
-0.275,-0.03,522.2222222222222
-0.28,-0.045,525.0
-0.28,-0.04,527.7777777777778
-0.265,-0.025,530.5555555555555
-0.255,-0.015,533.3333333333334
-0.245,-0.015,536.1111111111111
-0.24,-0.025,538.8888888888889
-0.235,-0.035,541.6666666666666
-0.245,-0.03,544.4444444444445
-0.24,-0.015,547.2222222222222
-0.235,-0.005,550.0
-0.215,-0.01,552.7777777777778
-0.215,-0.02,555.5555555555555
-0.215,-0.03,558.3333333333334
-0.23,-0.025,561.1111111111111
-0.22,-0.02,563.8888888888889
-0.21,-0.01,566.6666666666666
-0.205,-0.02,569.4444444444445
-0.215,-0.015,572.2222222222222
-0.215,-0.035,575.0
-0.245,-0.04,577.7777777777778
-0.255,-0.04,580.5555555555555
-0.25,-0.04,583.3333333333334
-0.26,-0.06,586.1111111111111
-0.27,-0.07,588.8888888888889
-0.27,-0.085,591.6666666666666
-0.27,-0.1,594.4444444444445
-0.255,-0.09,597.2222222222222
-0.25,-0.055,600.0
-0.255,-0.055,602.7777777777778
-0.26,-0.035,605.5555555555555
-0.295,-0.035,608.3333333333334
-0.315,-0.045,611.1111111111111
-0.32,-0.025,613.8888888888889
-0.325,-0.03,616.6666666666666
-0.33,-0.035,619.4444444444445
-0.34,-0.045,622.2222222222222
-0.355,-0.07,625.0
-0.38,-0.07,627.7777777777778
-0.385,-0.06,630.5555555555555
-0.38,-0.05,633.3333333333334
-0.38,-0.055,636.1111111111111
-0.395,-0.065,638.8888888888889
-0.41,-0.075,641.6666666666666
-0.405,-0.085,644.4444444444445
-0.41,-0.075,647.2222222222222
-0.405,-0.065,650.0
-0.4,-0.075,652.7777777777778
-0.39,-0.08,655.5555555555555
-0.405,-0.08,658.3333333333334
-0.42,-0.08,661.1111111111111
-0.41,-0.065,663.8888888888889
-0.4,-0.06,666.6666666666666
-0.4,-0.06,669.4444444444445
-0.395,-0.065,672.2222222222222
-0.405,-0.06,675.0
-0.41,-0.065,677.7777777777778
-0.405,-0.06,680.5555555555555
-0.4,-0.05,683.3333333333334
-0.405,-0.05,686.1111111111111
-0.405,-0.06,688.8888888888889
-0.42,-0.075,691.6666666666666
-0.445,-0.07,694.4444444444445
-0.475,-0.055,697.2222222222222
-0.54,-0.055,700.0
-0.58,-0.085,702.7777777777778
-0.59,-0.105,705.5555555555555
-0.55,-0.11,708.3333333333334
-0.485,-0.075,711.1111111111111
-0.39,-0.035,713.8888888888889
-0.21,0.01,716.6666666666666
0.09,0.095,719.4444444444445
0.47,0.235,722.2222222222222
0.85,0.43,725.0
1.19,0.67,727.7777777777778
1.51,0.91,730.5555555555555
1.75,1.16,733.3333333333334
1.85,1.365,736.1111111111111
1.8,1.435,738.8888888888889
1.585,1.38,741.6666666666666
1.14,1.17,744.4444444444445
0.62,0.82,747.2222222222222
0.13,0.38,750.0
-0.235,-0.03,752.7777777777778
-0.44,-0.345,755.5555555555555
-0.52,-0.475,758.3333333333334
-0.525,-0.48,761.1111111111111
-0.485,-0.41,763.8888888888889
-0.405,-0.3,766.6666666666666
-0.33,-0.195,769.4444444444445
-0.295,-0.1,772.2222222222222
-0.32,-0.04,775.0
-0.36,-0.02,777.7777777777778
-0.375,-0.01,780.5555555555555
-0.375,-0.02,783.3333333333334
-0.38,-0.035,786.1111111111111
-0.38,-0.04,788.8888888888889
-0.395,-0.045,791.6666666666666
-0.42,-0.05,794.4444444444445
-0.43,-0.045,797.2222222222222
-0.435,-0.04,800.0
-0.43,-0.055,802.7777777777778
-0.435,-0.06,805.5555555555555
-0.45,-0.06,808.3333333333334
-0.465,-0.075,811.1111111111111
-0.46,-0.055,813.8888888888889
-0.45,-0.05,816.6666666666666
-0.445,-0.05,819.4444444444445
-0.46,-0.06,822.2222222222222
-0.465,-0.06,825.0
-0.485,-0.06,827.7777777777778
-0.47,-0.05,830.5555555555555
-0.455,-0.045,833.3333333333334
-0.465,-0.055,836.1111111111111
-0.46,-0.065,838.8888888888889
-0.47,-0.06,841.6666666666666
-0.475,-0.055,844.4444444444445
-0.465,-0.045,847.2222222222222
-0.475,-0.03,850.0
-0.475,-0.045,852.7777777777778
-0.47,-0.04,855.5555555555555
-0.465,-0.05,858.3333333333334
-0.485,-0.05,861.1111111111111
-0.47,-0.035,863.8888888888889
-0.46,-0.025,866.6666666666666
-0.455,-0.02,869.4444444444445
-0.44,-0.04,872.2222222222222
-0.46,-0.04,875.0
-0.47,-0.04,877.7777777777778
-0.45,-0.035,880.5555555555555
-0.43,-0.025,883.3333333333334
-0.435,-0.02,886.1111111111111
-0.435,-0.02,888.8888888888889
-0.435,-0.02,891.6666666666666
-0.44,-0.02,894.4444444444445
-0.425,-0.005,897.2222222222222
-0.41,0.005,900.0
-0.395,-0.005,902.7777777777778
-0.39,0.0,905.5555555555555
-0.4,-0.005,908.3333333333334
-0.4,0.0,911.1111111111111
-0.39,0.005,913.8888888888889
-0.37,0.035,916.6666666666666
-0.345,0.03,919.4444444444445
-0.34,0.035,922.2222222222222
-0.34,0.025,925.0
-0.345,0.03,927.7777777777778
-0.32,0.055,930.5555555555555
-0.29,0.08,933.3333333333334
-0.275,0.06,936.1111111111111
-0.26,0.065,938.8888888888889
-0.255,0.075,941.6666666666666
-0.24,0.08,944.4444444444445
-0.21,0.11,947.2222222222222
-0.185,0.14,950.0
-0.16,0.135,952.7777777777778
-0.135,0.15,955.5555555555555
-0.13,0.155,958.3333333333334
-0.125,0.155,961.1111111111111
-0.1,0.18,963.8888888888889
-0.07,0.2,966.6666666666666
-0.04,0.205,969.4444444444445
-0.04,0.21,972.2222222222222
-0.025,0.22,975.0
-0.005,0.225,977.7777777777778
0.015,0.24,980.5555555555555
0.035,0.265,983.3333333333334
0.06,0.275,986.1111111111111
0.055,0.26,988.8888888888889
0.06,0.27,991.6666666666666
0.07,0.275,994.4444444444445
0.085,0.28,997.2222222222222
0.105,0.3,1000.0
0.115,0.3,1002.7777777777778
0.11,0.3,1005.5555555555555
0.11,0.3,1008.3333333333334
0.095,0.295,1011.1111111111111
0.1,0.305,1013.8888888888889
0.095,0.32,1016.6666666666666
0.09,0.295,1019.4444444444445
0.085,0.285,1022.2222222222222
0.055,0.275,1025.0
0.045,0.26,1027.7777777777778
0.03,0.26,1030.5555555555557
0.015,0.26,1033.3333333333333
-0.01,0.245,1036.111111111111
-0.03,0.22,1038.888888888889
-0.065,0.205,1041.6666666666667
-0.09,0.19,1044.4444444444443
-0.115,0.17,1047.2222222222222
-0.13,0.17,1050.0
-0.15,0.14,1052.7777777777778
-0.18,0.115,1055.5555555555557
-0.215,0.1,1058.3333333333333
-0.24,0.085,1061.111111111111
-0.25,0.065,1063.888888888889
-0.26,0.07,1066.6666666666667
-0.27,0.04,1069.4444444444443
-0.275,0.03,1072.2222222222222
-0.305,0.01,1075.0
-0.315,-0.01,1077.7777777777778
-0.325,0.005,1080.5555555555557
-0.315,0.0,1083.3333333333333
-0.31,-0.005,1086.111111111111
-0.31,-0.015,1088.888888888889
-0.35,-0.03,1091.6666666666667
-0.345,-0.035,1094.4444444444443
-0.35,-0.03,1097.2222222222222
-0.33,-0.015,1100.0
-0.325,-0.035,1102.7777777777778
-0.33,-0.04,1105.5555555555557
-0.345,-0.055,1108.3333333333333
-0.35,-0.065,1111.111111111111
-0.345,-0.05,1113.888888888889
-0.35,-0.04,1116.6666666666667
-0.34,-0.045,1119.4444444444443
-0.345,-0.045,1122.2222222222222
-0.35,-0.05,1125.0
-0.355,-0.07,1127.7777777777778
-0.35,-0.055,1130.5555555555557
-0.33,-0.04,1133.3333333333333
-0.33,-0.05,1136.111111111111
-0.33,-0.045,1138.888888888889
-0.33,-0.05,1141.6666666666667
-0.335,-0.05,1144.4444444444443
-0.325,-0.04,1147.2222222222222
-0.32,-0.02,1150.0
-0.315,-0.04,1152.7777777777778
-0.315,-0.045,1155.5555555555557
-0.32,-0.045,1158.3333333333333
-0.33,-0.05,1161.111111111111
-0.315,-0.045,1163.888888888889
-0.31,-0.015,1166.6666666666667
-0.3,-0.005,1169.4444444444443
-0.3,-0.015,1172.2222222222222
-0.31,-0.04,1175.0
-0.32,-0.025,1177.7777777777778
-0.31,-0.03,1180.5555555555557
-0.305,-0.02,1183.3333333333333
-0.295,-0.025,1186.111111111111
-0.295,-0.02,1188.888888888889
-0.295,-0.025,1191.6666666666667
-0.315,-0.02,1194.4444444444443
-0.31,-0.01,1197.2222222222222
-0.295,-0.01,1200.0
-0.295,-0.015,1202.7777777777778
-0.3,-0.02,1205.5555555555557
-0.31,-0.025,1208.3333333333333
-0.305,-0.025,1211.111111111111
-0.31,-0.02,1213.888888888889
-0.305,-0.01,1216.6666666666667
-0.295,-0.02,1219.4444444444443
-0.3,-0.025,1222.2222222222222
-0.315,-0.04,1225.0
-0.325,-0.035,1227.7777777777778
-0.33,-0.02,1230.5555555555557
-0.315,-0.03,1233.3333333333333
-0.31,-0.035,1236.111111111111
-0.315,-0.03,1238.888888888889
-0.325,-0.05,1241.6666666666667
-0.335,-0.045,1244.4444444444443
-0.33,-0.04,1247.2222222222222
-0.325,-0.035,1250.0
-0.32,-0.04,1252.7777777777778
-0.335,-0.05,1255.5555555555557
-0.33,-0.065,1258.3333333333333
-0.34,-0.065,1261.111111111111
-0.35,-0.07,1263.888888888889
-0.345,-0.055,1266.6666666666667
-0.34,-0.06,1269.4444444444443
-0.34,-0.07,1272.2222222222222
-0.35,-0.075,1275.0
-0.355,-0.075,1277.7777777777778
-0.35,-0.075,1280.5555555555557
-0.345,-0.07,1283.3333333333333
-0.345,-0.08,1286.111111111111
-0.345,-0.09,1288.888888888889
-0.35,-0.1,1291.6666666666667
-0.375,-0.105,1294.4444444444443
-0.365,-0.1,1297.2222222222222
-0.36,-0.085,1300.0
-0.37,-0.09,1302.7777777777778
-0.365,-0.1,1305.5555555555557
-0.365,-0.11,1308.3333333333333
-0.38,-0.11,1311.111111111111
-0.385,-0.115,1313.888888888889
-0.375,-0.105,1316.6666666666667
-0.37,-0.105,1319.4444444444443
-0.375,-0.115,1322.2222222222222
-0.385,-0.11,1325.0
-0.4,-0.125,1327.7777777777778
-0.38,-0.115,1330.5555555555557
-0.385,-0.105,1333.3333333333333
-0.375,-0.11,1336.111111111111
-0.37,-0.12,1338.888888888889
-0.39,-0.13,1341.6666666666667
-0.4,-0.135,1344.4444444444443
-0.395,-0.125,1347.2222222222222
-0.375,-0.115,1350.0
-0.38,-0.115,1352.7777777777778
-0.385,-0.125,1355.5555555555557
-0.385,-0.135,1358.3333333333333
-0.395,-0.145,1361.111111111111
-0.4,-0.13,1363.888888888889
-0.395,-0.12,1366.6666666666667
-0.385,-0.115,1369.4444444444443
-0.38,-0.13,1372.2222222222222
-0.385,-0.135,1375.0
-0.385,-0.145,1377.7777777777778
-0.375,-0.13,1380.5555555555557
-0.36,-0.125,1383.3333333333333
-0.355,-0.125,1386.111111111111
-0.335,-0.125,1388.888888888889
-0.335,-0.13,1391.6666666666667
-0.315,-0.13,1394.4444444444443
-0.31,-0.125,1397.2222222222222
-0.31,-0.11,1400.0
-0.31,-0.11,1402.7777777777778
-0.315,-0.135,1405.5555555555557
-0.305,-0.12,1408.3333333333333
-0.31,-0.13,1411.111111111111
-0.285,-0.115,1413.888888888889
-0.27,-0.11,1416.6666666666667
-0.265,-0.11,1419.4444444444443
-0.26,-0.13,1422.2222222222222
-0.27,-0.135,1425.0
-0.275,-0.13,1427.7777777777778
-0.265,-0.12,1430.5555555555557
-0.25,-0.105,1433.3333333333333
-0.25,-0.12,1436.111111111111
-0.265,-0.12,1438.888888888889
-0.275,-0.13,1441.6666666666667
-0.295,-0.15,1444.4444444444443
-0.315,-0.145,1447.2222222222222
-0.31,-0.15,1450.0
-0.315,-0.16,1452.7777777777778
-0.315,-0.175,1455.5555555555557
-0.31,-0.185,1458.3333333333333
-0.32,-0.175,1461.111111111111
-0.31,-0.145,1463.888888888889
-0.3,-0.115,1466.6666666666667
-0.32,-0.11,1469.4444444444443
-0.34,-0.115,1472.2222222222222
-0.355,-0.115,1475.0
-0.375,-0.115,1477.7777777777778
-0.38,-0.12,1480.5555555555557
-0.38,-0.11,1483.3333333333333
-0.39,-0.12,1486.111111111111
-0.405,-0.135,1488.888888888889
-0.405,-0.145,1491.6666666666667
-0.42,-0.145,1494.4444444444443
-0.43,-0.15,1497.2222222222222
-0.425,-0.145,1500.0
-0.43,-0.145,1502.7777777777778
-0.435,-0.16,1505.5555555555557
-0.45,-0.155,1508.3333333333333
-0.45,-0.17,1511.111111111111
-0.45,-0.155,1513.888888888889
-0.45,-0.145,1516.6666666666667
-0.435,-0.16,1519.4444444444443
-0.44,-0.155,1522.2222222222222
-0.44,-0.155,1525.0
-0.46,-0.155,1527.7777777777778
-0.455,-0.145,1530.5555555555557
-0.45,-0.135,1533.3333333333333
-0.45,-0.145,1536.111111111111
-0.44,-0.145,1538.888888888889
-0.45,-0.16,1541.6666666666667
-0.455,-0.165,1544.4444444444443
-0.45,-0.155,1547.2222222222222
-0.435,-0.14,1550.0
-0.435,-0.145,1552.7777777777778
-0.445,-0.15,1555.5555555555557
-0.46,-0.15,1558.3333333333333
-0.51,-0.145,1561.111111111111
-0.57,-0.155,1563.888888888889
-0.62,-0.17,1566.6666666666667
-0.635,-0.185,1569.4444444444443
-0.59,-0.18,1572.2222222222222
-0.535,-0.16,1575.0
-0.455,-0.14,1577.7777777777778
-0.275,-0.075,1580.5555555555557
0.045,0.015,1583.3333333333333
0.445,0.185,1586.111111111111
0.875,0.4,1588.888888888889
1.23,0.64,1591.6666666666667
1.535,0.895,1594.4444444444443
1.75,1.16,1597.2222222222222
1.84,1.335,1600.0
1.73,1.345,1602.7777777777778
1.365,1.175,1605.5555555555557
0.79,0.795,1608.3333333333333
0.195,0.295,1611.111111111111
-0.26,-0.165,1613.888888888889
-0.485,-0.465,1616.6666666666667
-0.55,-0.575,1619.4444444444443
-0.54,-0.555,1622.2222222222222
-0.505,-0.46,1625.0
-0.42,-0.34,1627.7777777777778
-0.355,-0.205,1630.5555555555557
-0.34,-0.11,1633.3333333333333
-0.375,-0.095,1636.111111111111
-0.395,-0.11,1638.888888888889
-0.415,-0.13,1641.6666666666667
-0.415,-0.135,1644.4444444444443
-0.415,-0.125,1647.2222222222222
-0.405,-0.12,1650.0
-0.43,-0.12,1652.7777777777778
-0.455,-0.14,1655.5555555555557
-0.475,-0.15,1658.3333333333333
-0.495,-0.165,1661.111111111111
-0.495,-0.155,1663.888888888889
-0.485,-0.14,1666.6666666666667
-0.485,-0.15,1669.4444444444443
-0.485,-0.15,1672.2222222222222
-0.51,-0.15,1675.0
-0.515,-0.155,1677.7777777777778
-0.52,-0.15,1680.5555555555557
-0.5,-0.14,1683.3333333333333
-0.495,-0.14,1686.111111111111
-0.5,-0.135,1688.888888888889
-0.49,-0.145,1691.6666666666667
-0.51,-0.145,1694.4444444444443
-0.5,-0.135,1697.2222222222222
-0.495,-0.12,1700.0
-0.485,-0.12,1702.7777777777778
-0.495,-0.135,1705.5555555555557
-0.495,-0.145,1708.3333333333333
-0.51,-0.155,1711.111111111111
-0.5,-0.13,1713.888888888889
-0.49,-0.12,1716.6666666666667
-0.48,-0.11,1719.4444444444443
-0.49,-0.105,1722.2222222222222
-0.475,-0.12,1725.0
-0.495,-0.125,1727.7777777777778
-0.47,-0.115,1730.5555555555557
-0.47,-0.1,1733.3333333333333
-0.47,-0.105,1736.111111111111
-0.46,-0.11,1738.888888888889
-0.465,-0.115,1741.6666666666667
-0.455,-0.1,1744.4444444444443
-0.445,-0.095,1747.2222222222222
-0.435,-0.075,1750.0
-0.41,-0.065,1752.7777777777778
-0.405,-0.095,1755.5555555555557
-0.41,-0.085,1758.3333333333333
-0.41,-0.075,1761.111111111111
-0.4,-0.06,1763.888888888889
-0.38,-0.04,1766.6666666666667
-0.355,-0.045,1769.4444444444443
-0.34,-0.035,1772.2222222222222
-0.33,-0.04,1775.0
-0.33,-0.03,1777.7777777777778
-0.295,-0.005,1780.5555555555557
-0.275,0.025,1783.3333333333333
-0.265,0.015,1786.111111111111
-0.245,0.025,1788.888888888889
-0.23,0.03,1791.6666666666667
-0.215,0.035,1794.4444444444443
-0.19,0.06,1797.2222222222222
-0.165,0.075,1800.0
-0.13,0.09,1802.7777777777778
-0.1,0.115,1805.5555555555557
-0.1,0.115,1808.3333333333333
-0.085,0.115,1811.111111111111
-0.065,0.135,1813.888888888889
-0.05,0.155,1816.6666666666667
-0.02,0.155,1819.4444444444443
-0.01,0.17,1822.2222222222222
-0.005,0.175,1825.0
-0.005,0.18,1827.7777777777778
0.025,0.2,1830.5555555555557
0.03,0.215,1833.3333333333333
0.07,0.215,1836.111111111111
0.07,0.22,1838.888888888889
0.06,0.23,1841.6666666666667
0.055,0.22,1844.4444444444443
0.07,0.235,1847.2222222222222
0.075,0.24,1850.0
0.075,0.235,1852.7777777777778
0.06,0.225,1855.5555555555557
0.045,0.21,1858.3333333333333
0.015,0.195,1861.111111111111
0.015,0.2,1863.888888888889
0.01,0.2,1866.6666666666667
-0.005,0.18,1869.4444444444443
-0.015,0.165,1872.2222222222222
-0.075,0.14,1875.0
-0.095,0.12,1877.7777777777778
-0.115,0.11,1880.5555555555557
-0.125,0.105,1883.3333333333333
-0.14,0.09,1886.111111111111
-0.165,0.06,1888.888888888889
-0.205,0.045,1891.6666666666667
-0.23,0.025,1894.4444444444443
-0.25,0.01,1897.2222222222222
-0.26,0.0,1900.0
-0.27,-0.02,1902.7777777777778
-0.28,-0.035,1905.5555555555557
-0.305,-0.055,1908.3333333333333
-0.32,-0.06,1911.111111111111
-0.325,-0.06,1913.888888888889
-0.32,-0.065,1916.6666666666667
-0.335,-0.065,1919.4444444444443
-0.33,-0.09,1922.2222222222222
-0.355,-0.11,1925.0
-0.36,-0.115,1927.7777777777778
-0.355,-0.115,1930.5555555555557
-0.345,-0.115,1933.3333333333333
-0.345,-0.11,1936.111111111111
-0.35,-0.11,1938.888888888889
-0.35,-0.125,1941.6666666666667
-0.355,-0.135,1944.4444444444443
-0.345,-0.115,1947.2222222222222
-0.34,-0.105,1950.0
-0.345,-0.105,1952.7777777777778
-0.345,-0.125,1955.5555555555557
-0.35,-0.14,1958.3333333333333
-0.355,-0.15,1961.111111111111
-0.35,-0.125,1963.888888888889
-0.34,-0.12,1966.6666666666667
-0.33,-0.11,1969.4444444444443
-0.335,-0.115,1972.2222222222222
-0.335,-0.12,1975.0
-0.345,-0.13,1977.7777777777778
-0.34,-0.11,1980.5555555555557
-0.335,-0.105,1983.3333333333333
-0.325,-0.11,1986.111111111111
-0.33,-0.115,1988.888888888889
-0.34,-0.13,1991.6666666666667
-0.34,-0.125,1994.4444444444443
-0.325,-0.105,1997.2222222222222
-0.33,-0.08,2000.0
-0.32,-0.1,2002.7777777777778
-0.315,-0.1,2005.5555555555557
-0.325,-0.095,2008.3333333333333
-0.335,-0.105,2011.111111111111
-0.335,-0.095,2013.888888888889
-0.325,-0.09,2016.6666666666667
-0.31,-0.095,2019.4444444444443
-0.31,-0.11,2022.2222222222222
-0.32,-0.115,2025.0
-0.335,-0.12,2027.7777777777778
-0.32,-0.11,2030.5555555555557
-0.32,-0.085,2033.3333333333333
-0.315,-0.095,2036.111111111111
-0.31,-0.095,2038.888888888889
-0.335,-0.11,2041.6666666666667
-0.325,-0.095,2044.4444444444443
-0.335,-0.09,2047.2222222222222
-0.315,-0.075,2050.0
-0.33,-0.09,2052.777777777778
-0.32,-0.105,2055.5555555555557
-0.335,-0.115,2058.3333333333335
-0.335,-0.115,2061.1111111111113
-0.33,-0.1,2063.8888888888887
-0.325,-0.11,2066.6666666666665
-0.315,-0.105,2069.4444444444443
-0.315,-0.115,2072.222222222222
-0.32,-0.125,2075.0
-0.345,-0.135,2077.777777777778
-0.335,-0.125,2080.5555555555557
-0.33,-0.135,2083.3333333333335
-0.335,-0.145,2086.1111111111113
-0.335,-0.145,2088.8888888888887
-0.345,-0.15,2091.6666666666665
-0.35,-0.16,2094.4444444444443
-0.35,-0.145,2097.222222222222
-0.355,-0.14,2100.0
-0.35,-0.15,2102.777777777778
-0.355,-0.17,2105.5555555555557
-0.365,-0.175,2108.3333333333335
-0.375,-0.185,2111.1111111111113
-0.365,-0.165,2113.8888888888887
-0.37,-0.145,2116.6666666666665
-0.36,-0.165,2119.4444444444443
-0.365,-0.175,2122.222222222222
-0.385,-0.19,2125.0
-0.385,-0.185,2127.777777777778
-0.38,-0.185,2130.5555555555557
-0.37,-0.185,2133.3333333333335
-0.375,-0.19,2136.1111111111113
-0.375,-0.185,2138.8888888888887
-0.385,-0.21,2141.6666666666665
-0.395,-0.195,2144.4444444444443
-0.39,-0.195,2147.222222222222
-0.385,-0.185,2150.0
-0.395,-0.2,2152.777777777778
-0.395,-0.195,2155.5555555555557
-0.405,-0.205,2158.3333333333335
-0.41,-0.215,2161.1111111111113
-0.41,-0.2,2163.8888888888887
-0.405,-0.19,2166.6666666666665
-0.4,-0.2,2169.4444444444443
-0.4,-0.205,2172.222222222222
-0.41,-0.215,2175.0
-0.41,-0.215,2177.777777777778
-0.41,-0.2,2180.5555555555557
-0.405,-0.19,2183.3333333333335
-0.405,-0.205,2186.1111111111113
-0.405,-0.205,2188.8888888888887
-0.4,-0.215,2191.6666666666665
-0.4,-0.22,2194.4444444444443
-0.4,-0.205,2197.222222222222
-0.385,-0.2,2200.0
-0.385,-0.205,2202.777777777778
-0.38,-0.2,2205.5555555555557
-0.405,-0.21,2208.3333333333335
-0.405,-0.22,2211.1111111111113
-0.395,-0.21,2213.8888888888887
-0.395,-0.195,2216.6666666666665
-0.385,-0.21,2219.4444444444443
-0.365,-0.205,2222.222222222222
-0.37,-0.205,2225.0
-0.35,-0.22,2227.777777777778
-0.335,-0.195,2230.5555555555557
-0.33,-0.19,2233.3333333333335
-0.32,-0.185,2236.1111111111113
-0.315,-0.19,2238.8888888888887
-0.33,-0.19,2241.6666666666665
-0.335,-0.195,2244.4444444444443
-0.32,-0.185,2247.222222222222
-0.31,-0.18,2250.0
-0.29,-0.19,2252.777777777778
-0.29,-0.2,2255.5555555555557
-0.305,-0.21,2258.3333333333335
-0.315,-0.205,2261.1111111111113
-0.3,-0.195,2263.8888888888887
-0.28,-0.19,2266.6666666666665
-0.29,-0.195,2269.4444444444443
-0.29,-0.195,2272.222222222222
-0.3,-0.21,2275.0
-0.32,-0.21,2277.777777777778
-0.325,-0.205,2280.5555555555557
-0.345,-0.215,2283.3333333333335
-0.345,-0.23,2286.1111111111113
-0.34,-0.255,2288.8888888888887
-0.35,-0.255,2291.6666666666665
-0.345,-0.25,2294.4444444444443
-0.34,-0.245,2297.222222222222
-0.32,-0.22,2300.0
-0.325,-0.2,2302.777777777778
-0.34,-0.21,2305.5555555555557
-0.365,-0.205,2308.3333333333335
-0.385,-0.2,2311.1111111111113
-0.39,-0.195,2313.8888888888887
-0.38,-0.18,2316.6666666666665
-0.385,-0.195,2319.4444444444443
-0.395,-0.21,2322.222222222222
-0.415,-0.22,2325.0
-0.43,-0.225,2327.777777777778
-0.43,-0.21,2330.5555555555557
-0.445,-0.205,2333.3333333333335
-0.445,-0.215,2336.1111111111113
-0.455,-0.225,2338.8888888888887
-0.455,-0.24,2341.6666666666665
-0.455,-0.235,2344.4444444444443
-0.445,-0.22,2347.222222222222
-0.435,-0.215,2350.0
-0.435,-0.215,2352.777777777778
-0.45,-0.225,2355.5555555555557
-0.465,-0.23,2358.3333333333335
-0.47,-0.225,2361.1111111111113
-0.46,-0.23,2363.8888888888887
-0.45,-0.22,2366.6666666666665
-0.445,-0.225,2369.4444444444443
-0.44,-0.225,2372.222222222222
-0.445,-0.215,2375.0
-0.455,-0.22,2377.777777777778
-0.455,-0.24,2380.5555555555557
-0.45,-0.22,2383.3333333333335
-0.445,-0.23,2386.1111111111113
-0.45,-0.22,2388.8888888888887
-0.455,-0.225,2391.6666666666665
-0.475,-0.235,2394.4444444444443
-0.515,-0.22,2397.222222222222
-0.57,-0.225,2400.0
-0.6,-0.255,2402.777777777778
-0.585,-0.245,2405.5555555555557
-0.535,-0.225,2408.3333333333335
-0.47,-0.19,2411.1111111111113
-0.36,-0.15,2413.8888888888887
-0.17,-0.075,2416.6666666666665
0.17,0.05,2419.4444444444443
0.535,0.23,2422.222222222222
0.9,0.445,2425.0
1.215,0.675,2427.777777777778
1.505,0.9,2430.5555555555557
1.685,1.1,2433.3333333333335
1.7,1.18,2436.1111111111113
1.505,1.125,2438.8888888888887
1.06,0.885,2441.6666666666665
0.49,0.485,2444.4444444444443
-0.025,0.045,2447.222222222222
-0.365,-0.28,2450.0
-0.525,-0.5,2452.777777777778
-0.575,-0.575,2455.5555555555557
-0.57,-0.54,2458.3333333333335
-0.48,-0.445,2461.1111111111113
-0.38,-0.31,2463.8888888888887
-0.335,-0.195,2466.6666666666665
-0.345,-0.155,2469.4444444444443
-0.395,-0.16,2472.222222222222
-0.41,-0.185,2475.0
-0.43,-0.205,2477.777777777778
-0.415,-0.2,2480.5555555555557
-0.42,-0.175,2483.3333333333335
-0.425,-0.18,2486.1111111111113
-0.44,-0.19,2488.8888888888887
-0.47,-0.205,2491.6666666666665
-0.475,-0.21,2494.4444444444443
-0.48,-0.205,2497.222222222222
-0.475,-0.195,2500.0
-0.475,-0.195,2502.777777777778
-0.48,-0.2,2505.5555555555557
-0.485,-0.215,2508.3333333333335
-0.495,-0.21,2511.1111111111113
-0.485,-0.2,2513.8888888888887
-0.485,-0.195,2516.6666666666665
-0.49,-0.215,2519.4444444444443
-0.48,-0.2,2522.222222222222
-0.49,-0.21,2525.0
-0.485,-0.205,2527.777777777778
-0.48,-0.19,2530.5555555555557
-0.47,-0.185,2533.3333333333335
-0.475,-0.195,2536.1111111111113
-0.485,-0.205,2538.8888888888887
-0.49,-0.22,2541.6666666666665
-0.49,-0.205,2544.4444444444443
-0.49,-0.185,2547.222222222222
-0.475,-0.16,2550.0
-0.48,-0.18,2552.777777777778
-0.47,-0.185,2555.5555555555557
-0.48,-0.195,2558.3333333333335
-0.49,-0.2,2561.1111111111113
-0.485,-0.2,2563.8888888888887
-0.455,-0.185,2566.6666666666665
-0.45,-0.18,2569.4444444444443
-0.45,-0.18,2572.222222222222
-0.455,-0.18,2575.0
-0.475,-0.17,2577.777777777778
-0.445,-0.16,2580.5555555555557
-0.435,-0.15,2583.3333333333335
-0.425,-0.16,2586.1111111111113
-0.425,-0.175,2588.8888888888887
-0.435,-0.17,2591.6666666666665
-0.43,-0.165,2594.4444444444443
-0.41,-0.15,2597.222222222222
-0.4,-0.13,2600.0
-0.38,-0.13,2602.777777777778
-0.375,-0.125,2605.5555555555557
-0.365,-0.13,2608.3333333333335
-0.355,-0.125,2611.1111111111113
-0.335,-0.11,2613.8888888888887
-0.315,-0.105,2616.6666666666665
-0.295,-0.095,2619.4444444444443
-0.29,-0.085,2622.222222222222
-0.27,-0.07,2625.0
-0.26,-0.055,2627.777777777778
-0.24,-0.05,2630.5555555555557
-0.215,-0.015,2633.3333333333335
-0.205,-0.015,2636.1111111111113
-0.18,-0.01,2638.8888888888887
-0.17,-0.01,2641.6666666666665
-0.16,-0.005,2644.4444444444443
-0.13,0.03,2647.222222222222
-0.105,0.045,2650.0
-0.09,0.055,2652.777777777778
-0.07,0.055,2655.5555555555557
-0.06,0.075,2658.3333333333335
-0.055,0.08,2661.1111111111113
-0.045,0.09,2663.8888888888887
-0.025,0.11,2666.6666666666665
0.005,0.115,2669.4444444444443
0.01,0.12,2672.222222222222
0.01,0.13,2675.0
0.015,0.135,2677.777777777778
0.035,0.155,2680.5555555555557
0.04,0.17,2683.3333333333335
0.055,0.17,2686.1111111111113
0.06,0.165,2688.8888888888887
0.035,0.155,2691.6666666666665
0.03,0.15,2694.4444444444443
0.045,0.15,2697.222222222222
0.035,0.16,2700.0
0.04,0.16,2702.777777777778
0.03,0.165,2705.5555555555557
0.005,0.155,2708.3333333333335
-0.01,0.125,2711.1111111111113
-0.03,0.115,2713.8888888888887
-0.04,0.12,2716.6666666666665
-0.055,0.105,2719.4444444444443
-0.095,0.065,2722.222222222222
-0.105,0.05,2725.0
-0.135,0.035,2727.777777777778
-0.155,0.03,2730.5555555555557
-0.17,0.03,2733.3333333333335
-0.175,0.01,2736.1111111111113
-0.2,-0.015,2738.8888888888887
-0.225,-0.04,2741.6666666666665
-0.26,-0.055,2744.4444444444443
-0.265,-0.065,2747.222222222222
-0.27,-0.07,2750.0
-0.265,-0.095,2752.777777777778
-0.285,-0.115,2755.5555555555557
-0.3,-0.13,2758.3333333333335
-0.31,-0.135,2761.1111111111113
-0.315,-0.13,2763.8888888888887
-0.305,-0.125,2766.6666666666665
-0.3,-0.14,2769.4444444444443
-0.315,-0.155,2772.222222222222
-0.335,-0.165,2775.0
-0.345,-0.155,2777.777777777778
-0.325,-0.15,2780.5555555555557
-0.33,-0.17,2783.3333333333335
-0.325,-0.16,2786.1111111111113
-0.33,-0.185,2788.8888888888887
-0.345,-0.17,2791.6666666666665
-0.335,-0.17,2794.4444444444443
-0.335,-0.17,2797.222222222222
-0.33,-0.165,2800.0
-0.335,-0.175,2802.777777777778
-0.335,-0.175,2805.5555555555557
-0.35,-0.19,2808.3333333333335
-0.34,-0.175,2811.1111111111113
-0.335,-0.18,2813.8888888888887
-0.33,-0.18,2816.6666666666665
-0.335,-0.175,2819.4444444444443
-0.325,-0.18,2822.222222222222
-0.33,-0.175,2825.0
-0.32,-0.175,2827.777777777778
-0.32,-0.16,2830.5555555555557
-0.315,-0.16,2833.3333333333335
-0.32,-0.165,2836.1111111111113
-0.315,-0.175,2838.8888888888887
-0.31,-0.18,2841.6666666666665
-0.305,-0.155,2844.4444444444443
-0.3,-0.155,2847.222222222222
-0.295,-0.145,2850.0
-0.305,-0.15,2852.777777777778
-0.31,-0.15,2855.5555555555557
-0.295,-0.15,2858.3333333333335
-0.295,-0.155,2861.1111111111113
-0.3,-0.13,2863.8888888888887
-0.29,-0.145,2866.6666666666665
-0.285,-0.14,2869.4444444444443
-0.285,-0.15,2872.222222222222
-0.295,-0.135,2875.0
-0.29,-0.135,2877.777777777778
-0.285,-0.125,2880.5555555555557
-0.28,-0.13,2883.3333333333335
-0.28,-0.135,2886.1111111111113
-0.285,-0.145,2888.8888888888887
-0.295,-0.135,2891.6666666666665
-0.285,-0.125,2894.4444444444443
-0.285,-0.11,2897.222222222222
-0.29,-0.13,2900.0
-0.28,-0.135,2902.777777777778
-0.285,-0.145,2905.5555555555557
-0.29,-0.13,2908.3333333333335
-0.295,-0.135,2911.1111111111113
-0.275,-0.12,2913.8888888888887
-0.285,-0.13,2916.6666666666665
-0.295,-0.14,2919.4444444444443
-0.295,-0.14,2922.222222222222
-0.3,-0.155,2925.0
-0.3,-0.15,2927.777777777778
-0.295,-0.14,2930.5555555555557
-0.295,-0.145,2933.3333333333335
-0.305,-0.15,2936.1111111111113
-0.32,-0.165,2938.8888888888887
-0.32,-0.16,2941.6666666666665
-0.32,-0.16,2944.4444444444443
-0.31,-0.15,2947.222222222222
-0.31,-0.165,2950.0
-0.32,-0.165,2952.777777777778
-0.325,-0.175,2955.5555555555557
-0.34,-0.185,2958.3333333333335
-0.33,-0.17,2961.1111111111113
-0.33,-0.16,2963.8888888888887
-0.335,-0.175,2966.6666666666665
-0.345,-0.195,2969.4444444444443
-0.35,-0.195,2972.222222222222
-0.355,-0.19,2975.0
-0.355,-0.195,2977.777777777778
-0.345,-0.19,2980.5555555555557
-0.345,-0.2,2983.3333333333335
-0.35,-0.22,2986.1111111111113
-0.355,-0.22,2988.8888888888887
-0.375,-0.215,2991.6666666666665
-0.365,-0.215,2994.4444444444443
-0.36,-0.21,2997.222222222222
-0.355,-0.205,3000.0
-0.36,-0.22,3002.777777777778
-0.365,-0.22,3005.5555555555557
-0.375,-0.225,3008.3333333333335
-0.37,-0.215,3011.1111111111113
-0.36,-0.2,3013.8888888888887
-0.36,-0.215,3016.6666666666665
-0.37,-0.215,3019.4444444444443
-0.375,-0.225,3022.222222222222
-0.38,-0.235,3025.0
-0.38,-0.225,3027.777777777778
-0.37,-0.215,3030.5555555555557
-0.365,-0.22,3033.3333333333335
-0.365,-0.22,3036.1111111111113
-0.375,-0.225,3038.8888888888887
-0.38,-0.245,3041.6666666666665
-0.38,-0.23,3044.4444444444443
-0.37,-0.215,3047.222222222222
-0.355,-0.225,3050.0
-0.355,-0.235,3052.777777777778
-0.375,-0.23,3055.5555555555557
-0.38,-0.23,3058.3333333333335
-0.37,-0.225,3061.1111111111113
-0.37,-0.225,3063.8888888888887
-0.355,-0.235,3066.6666666666665
-0.355,-0.23,3069.4444444444443
-0.34,-0.245,3072.222222222222
-0.345,-0.24,3075.0
-0.33,-0.235,3077.777777777778
-0.3,-0.215,3080.5555555555557
-0.295,-0.225,3083.3333333333335
-0.29,-0.23,3086.1111111111113
-0.3,-0.235,3088.8888888888887
-0.3,-0.245,3091.6666666666665
-0.29,-0.215,3094.4444444444443
-0.285,-0.215,3097.222222222222
-0.27,-0.215,3100.0
-0.255,-0.215,3102.777777777778
-0.26,-0.225,3105.5555555555557
-0.27,-0.235,3108.3333333333335
-0.275,-0.22,3111.1111111111113
-0.25,-0.215,3113.8888888888887
-0.235,-0.23,3116.6666666666665
-0.235,-0.235,3119.4444444444443
-0.25,-0.24,3122.222222222222
-0.265,-0.24,3125.0
-0.28,-0.245,3127.777777777778
-0.28,-0.24,3130.5555555555557
-0.29,-0.255,3133.3333333333335
-0.31,-0.285,3136.1111111111113
-0.315,-0.285,3138.8888888888887
-0.315,-0.29,3141.6666666666665
-0.3,-0.275,3144.4444444444443
-0.285,-0.255,3147.222222222222
-0.28,-0.235,3150.0
-0.305,-0.23,3152.777777777778
-0.315,-0.225,3155.5555555555557
-0.34,-0.225,3158.3333333333335
-0.35,-0.225,3161.1111111111113
-0.345,-0.22,3163.8888888888887
-0.355,-0.235,3166.6666666666665
-0.38,-0.25,3169.4444444444443
-0.395,-0.255,3172.222222222222
-0.4,-0.24,3175.0
-0.385,-0.24,3177.777777777778
-0.395,-0.245,3180.5555555555557
-0.4,-0.25,3183.3333333333335
-0.405,-0.265,3186.1111111111113
-0.42,-0.265,3188.8888888888887
-0.435,-0.27,3191.6666666666665
-0.415,-0.255,3194.4444444444443
-0.42,-0.25,3197.222222222222
-0.425,-0.25,3200.0
-0.425,-0.26,3202.777777777778
-0.43,-0.26,3205.5555555555557
-0.43,-0.265,3208.3333333333335
-0.43,-0.25,3211.1111111111113
-0.43,-0.245,3213.8888888888887
-0.415,-0.245,3216.6666666666665
-0.425,-0.255,3219.4444444444443
-0.435,-0.255,3222.222222222222
-0.435,-0.26,3225.0
-0.425,-0.245,3227.777777777778
-0.42,-0.235,3230.5555555555557
-0.425,-0.25,3233.3333333333335
-0.42,-0.25,3236.1111111111113
-0.435,-0.25,3238.8888888888887
-0.465,-0.245,3241.6666666666665
-0.505,-0.25,3244.4444444444443
-0.555,-0.245,3247.222222222222
-0.585,-0.275,3250.0
-0.555,-0.26,3252.777777777778
-0.495,-0.24,3255.5555555555557
-0.41,-0.19,3258.3333333333335
-0.23,-0.125,3261.1111111111113
0.075,-0.015,3263.8888888888887
0.485,0.15,3266.6666666666665
0.9,0.37,3269.4444444444443
1.27,0.6,3272.222222222222
1.565,0.85,3275.0
1.77,1.06,3277.777777777778
1.82,1.18,3280.5555555555557
1.655,1.145,3283.3333333333335
1.245,0.93,3286.1111111111113
0.66,0.525,3288.8888888888887
0.085,0.045,3291.6666666666665
-0.335,-0.355,3294.4444444444443
-0.54,-0.565,3297.222222222222
-0.56,-0.61,3300.0
-0.515,-0.555,3302.777777777778
-0.425,-0.465,3305.5555555555557
-0.35,-0.33,3308.3333333333335
-0.325,-0.225,3311.1111111111113
-0.33,-0.175,3313.8888888888887
-0.365,-0.175,3316.6666666666665
-0.39,-0.19,3319.4444444444443
-0.4,-0.225,3322.222222222222
-0.395,-0.235,3325.0
-0.41,-0.21,3327.777777777778
-0.42,-0.2,3330.5555555555557
-0.435,-0.22,3333.3333333333335
-0.44,-0.23,3336.1111111111113
-0.45,-0.24,3338.8888888888887
-0.455,-0.25,3341.6666666666665
-0.46,-0.24,3344.4444444444443
-0.455,-0.23,3347.222222222222
-0.45,-0.23,3350.0
-0.46,-0.24,3352.777777777778
-0.48,-0.245,3355.5555555555557
-0.48,-0.235,3358.3333333333335
-0.465,-0.22,3361.1111111111113
-0.465,-0.21,3363.8888888888887
-0.46,-0.215,3366.6666666666665
-0.465,-0.22,3369.4444444444443
-0.465,-0.225,3372.222222222222
-0.47,-0.225,3375.0
-0.465,-0.215,3377.777777777778
-0.47,-0.215,3380.5555555555557
-0.47,-0.22,3383.3333333333335
-0.47,-0.22,3386.1111111111113
-0.47,-0.215,3388.8888888888887
-0.48,-0.215,3391.6666666666665
-0.47,-0.2,3394.4444444444443
-0.45,-0.185,3397.222222222222
-0.45,-0.2,3400.0
-0.455,-0.2,3402.777777777778
-0.455,-0.22,3405.5555555555557
-0.455,-0.205,3408.3333333333335
-0.46,-0.2,3411.1111111111113
-0.445,-0.185,3413.8888888888887
-0.43,-0.195,3416.6666666666665
-0.435,-0.195,3419.4444444444443
-0.425,-0.19,3422.222222222222
-0.43,-0.195,3425.0
-0.425,-0.18,3427.777777777778
-0.405,-0.165,3430.5555555555557
-0.4,-0.17,3433.3333333333335
-0.385,-0.165,3436.1111111111113
-0.385,-0.175,3438.8888888888887
-0.375,-0.16,3441.6666666666665
-0.375,-0.15,3444.4444444444443
-0.365,-0.155,3447.222222222222
-0.34,-0.135,3450.0
-0.335,-0.135,3452.777777777778
-0.325,-0.135,3455.5555555555557
-0.315,-0.125,3458.3333333333335
-0.29,-0.105,3461.1111111111113
-0.265,-0.08,3463.8888888888887
-0.245,-0.07,3466.6666666666665
-0.22,-0.08,3469.4444444444443
-0.215,-0.07,3472.222222222222
-0.21,-0.06,3475.0
-0.185,-0.04,3477.777777777778
-0.155,-0.025,3480.5555555555557
-0.13,-0.015,3483.3333333333335
-0.11,-0.015,3486.1111111111113
-0.09,-0.005,3488.8888888888887
-0.09,0.01,3491.6666666666665
-0.06,0.025,3494.4444444444443
-0.025,0.055,3497.222222222222
-0.01,0.055,3500.0
-0.005,0.065,3502.777777777778
0.015,0.08,3505.5555555555557
0.01,0.08,3508.3333333333335
0.045,0.105,3511.1111111111113
0.075,0.115,3513.8888888888887
0.08,0.115,3516.6666666666665
0.1,0.13,3519.4444444444443
0.085,0.105,3522.222222222222
0.095,0.12,3525.0
0.11,0.13,3527.777777777778
0.125,0.155,3530.5555555555557
0.12,0.15,3533.3333333333335
0.135,0.145,3536.1111111111113
0.12,0.12,3538.8888888888887
0.095,0.125,3541.6666666666665
0.095,0.125,3544.4444444444443
0.105,0.13,3547.222222222222
0.1,0.125,3550.0
0.085,0.115,3552.777777777778
0.055,0.09,3555.5555555555557
0.015,0.08,3558.3333333333335
0.01,0.075,3561.1111111111113
-0.005,0.06,3563.8888888888887
-0.02,0.045,3566.6666666666665
-0.055,0.025,3569.4444444444443
-0.075,0.015,3572.222222222222
-0.115,-0.01,3575.0
-0.125,-0.005,3577.777777777778
-0.14,-0.03,3580.5555555555557
-0.155,-0.045,3583.3333333333335
-0.18,-0.065,3586.1111111111113
-0.21,-0.095,3588.8888888888887
-0.235,-0.105,3591.6666666666665
-0.235,-0.11,3594.4444444444443
-0.25,-0.125,3597.222222222222
-0.25,-0.125,3600.0
-0.27,-0.16,3602.777777777778
-0.28,-0.17,3605.5555555555557
-0.29,-0.18,3608.3333333333335
-0.315,-0.175,3611.1111111111113
-0.3,-0.165,3613.8888888888887
-0.305,-0.17,3616.6666666666665
-0.305,-0.19,3619.4444444444443
-0.315,-0.21,3622.222222222222
-0.33,-0.215,3625.0
-0.33,-0.195,3627.777777777778
-0.32,-0.2,3630.5555555555557
-0.325,-0.205,3633.3333333333335
-0.315,-0.205,3636.1111111111113
-0.335,-0.225,3638.8888888888887
-0.345,-0.215,3641.6666666666665
-0.33,-0.21,3644.4444444444443
-0.32,-0.205,3647.222222222222
-0.315,-0.205,3650.0
-0.325,-0.215,3652.777777777778
-0.33,-0.23,3655.5555555555557
-0.34,-0.225,3658.3333333333335
-0.32,-0.21,3661.1111111111113
-0.315,-0.21,3663.8888888888887
-0.305,-0.205,3666.6666666666665
-0.31,-0.215,3669.4444444444443
-0.315,-0.215,3672.222222222222
-0.32,-0.215,3675.0
-0.3,-0.205,3677.777777777778
-0.295,-0.2,3680.5555555555557
-0.29,-0.195,3683.3333333333335
-0.3,-0.195,3686.1111111111113
-0.31,-0.2,3688.8888888888887
-0.31,-0.2,3691.6666666666665
-0.3,-0.18,3694.4444444444443
-0.29,-0.18,3697.222222222222
-0.29,-0.17,3700.0
-0.285,-0.185,3702.777777777778
-0.29,-0.185,3705.5555555555557
-0.295,-0.18,3708.3333333333335
-0.285,-0.18,3711.1111111111113
-0.27,-0.16,3713.8888888888887
-0.275,-0.165,3716.6666666666665
-0.275,-0.165,3719.4444444444443
-0.28,-0.18,3722.222222222222
-0.29,-0.175,3725.0
-0.29,-0.17,3727.777777777778
-0.28,-0.155,3730.5555555555557
-0.28,-0.165,3733.3333333333335
-0.27,-0.16,3736.1111111111113
-0.28,-0.185,3738.8888888888887
-0.295,-0.185,3741.6666666666665
-0.29,-0.175,3744.4444444444443
-0.27,-0.17,3747.222222222222
-0.285,-0.165,3750.0
-0.285,-0.185,3752.777777777778
-0.29,-0.205,3755.5555555555557
-0.3,-0.195,3758.3333333333335
-0.285,-0.185,3761.1111111111113
-0.29,-0.17,3763.8888888888887
-0.295,-0.175,3766.6666666666665
-0.305,-0.19,3769.4444444444443
-0.305,-0.195,3772.222222222222
-0.315,-0.2,3775.0
-0.3,-0.185,3777.777777777778
-0.3,-0.205,3780.5555555555557
-0.3,-0.19,3783.3333333333335
-0.31,-0.205,3786.1111111111113
-0.315,-0.215,3788.8888888888887
-0.335,-0.22,3791.6666666666665
-0.32,-0.22,3794.4444444444443
-0.31,-0.2,3797.222222222222
-0.315,-0.215,3800.0
-0.325,-0.23,3802.777777777778
-0.325,-0.23,3805.5555555555557
-0.34,-0.23,3808.3333333333335
-0.335,-0.23,3811.1111111111113
-0.335,-0.23,3813.8888888888887
-0.33,-0.23,3816.6666666666665
-0.34,-0.25,3819.4444444444443
-0.345,-0.255,3822.222222222222
-0.35,-0.25,3825.0
-0.345,-0.235,3827.777777777778
-0.335,-0.225,3830.5555555555557
-0.335,-0.245,3833.3333333333335
-0.345,-0.25,3836.1111111111113
-0.375,-0.26,3838.8888888888887
-0.37,-0.26,3841.6666666666665
-0.36,-0.26,3844.4444444444443
-0.345,-0.245,3847.222222222222
-0.35,-0.25,3850.0
-0.355,-0.265,3852.777777777778
-0.365,-0.275,3855.5555555555557
-0.38,-0.27,3858.3333333333335
-0.37,-0.25,3861.1111111111113
-0.365,-0.25,3863.8888888888887
-0.36,-0.25,3866.6666666666665
-0.37,-0.255,3869.4444444444443
-0.37,-0.26,3872.222222222222
-0.375,-0.26,3875.0
-0.37,-0.26,3877.777777777778
-0.37,-0.245,3880.5555555555557
-0.365,-0.245,3883.3333333333335
-0.37,-0.26,3886.1111111111113
-0.38,-0.27,3888.8888888888887
-0.38,-0.255,3891.6666666666665
-0.375,-0.26,3894.4444444444443
-0.365,-0.24,3897.222222222222
-0.36,-0.255,3900.0
-0.365,-0.26,3902.777777777778
-0.355,-0.28,3905.5555555555557
-0.355,-0.27,3908.3333333333335
-0.355,-0.25,3911.1111111111113
-0.335,-0.245,3913.8888888888887
-0.31,-0.24,3916.6666666666665
-0.31,-0.255,3919.4444444444443
-0.3,-0.255,3922.222222222222
-0.295,-0.26,3925.0
-0.295,-0.245,3927.777777777778
-0.28,-0.225,3930.5555555555557
-0.275,-0.23,3933.3333333333335
-0.27,-0.24,3936.1111111111113
-0.27,-0.245,3938.8888888888887
-0.265,-0.245,3941.6666666666665
-0.26,-0.23,3944.4444444444443
-0.255,-0.24,3947.222222222222
-0.255,-0.25,3950.0
-0.245,-0.24,3952.777777777778
-0.24,-0.25,3955.5555555555557
-0.255,-0.25,3958.3333333333335
-0.245,-0.235,3961.1111111111113
-0.25,-0.23,3963.8888888888887
-0.26,-0.255,3966.6666666666665
-0.275,-0.25,3969.4444444444443
-0.29,-0.275,3972.222222222222
-0.31,-0.28,3975.0
-0.32,-0.285,3977.777777777778
-0.305,-0.275,3980.5555555555557
-0.29,-0.285,3983.3333333333335
-0.285,-0.295,3986.1111111111113
-0.29,-0.285,3988.8888888888887
-0.305,-0.25,3991.6666666666665
-0.31,-0.225,3994.4444444444443
-0.325,-0.215,3997.222222222222
-0.335,-0.23,4000.0
-0.335,-0.23,4002.777777777778
-0.36,-0.24,4005.5555555555557
-0.38,-0.25,4008.3333333333335
-0.385,-0.245,4011.1111111111113
-0.38,-0.255,4013.8888888888887
-0.39,-0.255,4016.6666666666665
-0.405,-0.26,4019.4444444444443
-0.42,-0.275,4022.222222222222
-0.43,-0.275,4025.0
-0.425,-0.275,4027.777777777778
-0.42,-0.26,4030.5555555555557
-0.43,-0.28,4033.3333333333335
-0.425,-0.28,4036.1111111111113
-0.44,-0.29,4038.8888888888887
-0.435,-0.275,4041.6666666666665
-0.425,-0.265,4044.4444444444443
-0.43,-0.265,4047.222222222222
-0.425,-0.255,4050.0
-0.425,-0.265,4052.777777777778
-0.43,-0.28,4055.5555555555557
-0.44,-0.275,4058.3333333333335
-0.445,-0.27,4061.1111111111113
-0.42,-0.255,4063.8888888888887
-0.415,-0.26,4066.6666666666665
-0.425,-0.26,4069.4444444444443
-0.425,-0.26,4072.222222222222
-0.445,-0.265,4075.0
-0.45,-0.255,4077.777777777778
-0.48,-0.255,4080.5555555555557
-0.53,-0.27,4083.3333333333335
-0.58,-0.3,4086.1111111111113
-0.59,-0.31,4088.8888888888887
-0.565,-0.295,4091.6666666666665
-0.48,-0.255,4094.4444444444443
-0.36,-0.2,4097.222222222223
-0.15,-0.145,4100.0
0.18,-0.04,4102.777777777777
0.59,0.15,4105.555555555556
0.985,0.395,4108.333333333333
1.37,0.665,4111.111111111111
1.665,0.925,4113.888888888889
1.82,1.16,4116.666666666667
1.825,1.275,4119.444444444444
1.655,1.245,4122.222222222223
1.215,1.005,4125.0
0.64,0.605,4127.777777777777
0.09,0.12,4130.555555555556
-0.28,-0.31,4133.333333333333
-0.48,-0.585,4136.111111111111
-0.53,-0.665,4138.888888888889
-0.505,-0.605,4141.666666666667
-0.425,-0.5,4144.444444444444
-0.345,-0.37,4147.222222222223
-0.295,-0.275,4150.0
-0.315,-0.21,4152.777777777777
-0.37,-0.2,4155.555555555556
-0.4,-0.21,4158.333333333333
-0.39,-0.22,4161.111111111111
-0.385,-0.22,4163.888888888889
-0.385,-0.22,4166.666666666667
-0.41,-0.24,4169.444444444444
-0.43,-0.24,4172.222222222223
-0.445,-0.25,4175.0
-0.445,-0.25,4177.777777777777
-0.435,-0.25,4180.555555555556
-0.435,-0.23,4183.333333333333
-0.455,-0.255,4186.111111111111
-0.465,-0.26,4188.888888888889
-0.47,-0.255,4191.666666666667
-0.465,-0.25,4194.444444444444
-0.455,-0.235,4197.222222222223
-0.455,-0.24,4200.0
-0.455,-0.24,4202.777777777777
-0.465,-0.245,4205.555555555556
-0.48,-0.25,4208.333333333333
-0.475,-0.23,4211.111111111111
-0.465,-0.22,4213.888888888889
-0.465,-0.225,4216.666666666667
-0.465,-0.245,4219.444444444444
-0.46,-0.255,4222.222222222223
-0.475,-0.24,4225.0
-0.47,-0.225,4227.777777777777
-0.465,-0.21,4230.555555555556
-0.45,-0.23,4233.333333333333
-0.45,-0.215,4236.111111111111
-0.46,-0.235,4238.888888888889
-0.47,-0.225,4241.666666666667
-0.455,-0.23,4244.444444444444
-0.445,-0.21,4247.222222222223
-0.44,-0.215,4250.0
-0.435,-0.21,4252.777777777777
-0.435,-0.215,4255.555555555556
-0.44,-0.215,4258.333333333333
-0.445,-0.2,4261.111111111111
-0.43,-0.19,4263.888888888889
-0.41,-0.195,4266.666666666667
-0.41,-0.2,4269.444444444444
-0.41,-0.19,4272.222222222223
-0.405,-0.19,4275.0
-0.4,-0.185,4277.777777777777
-0.38,-0.155,4280.555555555556
-0.365,-0.165,4283.333333333333
-0.36,-0.165,4286.111111111111
-0.355,-0.17,4288.888888888889
-0.345,-0.155,4291.666666666667
-0.33,-0.145,4294.444444444444
-0.305,-0.13,4297.222222222223
-0.3,-0.11,4300.0
-0.285,-0.115,4302.777777777777
-0.27,-0.11,4305.555555555556
-0.26,-0.1,4308.333333333333
-0.23,-0.075,4311.111111111111
-0.22,-0.065,4313.888888888889
-0.2,-0.045,4316.666666666667
-0.185,-0.05,4319.444444444444
-0.16,-0.035,4322.222222222223
-0.15,-0.03,4325.0
-0.12,-0.025,4327.777777777777
-0.095,0.0,4330.555555555556
-0.075,0.025,4333.333333333333
-0.05,0.025,4336.111111111111
-0.035,0.035,4338.888888888889
-0.035,0.055,4341.666666666667
-0.005,0.07,4344.444444444444
0.025,0.085,4347.222222222223
0.035,0.095,4350.0
0.05,0.085,4352.777777777777
0.045,0.095,4355.555555555556
0.06,0.105,4358.333333333333
0.07,0.105,4361.111111111111
0.09,0.135,4363.888888888889
0.105,0.135,4366.666666666667
0.115,0.14,4369.444444444444
0.12,0.13,4372.222222222223
0.11,0.135,4375.0
0.12,0.15,4377.777777777777
0.12,0.155,4380.555555555556
0.13,0.155,4383.333333333333
0.13,0.135,4386.111111111111
0.105,0.14,4388.888888888889
0.085,0.13,4391.666666666667
0.09,0.145,4394.444444444444
0.08,0.12,4397.222222222223
0.06,0.115,4400.0
0.035,0.095,4402.777777777777
-0.005,0.075,4405.555555555556
-0.025,0.07,4408.333333333333
-0.025,0.06,4411.111111111111
-0.045,0.035,4413.888888888889
-0.065,0.025,4416.666666666667
-0.105,-0.01,4419.444444444444
-0.145,-0.03,4422.222222222223
-0.165,-0.05,4425.0
-0.18,-0.055,4427.777777777777
-0.195,-0.07,4430.555555555556
-0.22,-0.085,4433.333333333333
-0.24,-0.105,4436.111111111111
-0.25,-0.13,4438.888888888889
-0.27,-0.14,4441.666666666667
-0.28,-0.145,4444.444444444444
-0.28,-0.155,4447.222222222223
-0.275,-0.16,4450.0
-0.285,-0.17,4452.777777777777
-0.305,-0.185,4455.555555555556
-0.32,-0.195,4458.333333333333
-0.32,-0.185,4461.111111111111
-0.31,-0.195,4463.888888888889
-0.315,-0.205,4466.666666666667
-0.31,-0.215,4469.444444444444
-0.325,-0.225,4472.222222222223
-0.35,-0.235,4475.0
-0.35,-0.22,4477.777777777777
-0.33,-0.21,4480.555555555556
-0.325,-0.205,4483.333333333333
-0.325,-0.21,4486.111111111111
-0.34,-0.225,4488.888888888889
-0.345,-0.235,4491.666666666667
-0.33,-0.225,4494.444444444444
-0.33,-0.215,4497.222222222223
-0.33,-0.2,4500.0
-0.32,-0.225,4502.777777777777
-0.34,-0.23,4505.555555555556
-0.34,-0.22,4508.333333333333
-0.325,-0.22,4511.111111111111
-0.305,-0.215,4513.888888888889
-0.315,-0.21,4516.666666666667
-0.305,-0.215,4519.444444444444
-0.31,-0.22,4522.222222222223
-0.315,-0.21,4525.0
-0.305,-0.21,4527.777777777777
-0.3,-0.19,4530.555555555556
-0.295,-0.195,4533.333333333333
-0.3,-0.19,4536.111111111111
-0.3,-0.195,4538.888888888889
-0.31,-0.205,4541.666666666667
-0.3,-0.19,4544.444444444444
-0.29,-0.18,4547.222222222223
-0.275,-0.175,4550.0
-0.285,-0.18,4552.777777777777
-0.295,-0.19,4555.555555555556
-0.3,-0.18,4558.333333333333
-0.295,-0.18,4561.111111111111
-0.27,-0.16,4563.888888888889
-0.275,-0.17,4566.666666666667
-0.275,-0.18,4569.444444444444
-0.295,-0.185,4572.222222222223
-0.295,-0.195,4575.0
-0.29,-0.18,4577.777777777777
-0.275,-0.19,4580.555555555556
-0.285,-0.18,4583.333333333333
-0.27,-0.185,4586.111111111111
-0.29,-0.2,4588.888888888889
-0.29,-0.2,4591.666666666667
-0.285,-0.195,4594.444444444444
-0.275,-0.19,4597.222222222223
-0.27,-0.195,4600.0
-0.285,-0.195,4602.777777777777
-0.29,-0.215,4605.555555555556
-0.305,-0.2,4608.333333333333
-0.295,-0.2,4611.111111111111
-0.295,-0.195,4613.888888888889
-0.29,-0.19,4616.666666666667
-0.29,-0.2,4619.444444444444
-0.305,-0.22,4622.222222222223
-0.31,-0.23,4625.0
-0.31,-0.215,4627.777777777777
-0.3,-0.205,4630.555555555556
-0.315,-0.21,4633.333333333333
-0.31,-0.215,4636.111111111111
-0.32,-0.225,4638.888888888889
-0.33,-0.225,4641.666666666667
-0.32,-0.22,4644.444444444444
-0.33,-0.2,4647.222222222223
-0.31,-0.215,4650.0
-0.325,-0.22,4652.777777777777
-0.335,-0.225,4655.555555555556
-0.345,-0.24,4658.333333333333
-0.335,-0.24,4661.111111111111
-0.34,-0.22,4663.888888888889
-0.33,-0.22,4666.666666666667
-0.34,-0.245,4669.444444444444
-0.35,-0.24,4672.222222222223
-0.355,-0.245,4675.0
-0.355,-0.24,4677.777777777777
-0.335,-0.23,4680.555555555556
-0.335,-0.24,4683.333333333333
-0.345,-0.255,4686.111111111111
-0.35,-0.26,4688.888888888889
-0.365,-0.26,4691.666666666667
-0.365,-0.24,4694.444444444444
-0.365,-0.26,4697.222222222223
-0.345,-0.255,4700.0
-0.36,-0.27,4702.777777777777
-0.36,-0.285,4705.555555555556
-0.365,-0.275,4708.333333333333
-0.37,-0.27,4711.111111111111
-0.365,-0.265,4713.888888888889
-0.35,-0.275,4716.666666666667
-0.35,-0.285,4719.444444444444
-0.37,-0.275,4722.222222222223
-0.37,-0.275,4725.0
-0.36,-0.265,4727.777777777777
-0.345,-0.26,4730.555555555556
-0.35,-0.245,4733.333333333333
-0.36,-0.265,4736.111111111111
-0.37,-0.275,4738.888888888889
-0.375,-0.27,4741.666666666667
-0.36,-0.27,4744.444444444444
-0.36,-0.26,4747.222222222223
-0.35,-0.265,4750.0
-0.345,-0.275,4752.777777777777
-0.355,-0.285,4755.555555555556
-0.35,-0.275,4758.333333333333
-0.33,-0.255,4761.111111111111
-0.315,-0.255,4763.888888888889
-0.29,-0.25,4766.666666666667
-0.29,-0.265,4769.444444444444
-0.295,-0.27,4772.222222222223
-0.295,-0.265,4775.0
-0.29,-0.245,4777.777777777777
-0.27,-0.25,4780.555555555556
-0.26,-0.25,4783.333333333333
-0.255,-0.26,4786.111111111111
-0.265,-0.25,4788.888888888889
-0.27,-0.255,4791.666666666667
-0.255,-0.25,4794.444444444444
-0.245,-0.235,4797.222222222223
-0.245,-0.245,4800.0
-0.25,-0.25,4802.777777777777
-0.245,-0.255,4805.555555555556
-0.25,-0.245,4808.333333333333
-0.24,-0.24,4811.111111111111
-0.24,-0.23,4813.888888888889
-0.25,-0.245,4816.666666666667
-0.27,-0.25,4819.444444444444
-0.275,-0.27,4822.222222222223
-0.295,-0.285,4825.0
-0.31,-0.285,4827.777777777777
-0.3,-0.29,4830.555555555556
-0.28,-0.3,4833.333333333333
-0.28,-0.295,4836.111111111111
-0.28,-0.29,4838.888888888889
-0.28,-0.28,4841.666666666667
-0.29,-0.235,4844.444444444444
-0.3,-0.225,4847.222222222223
-0.31,-0.22,4850.0
-0.325,-0.23,4852.777777777777
-0.35,-0.25,4855.555555555556
-0.35,-0.235,4858.333333333333
-0.365,-0.24,4861.111111111111
-0.365,-0.23,4863.888888888889
-0.37,-0.25,4866.666666666667
-0.38,-0.26,4869.444444444444
-0.38,-0.28,4872.222222222223
-0.4,-0.26,4875.0
-0.405,-0.255,4877.777777777777
-0.415,-0.255,4880.555555555556
-0.415,-0.265,4883.333333333333
-0.42,-0.27,4886.111111111111
-0.425,-0.28,4888.888888888889
-0.445,-0.285,4891.666666666667
-0.44,-0.275,4894.444444444444
-0.42,-0.255,4897.222222222223
-0.425,-0.265,4900.0
-0.425,-0.28,4902.777777777777
-0.43,-0.27,4905.555555555556
-0.43,-0.28,4908.333333333333
-0.42,-0.255,4911.111111111111
-0.41,-0.26,4913.888888888889
-0.415,-0.26,4916.666666666667
-0.435,-0.265,4919.444444444444
-0.415,-0.275,4922.222222222223
-0.42,-0.285,4925.0
-0.415,-0.275,4927.777777777777
-0.415,-0.255,4930.555555555556
-0.41,-0.255,4933.333333333333
-0.41,-0.26,4936.111111111111
-0.42,-0.265,4938.888888888889
-0.45,-0.265,4941.666666666667
-0.47,-0.26,4944.444444444444
-0.53,-0.265,4947.222222222223
-0.58,-0.28,4950.0
-0.595,-0.305,4952.777777777777
-0.56,-0.3,4955.555555555556
-0.515,-0.27,4958.333333333333
-0.43,-0.22,4961.111111111111
-0.285,-0.175,4963.888888888889
-0.055,-0.125,4966.666666666667
0.27,-0.015,4969.444444444444
0.6,0.145,4972.222222222223
0.935,0.365,4975.0
1.265,0.59,4977.777777777777
1.575,0.84,4980.555555555556
1.785,1.075,4983.333333333333
1.875,1.255,4986.111111111111
1.8,1.305,4988.888888888889
1.555,1.21,4991.666666666667
1.09,0.965,4994.444444444444
0.55,0.57,4997.222222222223
0.08,0.115,5000.0
-0.27,-0.295,5002.777777777777
-0.44,-0.56,5005.555555555556
-0.51,-0.675,5008.333333333333
-0.51,-0.66,5011.111111111111
-0.485,-0.585,5013.888888888889
-0.41,-0.505,5016.666666666667
-0.345,-0.395,5019.444444444444
-0.31,-0.305,5022.222222222223
-0.325,-0.255,5025.0
-0.345,-0.215,5027.777777777777
-0.355,-0.19,5030.555555555556
-0.375,-0.215,5033.333333333333
-0.375,-0.23,5036.111111111111
-0.395,-0.235,5038.888888888889
-0.41,-0.23,5041.666666666667
-0.395,-0.215,5044.444444444444
-0.4,-0.215,5047.222222222223
-0.42,-0.24,5050.0
-0.435,-0.245,5052.777777777777
-0.445,-0.25,5055.555555555556
-0.455,-0.25,5058.333333333333
-0.46,-0.245,5061.111111111111
-0.445,-0.225,5063.888888888889
-0.46,-0.23,5066.666666666667
-0.45,-0.245,5069.444444444444
-0.465,-0.25,5072.222222222223
-0.47,-0.255,5075.0
-0.46,-0.23,5077.777777777777
-0.44,-0.22,5080.555555555556
-0.45,-0.235,5083.333333333333
-0.46,-0.235,5086.111111111111
-0.46,-0.245,5088.888888888889
-0.485,-0.255,5091.666666666667
-0.465,-0.24,5094.444444444444
-0.465,-0.235,5097.222222222223
-0.455,-0.235,5100.0
-0.46,-0.225,5102.777777777777
-0.47,-0.25,5105.555555555556
-0.47,-0.245,5108.333333333333
-0.455,-0.23,5111.111111111111
-0.46,-0.215,5113.888888888889
-0.455,-0.215,5116.666666666667
-0.445,-0.22,5119.444444444444
-0.45,-0.215,5122.222222222223
-0.465,-0.22,5125.0
-0.445,-0.215,5127.777777777777
-0.435,-0.205,5130.555555555556
-0.42,-0.215,5133.333333333333
-0.43,-0.2,5136.111111111111
-0.43,-0.205,5138.888888888889
-0.445,-0.205,5141.666666666667
-0.435,-0.19,5144.444444444444
-0.415,-0.18,5147.222222222223
-0.41,-0.18,5150.0
-0.41,-0.185,5152.777777777777
-0.415,-0.185,5155.555555555556
-0.405,-0.19,5158.333333333333
-0.41,-0.175,5161.111111111111
-0.39,-0.165,5163.888888888889
-0.38,-0.175,5166.666666666667
-0.365,-0.185,5169.444444444444
-0.365,-0.175,5172.222222222223
-0.36,-0.165,5175.0
-0.36,-0.16,5177.777777777777
-0.325,-0.14,5180.555555555556
-0.315,-0.13,5183.333333333333
-0.295,-0.145,5186.111111111111
-0.29,-0.13,5188.888888888889
-0.29,-0.12,5191.666666666667
-0.275,-0.1,5194.444444444444
-0.25,-0.075,5197.222222222223
-0.225,-0.07,5200.0
-0.205,-0.075,5202.777777777777
-0.205,-0.07,5205.555555555556
-0.185,-0.05,5208.333333333333
-0.17,-0.03,5211.111111111111
-0.14,-0.015,5213.888888888889
-0.125,-0.005,5216.666666666667
-0.12,0.005,5219.444444444444
-0.1,-0.005,5222.222222222223
-0.095,0.015,5225.0
-0.075,0.025,5227.777777777777
-0.04,0.05,5230.555555555556
-0.02,0.06,5233.333333333333
-0.005,0.065,5236.111111111111
-0.005,0.055,5238.888888888889
-0.005,0.06,5241.666666666667
0.02,0.08,5244.444444444444
0.045,0.105,5247.222222222223
0.07,0.1,5250.0
0.08,0.105,5252.777777777777
0.075,0.115,5255.555555555556
0.085,0.125,5258.333333333333
0.105,0.15,5261.111111111111
0.12,0.165,5263.888888888889
0.13,0.155,5266.666666666667
0.125,0.155,5269.444444444444
0.115,0.145,5272.222222222223
0.115,0.14,5275.0
0.125,0.145,5277.777777777777
0.125,0.17,5280.555555555556
0.135,0.175,5283.333333333333
0.115,0.16,5286.111111111111
0.095,0.155,5288.888888888889
0.08,0.145,5291.666666666667
0.07,0.145,5294.444444444444
0.065,0.14,5297.222222222223
0.045,0.125,5300.0
0.015,0.11,5302.777777777777
0.0,0.09,5305.555555555556
-0.045,0.08,5308.333333333333
-0.04,0.07,5311.111111111111
-0.07,0.06,5313.888888888889
-0.08,0.05,5316.666666666667
-0.1,0.02,5319.444444444444
-0.14,-0.01,5322.222222222223
-0.16,-0.015,5325.0
-0.185,-0.03,5327.777777777777
-0.185,-0.03,5330.555555555556
-0.195,-0.04,5333.333333333333
-0.21,-0.075,5336.111111111111
-0.225,-0.085,5338.888888888889
-0.255,-0.095,5341.666666666667
-0.245,-0.105,5344.444444444444
-0.26,-0.11,5347.222222222223
-0.265,-0.12,5350.0
-0.275,-0.135,5352.777777777777
-0.285,-0.145,5355.555555555556
-0.305,-0.16,5358.333333333333
-0.29,-0.16,5361.111111111111
-0.295,-0.145,5363.888888888889
-0.285,-0.16,5366.666666666667
-0.305,-0.175,5369.444444444444
-0.325,-0.185,5372.222222222223
-0.325,-0.195,5375.0
-0.33,-0.19,5377.777777777777
-0.31,-0.19,5380.555555555556
-0.315,-0.19,5383.333333333333
-0.31,-0.205,5386.111111111111
-0.325,-0.21,5388.888888888889
-0.325,-0.205,5391.666666666667
-0.325,-0.2,5394.444444444444
-0.32,-0.18,5397.222222222223
-0.325,-0.18,5400.0
-0.325,-0.185,5402.777777777777
-0.32,-0.195,5405.555555555556
-0.32,-0.18,5408.333333333333
-0.31,-0.175,5411.111111111111
-0.3,-0.17,5413.888888888889
-0.295,-0.16,5416.666666666667
-0.315,-0.17,5419.444444444444
-0.3,-0.19,5422.222222222223
-0.31,-0.195,5425.0
-0.31,-0.18,5427.777777777777
-0.3,-0.18,5430.555555555556
-0.29,-0.17,5433.333333333333
-0.29,-0.18,5436.111111111111
-0.29,-0.175,5438.888888888889
-0.305,-0.185,5441.666666666667
-0.285,-0.165,5444.444444444444
-0.28,-0.14,5447.222222222223
-0.275,-0.155,5450.0
-0.275,-0.16,5452.777777777777
-0.275,-0.165,5455.555555555556
-0.28,-0.16,5458.333333333333
-0.285,-0.155,5461.111111111111
-0.27,-0.15,5463.888888888889
-0.27,-0.14,5466.666666666667
-0.27,-0.155,5469.444444444444
-0.275,-0.17,5472.222222222223
-0.28,-0.15,5475.0
-0.27,-0.14,5477.777777777777
-0.27,-0.13,5480.555555555556
-0.27,-0.13,5483.333333333333
-0.27,-0.145,5486.111111111111
-0.27,-0.155,5488.888888888889
-0.28,-0.155,5491.666666666667
-0.275,-0.145,5494.444444444444
-0.265,-0.125,5497.222222222223
-0.265,-0.125,5500.0
-0.27,-0.145,5502.777777777777
-0.28,-0.145,5505.555555555556
-0.285,-0.145,5508.333333333333
-0.28,-0.14,5511.111111111111
-0.285,-0.14,5513.888888888889
-0.285,-0.155,5516.666666666667
-0.28,-0.155,5519.444444444444
-0.29,-0.175,5522.222222222223
-0.3,-0.16,5525.0
-0.295,-0.16,5527.777777777777
-0.28,-0.145,5530.555555555556
-0.28,-0.15,5533.333333333333
-0.275,-0.15,5536.111111111111
-0.3,-0.165,5538.888888888889
-0.31,-0.155,5541.666666666667
-0.3,-0.16,5544.444444444444
-0.295,-0.16,5547.222222222223
-0.3,-0.165,5550.0
-0.3,-0.195,5552.777777777777
-0.31,-0.19,5555.555555555556
-0.32,-0.175,5558.333333333333
-0.32,-0.155,5561.111111111111
-0.31,-0.165,5563.888888888889
-0.305,-0.165,5566.666666666667
-0.32,-0.185,5569.444444444444
-0.315,-0.195,5572.222222222223
-0.34,-0.205,5575.0
-0.33,-0.2,5577.777777777777
-0.32,-0.185,5580.555555555556
-0.325,-0.2,5583.333333333333
-0.33,-0.19,5586.111111111111
-0.33,-0.2,5588.888888888889
-0.34,-0.205,5591.666666666667
-0.335,-0.205,5594.444444444444
-0.34,-0.185,5597.222222222223
-0.33,-0.19,5600.0
-0.34,-0.21,5602.777777777777
-0.34,-0.22,5605.555555555556
-0.365,-0.23,5608.333333333333
-0.35,-0.205,5611.111111111111
-0.355,-0.205,5613.888888888889
-0.345,-0.21,5616.666666666667
-0.355,-0.235,5619.444444444444
-0.365,-0.225,5622.222222222223
-0.36,-0.245,5625.0
-0.365,-0.225,5627.777777777777
-0.36,-0.215,5630.555555555556
-0.355,-0.22,5633.333333333333
-0.355,-0.235,5636.111111111111
-0.36,-0.24,5638.888888888889
-0.375,-0.24,5641.666666666667
-0.365,-0.23,5644.444444444444
-0.37,-0.215,5647.222222222223
-0.36,-0.22,5650.0
-0.355,-0.225,5652.777777777777
-0.37,-0.225,5655.555555555556
-0.375,-0.23,5658.333333333333
-0.36,-0.215,5661.111111111111
-0.36,-0.215,5663.888888888889
-0.35,-0.23,5666.666666666667
-0.35,-0.245,5669.444444444444
-0.37,-0.245,5672.222222222223
-0.375,-0.245,5675.0
-0.365,-0.24,5677.777777777777
-0.36,-0.215,5680.555555555556
-0.36,-0.23,5683.333333333333
-0.36,-0.23,5686.111111111111
-0.36,-0.235,5688.888888888889
-0.365,-0.24,5691.666666666667
-0.35,-0.225,5694.444444444444
-0.325,-0.215,5697.222222222223
-0.315,-0.23,5700.0
-0.305,-0.225,5702.777777777777
-0.3,-0.23,5705.555555555556
-0.305,-0.235,5708.333333333333
-0.295,-0.215,5711.111111111111
-0.285,-0.2,5713.888888888889
-0.275,-0.215,5716.666666666667
-0.285,-0.22,5719.444444444444
-0.275,-0.225,5722.222222222223
-0.275,-0.22,5725.0
-0.255,-0.22,5727.777777777777
-0.24,-0.2,5730.555555555556
-0.245,-0.205,5733.333333333333
-0.24,-0.215,5736.111111111111
-0.25,-0.225,5738.888888888889
-0.245,-0.205,5741.666666666667
-0.235,-0.195,5744.444444444444
-0.235,-0.185,5747.222222222223
-0.245,-0.2,5750.0
-0.255,-0.21,5752.777777777777
-0.285,-0.24,5755.555555555556
-0.31,-0.26,5758.333333333333
-0.315,-0.26,5761.111111111111
-0.31,-0.255,5763.888888888889
-0.29,-0.26,5766.666666666667
-0.29,-0.255,5769.444444444444
-0.29,-0.26,5772.222222222223
-0.305,-0.23,5775.0
-0.31,-0.205,5777.777777777777
-0.32,-0.185,5780.555555555556
-0.33,-0.18,5783.333333333333
-0.35,-0.205,5786.111111111111
-0.355,-0.215,5788.888888888889
-0.37,-0.21,5791.666666666667
-0.365,-0.2,5794.444444444444
-0.37,-0.19,5797.222222222223
-0.385,-0.21,5800.0
-0.395,-0.22,5802.777777777777
-0.405,-0.24,5805.555555555556
-0.41,-0.235,5808.333333333333
-0.41,-0.235,5811.111111111111
-0.4,-0.22,5813.888888888889
-0.4,-0.23,5816.666666666667
-0.41,-0.24,5819.444444444444
-0.43,-0.24,5822.222222222223
-0.44,-0.24,5825.0
-0.425,-0.24,5827.777777777777
-0.43,-0.22,5830.555555555556
-0.425,-0.225,5833.333333333333
-0.415,-0.24,5836.111111111111
-0.425,-0.245,5838.888888888889
-0.42,-0.23,5841.666666666667
-0.415,-0.225,5844.444444444444
-0.4,-0.21,5847.222222222223
-0.405,-0.225,5850.0
-0.41,-0.23,5852.777777777777
-0.415,-0.225,5855.555555555556
-0.415,-0.22,5858.333333333333
-0.405,-0.215,5861.111111111111
-0.4,-0.195,5863.888888888889
-0.41,-0.19,5866.666666666667
-0.42,-0.21,5869.444444444444
-0.475,-0.215,5872.222222222223
-0.53,-0.24,5875.0
-0.56,-0.23,5877.777777777777
-0.56,-0.23,5880.555555555556
-0.505,-0.215,5883.333333333333
-0.44,-0.175,5886.111111111111
-0.315,-0.155,5888.888888888889
-0.105,-0.105,5891.666666666667
0.22,0.02,5894.444444444444
0.57,0.21,5897.222222222223
0.91,0.43,5900.0
1.255,0.65,5902.777777777777
1.535,0.86,5905.555555555556
1.7,1.075,5908.333333333333
1.77,1.215,5911.111111111111
1.67,1.215,5913.888888888889
1.335,1.08,5916.666666666667
0.845,0.8,5919.444444444444
0.35,0.425,5922.222222222223
-0.05,0.035,5925.0
-0.33,-0.29,5927.777777777777
-0.475,-0.485,5930.555555555556
-0.525,-0.545,5933.333333333333
-0.52,-0.545,5936.111111111111
-0.455,-0.465,5938.888888888889
-0.365,-0.345,5941.666666666667
-0.315,-0.22,5944.444444444444
-0.295,-0.15,5947.222222222223
-0.345,-0.14,5950.0
-0.375,-0.17,5952.777777777777
-0.39,-0.2,5955.555555555556
-0.395,-0.185,5958.333333333333
-0.375,-0.17,5961.111111111111
-0.38,-0.16,5963.888888888889
-0.4,-0.16,5966.666666666667
-0.425,-0.175,5969.444444444444
-0.43,-0.2,5972.222222222223
-0.445,-0.205,5975.0
-0.435,-0.19,5977.777777777777
-0.43,-0.18,5980.555555555556
-0.43,-0.195,5983.333333333333
-0.425,-0.195,5986.111111111111
-0.445,-0.19,5988.888888888889
-0.445,-0.2,5991.666666666667
-0.455,-0.185,5994.444444444444
-0.445,-0.17,5997.222222222223
-0.43,-0.165,6000.0
-0.43,-0.185,6002.777777777777
-0.45,-0.18,6005.555555555556
-0.46,-0.185,6008.333333333333
-0.445,-0.18,6011.111111111111
-0.445,-0.185,6013.888888888889
-0.435,-0.18,6016.666666666667
-0.44,-0.19,6019.444444444444
-0.445,-0.2,6022.222222222223
-0.455,-0.185,6025.0
-0.45,-0.18,6027.777777777777
-0.435,-0.165,6030.555555555556
-0.425,-0.165,6033.333333333333
-0.435,-0.175,6036.111111111111
-0.445,-0.17,6038.888888888889
-0.45,-0.17,6041.666666666667
-0.44,-0.16,6044.444444444444
-0.425,-0.155,6047.222222222223
-0.42,-0.155,6050.0
-0.425,-0.175,6052.777777777777
-0.425,-0.17,6055.555555555556
-0.43,-0.17,6058.333333333333
-0.415,-0.155,6061.111111111111
-0.405,-0.16,6063.888888888889
-0.4,-0.155,6066.666666666667
-0.395,-0.17,6069.444444444444
-0.4,-0.155,6072.222222222223
-0.4,-0.15,6075.0
-0.38,-0.14,6077.777777777777
-0.37,-0.14,6080.555555555556
-0.37,-0.13,6083.333333333333
-0.365,-0.14,6086.111111111111
-0.36,-0.135,6088.888888888889
-0.365,-0.13,6091.666666666667
-0.34,-0.115,6094.444444444444
-0.325,-0.105,6097.222222222223
-0.31,-0.1,6100.0
-0.305,-0.1,6102.777777777777
-0.3,-0.085,6105.555555555556
-0.285,-0.075,6108.333333333333
-0.265,-0.065,6111.111111111111
-0.245,-0.035,6113.888888888889
-0.225,-0.03,6116.666666666667
-0.215,-0.015,6119.444444444444
-0.22,-0.025,6122.222222222223
-0.195,-0.005,6125.0
-0.165,0.0,6127.777777777777
-0.145,0.035,6130.555555555556
-0.12,0.04,6133.333333333333
-0.11,0.04,6136.111111111111
-0.11,0.055,6138.888888888889
-0.09,0.055,6141.666666666667
-0.065,0.075,6144.444444444444
-0.04,0.105,6147.222222222223
-0.02,0.105,6150.0
-0.01,0.11,6152.777777777777
0.005,0.125,6155.555555555556
0.015,0.135,6158.333333333333
0.04,0.15,6161.111111111111
0.045,0.165,6163.888888888889
0.07,0.17,6166.666666666667
0.07,0.17,6169.444444444444
0.065,0.175,6172.222222222223
0.075,0.175,6175.0
0.075,0.185,6177.777777777777
0.1,0.19,6180.555555555556
0.115,0.205,6183.333333333333
0.12,0.195,6186.111111111111
0.105,0.185,6188.888888888889
0.09,0.19,6191.666666666667
0.1,0.185,6194.444444444444
0.105,0.2,6197.222222222223
0.095,0.19,6200.0
0.075,0.165,6202.777777777777
0.06,0.165,6205.555555555556
0.025,0.16,6208.333333333333
0.01,0.165,6211.111111111111
0.015,0.15,6213.888888888889
-0.005,0.125,6216.666666666667
-0.045,0.105,6219.444444444444
-0.08,0.09,6222.222222222223
-0.1,0.06,6225.0
-0.115,0.06,6227.777777777777
-0.11,0.05,6230.555555555556
-0.135,0.03,6233.333333333333
-0.165,0.01,6236.111111111111
-0.19,-0.015,6238.888888888889
-0.195,-0.04,6241.666666666667
-0.2,-0.04,6244.444444444444
-0.21,-0.05,6247.222222222223
-0.22,-0.055,6250.0
-0.225,-0.07,6252.777777777777
-0.255,-0.09,6255.555555555556
-0.26,-0.085,6258.333333333333
-0.265,-0.09,6261.111111111111
-0.265,-0.085,6263.888888888889
-0.27,-0.095,6266.666666666667
-0.275,-0.115,6269.444444444444
-0.28,-0.115,6272.222222222223
-0.285,-0.135,6275.0
-0.29,-0.13,6277.777777777777
-0.285,-0.105,6280.555555555556
-0.285,-0.12,6283.333333333333
-0.29,-0.14,6286.111111111111
-0.3,-0.135,6288.888888888889
-0.31,-0.145,6291.666666666667
-0.305,-0.145,6294.444444444444
-0.295,-0.13,6297.222222222223
-0.29,-0.14,6300.0
-0.29,-0.145,6302.777777777777
-0.295,-0.15,6305.555555555556
-0.3,-0.155,6308.333333333333
-0.3,-0.135,6311.111111111111
-0.285,-0.135,6313.888888888889
-0.285,-0.14,6316.666666666667
-0.29,-0.14,6319.444444444444
-0.3,-0.15,6322.222222222223
-0.29,-0.145,6325.0
-0.295,-0.14,6327.777777777777
-0.28,-0.125,6330.555555555556
-0.28,-0.135,6333.333333333333
-0.28,-0.145,6336.111111111111
-0.275,-0.145,6338.888888888889
-0.285,-0.145,6341.666666666667
-0.275,-0.13,6344.444444444444
-0.265,-0.115,6347.222222222223
-0.265,-0.12,6350.0
-0.26,-0.13,6352.777777777777
-0.26,-0.135,6355.555555555556
-0.27,-0.125,6358.333333333333
-0.26,-0.105,6361.111111111111
-0.255,-0.11,6363.888888888889
-0.245,-0.105,6366.666666666667
-0.245,-0.115,6369.444444444444
-0.245,-0.125,6372.222222222223
-0.245,-0.12,6375.0
-0.25,-0.105,6377.777777777777
-0.235,-0.11,6380.555555555556
-0.245,-0.105,6383.333333333333
-0.235,-0.105,6386.111111111111
-0.26,-0.125,6388.888888888889
-0.26,-0.11,6391.666666666667
-0.26,-0.11,6394.444444444444
-0.23,-0.09,6397.222222222223
-0.24,-0.085,6400.0
-0.23,-0.105,6402.777777777777
-0.245,-0.105,6405.555555555556
-0.24,-0.115,6408.333333333333
-0.245,-0.11,6411.111111111111
-0.25,-0.105,6413.888888888889
-0.24,-0.105,6416.666666666667
-0.24,-0.125,6419.444444444444
-0.255,-0.135,6422.222222222223
-0.26,-0.12,6425.0
-0.255,-0.11,6427.777777777777
-0.24,-0.1,6430.555555555556
-0.245,-0.11,6433.333333333333
-0.255,-0.125,6436.111111111111
-0.255,-0.135,6438.888888888889
-0.275,-0.15,6441.666666666667
-0.26,-0.125,6444.444444444444
-0.26,-0.115,6447.222222222223
-0.26,-0.12,6450.0
-0.265,-0.12,6452.777777777777
-0.265,-0.145,6455.555555555556
-0.28,-0.135,6458.333333333333
-0.275,-0.14,6461.111111111111
-0.26,-0.135,6463.888888888889
-0.275,-0.14,6466.666666666667
-0.275,-0.155,6469.444444444444
-0.285,-0.155,6472.222222222223
-0.295,-0.165,6475.0
-0.3,-0.17,6477.777777777777
-0.29,-0.165,6480.555555555556
-0.295,-0.16,6483.333333333333
-0.295,-0.17,6486.111111111111
-0.295,-0.18,6488.888888888889
-0.32,-0.185,6491.666666666667
-0.315,-0.175,6494.444444444444
-0.3,-0.175,6497.222222222223
-0.305,-0.18,6500.0
-0.325,-0.185,6502.777777777777
-0.325,-0.19,6505.555555555556
-0.33,-0.19,6508.333333333333
-0.32,-0.185,6511.111111111111
-0.32,-0.17,6513.888888888889
-0.315,-0.185,6516.666666666667
-0.32,-0.19,6519.444444444444
-0.33,-0.195,6522.222222222223
-0.345,-0.2,6525.0
-0.335,-0.185,6527.777777777777
-0.33,-0.18,6530.555555555556
-0.325,-0.18,6533.333333333333
-0.335,-0.185,6536.111111111111
-0.34,-0.205,6538.888888888889
-0.34,-0.2,6541.666666666667
-0.33,-0.185,6544.444444444444
-0.33,-0.185,6547.222222222223
-0.32,-0.18,6550.0
-0.33,-0.195,6552.777777777777
-0.33,-0.21,6555.555555555556
-0.34,-0.21,6558.333333333333
-0.335,-0.195,6561.111111111111
-0.33,-0.19,6563.888888888889
-0.325,-0.19,6566.666666666667
-0.33,-0.195,6569.444444444444
-0.335,-0.205,6572.222222222223
-0.345,-0.195,6575.0
-0.33,-0.2,6577.777777777777
-0.325,-0.19,6580.555555555556
-0.31,-0.195,6583.333333333333
-0.3,-0.205,6586.111111111111
-0.28,-0.21,6588.888888888889
-0.265,-0.205,6591.666666666667
-0.27,-0.19,6594.444444444444
-0.27,-0.18,6597.222222222223
-0.25,-0.185,6600.0
-0.24,-0.19,6602.777777777777
-0.25,-0.195,6605.555555555556
-0.25,-0.195,6608.333333333333
-0.245,-0.17,6611.111111111111
-0.205,-0.19,6613.888888888889
-0.21,-0.18,6616.666666666667
-0.22,-0.19,6619.444444444444
-0.23,-0.185,6622.222222222223
-0.225,-0.2,6625.0
-0.21,-0.17,6627.777777777777
-0.215,-0.16,6630.555555555556
-0.21,-0.185,6633.333333333333
-0.235,-0.18,6636.111111111111
-0.245,-0.195,6638.888888888889
-0.27,-0.205,6641.666666666667
-0.255,-0.21,6644.444444444444
-0.27,-0.21,6647.222222222223
-0.255,-0.225,6650.0
-0.25,-0.235,6652.777777777777
-0.26,-0.235,6655.555555555556
-0.26,-0.22,6658.333333333333
-0.26,-0.185,6661.111111111111
-0.26,-0.17,6663.888888888889
-0.275,-0.16,6666.666666666667
-0.3,-0.17,6669.444444444444
-0.315,-0.185,6672.222222222223
-0.325,-0.18,6675.0
-0.33,-0.175,6677.777777777777
-0.34,-0.17,6680.555555555556
-0.33,-0.185,6683.333333333333
-0.345,-0.21,6686.111111111111
-0.365,-0.205,6688.888888888889
-0.38,-0.205,6691.666666666667
-0.375,-0.205,6694.444444444444
-0.375,-0.195,6697.222222222223
-0.385,-0.205,6700.0
-0.385,-0.21,6702.777777777777
-0.39,-0.22,6705.555555555556
-0.39,-0.21,6708.333333333333
-0.395,-0.195,6711.111111111111
-0.385,-0.195,6713.888888888889
-0.39,-0.2,6716.666666666667
-0.39,-0.205,6719.444444444444
-0.395,-0.22,6722.222222222223
-0.4,-0.205,6725.0
-0.395,-0.205,6727.777777777777
-0.385,-0.19,6730.555555555556
-0.38,-0.19,6733.333333333333
-0.385,-0.195,6736.111111111111
-0.4,-0.2,6738.888888888889
-0.4,-0.205,6741.666666666667
-0.395,-0.195,6744.444444444444
-0.385,-0.175,6747.222222222223
-0.4,-0.185,6750.0
-0.445,-0.205,6752.777777777777
-0.52,-0.215,6755.555555555556
-0.57,-0.23,6758.333333333333
-0.54,-0.215,6761.111111111111
-0.475,-0.195,6763.888888888889
-0.38,-0.15,6766.666666666667
-0.245,-0.11,6769.444444444444
-0.005,-0.04,6772.222222222223
0.37,0.095,6775.0
0.79,0.35,6777.777777777777
1.19,0.6,6780.555555555556
1.515,0.84,6783.333333333333
1.735,1.09,6786.111111111111
1.825,1.265,6788.888888888889
1.74,1.31,6791.666666666667
1.42,1.17,6794.444444444444
0.91,0.83,6797.222222222223
0.345,0.36,6800.0
-0.12,-0.105,6802.777777777777
-0.395,-0.425,6805.555555555556
-0.51,-0.57,6808.333333333333
-0.49,-0.565,6811.111111111111
-0.42,-0.46,6813.888888888889
-0.325,-0.35,6816.666666666667
-0.28,-0.235,6819.444444444444
-0.27,-0.16,6822.222222222223
-0.32,-0.135,6825.0
-0.35,-0.135,6827.777777777777
-0.35,-0.15,6830.555555555556
-0.35,-0.17,6833.333333333333
-0.335,-0.175,6836.111111111111
-0.365,-0.17,6838.888888888889
-0.395,-0.175,6841.666666666667
-0.4,-0.175,6844.444444444444
-0.4,-0.175,6847.222222222223
-0.395,-0.18,6850.0
-0.41,-0.18,6852.777777777777
-0.415,-0.2,6855.555555555556
-0.42,-0.185,6858.333333333333
-0.43,-0.175,6861.111111111111
-0.42,-0.175,6863.888888888889
-0.415,-0.17,6866.666666666667
-0.415,-0.18,6869.444444444444
-0.425,-0.195,6872.222222222223
-0.425,-0.19,6875.0
-0.425,-0.175,6877.777777777777
-0.42,-0.17,6880.555555555556
-0.405,-0.165,6883.333333333333
-0.41,-0.18,6886.111111111111
-0.42,-0.18,6888.888888888889
-0.425,-0.175,6891.666666666667
-0.425,-0.17,6894.444444444444
-0.41,-0.16,6897.222222222223
-0.405,-0.155,6900.0
-0.41,-0.155,6902.777777777777
-0.41,-0.175,6905.555555555556
-0.42,-0.165,6908.333333333333
-0.41,-0.165,6911.111111111111
-0.41,-0.145,6913.888888888889
-0.385,-0.15,6916.666666666667
-0.39,-0.155,6919.444444444444
-0.4,-0.16,6922.222222222223
-0.415,-0.155,6925.0
-0.395,-0.135,6927.777777777777
-0.385,-0.145,6930.555555555556
-0.375,-0.145,6933.333333333333
-0.37,-0.14,6936.111111111111
-0.37,-0.135,6938.888888888889
-0.365,-0.13,6941.666666666667
-0.36,-0.115,6944.444444444444
-0.345,-0.11,6947.222222222223
-0.33,-0.1,6950.0
-0.32,-0.105,6952.777777777777
-0.315,-0.11,6955.555555555556
-0.32,-0.1,6958.333333333333
-0.29,-0.085,6961.111111111111
-0.275,-0.065,6963.888888888889
-0.26,-0.06,6966.666666666667
-0.255,-0.06,6969.444444444444
-0.245,-0.055,6972.222222222223
-0.255,-0.05,6975.0
-0.22,-0.045,6977.777777777777
-0.195,-0.02,6980.555555555556
-0.16,-0.005,6983.333333333333
-0.155,0.0,6986.111111111111
-0.145,0.01,6988.888888888889
-0.145,0.02,6991.666666666667
-0.11,0.045,6994.444444444444
-0.075,0.065,6997.222222222223
-0.06,0.06,7000.0
-0.04,0.085,7002.777777777777
-0.03,0.08,7005.555555555556
-0.01,0.085,7008.333333333333
0.01,0.105,7011.111111111111
0.04,0.135,7013.888888888889
0.055,0.145,7016.666666666667
0.055,0.14,7019.444444444444
0.065,0.145,7022.222222222223
0.075,0.15,7025.0
0.09,0.16,7027.777777777777
0.1,0.19,7030.555555555556
0.11,0.2,7033.333333333333
0.13,0.19,7036.111111111111
0.13,0.185,7038.888888888889
0.13,0.195,7041.666666666667
0.135,0.22,7044.444444444444
0.155,0.215,7047.222222222223
0.15,0.21,7050.0
0.15,0.205,7052.777777777777
0.135,0.19,7055.555555555556
0.12,0.2,7058.333333333333
0.115,0.195,7061.111111111111
0.12,0.2,7063.888888888889
0.11,0.185,7066.666666666667
0.085,0.16,7069.444444444444
0.055,0.14,7072.222222222223
0.03,0.145,7075.0
0.025,0.14,7077.777777777777
0.0,0.115,7080.555555555556
-0.02,0.1,7083.333333333333
-0.05,0.085,7086.111111111111
-0.08,0.045,7088.888888888889
-0.115,0.03,7091.666666666667
-0.13,0.025,7094.444444444444
-0.145,0.015,7097.222222222223
-0.145,-0.01,7100.0
-0.175,-0.02,7102.777777777777
-0.205,-0.055,7105.555555555556
-0.23,-0.055,7108.333333333333
-0.235,-0.06,7111.111111111111
-0.235,-0.065,7113.888888888889
-0.245,-0.085,7116.666666666667
-0.255,-0.105,7119.444444444444
-0.27,-0.105,7122.222222222223
-0.285,-0.12,7125.0
-0.28,-0.11,7127.777777777777
-0.28,-0.12,7130.555555555556
-0.285,-0.12,7133.333333333333
-0.29,-0.135,7136.111111111111
-0.305,-0.145,7138.888888888889
-0.305,-0.155,7141.666666666667
-0.3,-0.145,7144.444444444444
-0.29,-0.135,7147.222222222223
-0.295,-0.145,7150.0
-0.3,-0.145,7152.777777777777
-0.3,-0.16,7155.555555555556
-0.315,-0.16,7158.333333333333
-0.31,-0.15,7161.111111111111
-0.29,-0.145,7163.888888888889
-0.3,-0.15,7166.666666666667
-0.31,-0.165,7169.444444444444
-0.31,-0.16,7172.222222222223
-0.315,-0.155,7175.0
-0.31,-0.15,7177.777777777777
-0.29,-0.145,7180.555555555556
-0.285,-0.14,7183.333333333333
-0.29,-0.14,7186.111111111111
-0.295,-0.15,7188.888888888889
-0.295,-0.15,7191.666666666667
-0.29,-0.15,7194.444444444444
-0.275,-0.125,7197.222222222223
-0.26,-0.13,7200.0
-0.28,-0.13,7202.777777777777
-0.27,-0.14,7205.555555555556
-0.275,-0.135,7208.333333333333
-0.265,-0.125,7211.111111111111
-0.265,-0.125,7213.888888888889
-0.255,-0.115,7216.666666666667
-0.26,-0.125,7219.444444444444
-0.275,-0.125,7222.222222222223
-0.275,-0.135,7225.0
-0.27,-0.13,7227.777777777777
-0.255,-0.105,7230.555555555556
-0.25,-0.1,7233.333333333333
-0.255,-0.115,7236.111111111111
-0.265,-0.12,7238.888888888889
-0.265,-0.11,7241.666666666667
-0.265,-0.105,7244.444444444444
-0.26,-0.09,7247.222222222223
-0.25,-0.105,7250.0
-0.26,-0.115,7252.777777777777
-0.265,-0.12,7255.555555555556
-0.265,-0.11,7258.333333333333
-0.265,-0.105,7261.111111111111
-0.255,-0.105,7263.888888888889
-0.25,-0.105,7266.666666666667
-0.255,-0.12,7269.444444444444
-0.265,-0.12,7272.222222222223
-0.275,-0.12,7275.0
-0.26,-0.12,7277.777777777777
-0.265,-0.11,7280.555555555556
-0.26,-0.11,7283.333333333333
-0.265,-0.125,7286.111111111111
-0.29,-0.14,7288.888888888889
-0.31,-0.13,7291.666666666667
-0.29,-0.125,7294.444444444444
-0.28,-0.115,7297.222222222223
-0.28,-0.12,7300.0
-0.29,-0.14,7302.777777777777
-0.305,-0.155,7305.555555555556
-0.315,-0.15,7308.333333333333
-0.3,-0.14,7311.111111111111
-0.295,-0.135,7313.888888888889
-0.3,-0.155,7316.666666666667
-0.3,-0.16,7319.444444444444
-0.31,-0.17,7322.222222222223
-0.315,-0.18,7325.0
-0.315,-0.165,7327.777777777777
-0.315,-0.155,7330.555555555556
-0.31,-0.155,7333.333333333333
-0.32,-0.17,7336.111111111111
-0.33,-0.19,7338.888888888889
-0.33,-0.19,7341.666666666667
-0.335,-0.18,7344.444444444444
-0.325,-0.165,7347.222222222223
-0.325,-0.18,7350.0
-0.33,-0.19,7352.777777777777
-0.34,-0.185,7355.555555555556
-0.355,-0.21,7358.333333333333
-0.34,-0.2,7361.111111111111
-0.335,-0.19,7363.888888888889
-0.34,-0.19,7366.666666666667
-0.335,-0.215,7369.444444444444
-0.35,-0.205,7372.222222222223
-0.345,-0.21,7375.0
-0.34,-0.2,7377.777777777777
-0.35,-0.19,7380.555555555556
-0.345,-0.19,7383.333333333333
-0.34,-0.195,7386.111111111111
-0.345,-0.205,7388.888888888889
-0.365,-0.195,7391.666666666667
-0.355,-0.195,7394.444444444444
-0.345,-0.175,7397.222222222223
-0.335,-0.185,7400.0
-0.335,-0.205,7402.777777777777
-0.35,-0.215,7405.555555555556
-0.35,-0.2,7408.333333333333
-0.345,-0.195,7411.111111111111
-0.32,-0.205,7413.888888888889
-0.305,-0.18,7416.666666666667
-0.3,-0.18,7419.444444444444
-0.28,-0.195,7422.222222222223
-0.29,-0.205,7425.0
-0.27,-0.185,7427.777777777777
-0.26,-0.17,7430.555555555556
-0.255,-0.17,7433.333333333333
-0.255,-0.175,7436.111111111111
-0.25,-0.18,7438.888888888889
-0.26,-0.185,7441.666666666667
-0.25,-0.18,7444.444444444444
-0.235,-0.17,7447.222222222223
-0.22,-0.17,7450.0
-0.24,-0.175,7452.777777777777
-0.23,-0.19,7455.555555555556
-0.225,-0.18,7458.333333333333
-0.225,-0.175,7461.111111111111
-0.22,-0.175,7463.888888888889
-0.225,-0.18,7466.666666666667
-0.245,-0.205,7469.444444444444
-0.255,-0.215,7472.222222222223
-0.275,-0.22,7475.0
-0.275,-0.225,7477.777777777777
-0.27,-0.21,7480.555555555556
-0.27,-0.23,7483.333333333333
-0.26,-0.225,7486.111111111111
-0.265,-0.22,7488.888888888889
-0.27,-0.18,7491.666666666667
-0.29,-0.16,7494.444444444444
-0.295,-0.16,7497.222222222223
-0.305,-0.165,7500.0
-0.33,-0.175,7502.777777777777
-0.34,-0.18,7505.555555555556
-0.36,-0.19,7508.333333333333
-0.355,-0.18,7511.111111111111
-0.36,-0.17,7513.888888888889
-0.365,-0.175,7516.666666666667
-0.375,-0.2,7519.444444444444
-0.385,-0.21,7522.222222222223
-0.405,-0.215,7525.0
-0.4,-0.2,7527.777777777777
-0.395,-0.19,7530.555555555556
-0.385,-0.195,7533.333333333333
-0.405,-0.195,7536.111111111111
-0.41,-0.215,7538.888888888889
-0.415,-0.21,7541.666666666667
-0.41,-0.2,7544.444444444444
-0.405,-0.185,7547.222222222223
-0.405,-0.19,7550.0
-0.405,-0.195,7552.777777777777
-0.41,-0.215,7555.555555555556
-0.405,-0.2,7558.333333333333
-0.4,-0.19,7561.111111111111
-0.39,-0.19,7563.888888888889
-0.37,-0.185,7566.666666666667
-0.395,-0.19,7569.444444444444
-0.405,-0.205,7572.222222222223
-0.405,-0.18,7575.0
-0.415,-0.18,7577.777777777777
-0.41,-0.185,7580.555555555556
-0.42,-0.175,7583.333333333333
-0.455,-0.195,7586.111111111111
-0.525,-0.215,7588.888888888889
-0.6,-0.225,7591.666666666667
-0.58,-0.22,7594.444444444444
-0.525,-0.205,7597.222222222223
-0.45,-0.165,7600.0
-0.35,-0.135,7602.777777777777
-0.175,-0.095,7605.555555555556
0.115,0.0,7608.333333333333
0.51,0.195,7611.111111111111
0.905,0.425,7613.888888888889
1.255,0.675,7616.666666666667
1.56,0.935,7619.444444444444
1.785,1.195,7622.222222222223
1.855,1.375,7625.0
1.755,1.385,7627.777777777777
1.4,1.215,7630.555555555556
0.875,0.81,7633.333333333333
0.3,0.305,7636.111111111111
-0.155,-0.155,7638.888888888889
-0.39,-0.455,7641.666666666667
-0.48,-0.6,7644.444444444444
-0.485,-0.59,7647.222222222223
-0.455,-0.51,7650.0
-0.405,-0.42,7652.777777777777
-0.33,-0.335,7655.555555555556
-0.28,-0.23,7658.333333333333
-0.295,-0.16,7661.111111111111
-0.32,-0.12,7663.888888888889
-0.34,-0.13,7666.666666666667
-0.35,-0.15,7669.444444444444
-0.375,-0.18,7672.222222222223
-0.375,-0.17,7675.0
-0.37,-0.155,7677.777777777777
-0.385,-0.155,7680.555555555556
-0.39,-0.16,7683.333333333333
-0.405,-0.18,7686.111111111111
-0.425,-0.19,7688.888888888889
-0.445,-0.18,7691.666666666667
-0.43,-0.17,7694.444444444444
-0.44,-0.16,7697.222222222223
-0.44,-0.16,7700.0
-0.445,-0.18,7702.777777777777
-0.44,-0.185,7705.555555555556
-0.45,-0.175,7708.333333333333
-0.44,-0.175,7711.111111111111
-0.43,-0.165,7713.888888888889
-0.435,-0.16,7716.666666666667
-0.435,-0.175,7719.444444444444
-0.44,-0.175,7722.222222222223
-0.455,-0.17,7725.0
-0.44,-0.16,7727.777777777777
-0.43,-0.155,7730.555555555556
-0.425,-0.155,7733.333333333333
-0.435,-0.16,7736.111111111111
-0.43,-0.17,7738.888888888889
-0.435,-0.165,7741.666666666667
-0.43,-0.15,7744.444444444444
-0.415,-0.15,7747.222222222223
-0.41,-0.145,7750.0
-0.405,-0.15,7752.777777777777
-0.41,-0.155,7755.555555555556
-0.43,-0.145,7758.333333333333
-0.42,-0.135,7761.111111111111
-0.41,-0.13,7763.888888888889
-0.39,-0.12,7766.666666666667
-0.395,-0.125,7769.444444444444
-0.385,-0.13,7772.222222222223
-0.385,-0.12,7775.0
-0.375,-0.1,7777.777777777777
-0.375,-0.09,7780.555555555556
-0.355,-0.09,7783.333333333333
-0.36,-0.09,7786.111111111111
-0.355,-0.1,7788.888888888889
-0.36,-0.1,7791.666666666667
-0.345,-0.085,7794.444444444444
-0.33,-0.065,7797.222222222223
-0.315,-0.07,7800.0
-0.31,-0.06,7802.777777777777
-0.305,-0.06,7805.555555555556
-0.29,-0.05,7808.333333333333
-0.275,-0.03,7811.111111111111
-0.25,-0.015,7813.888888888889
-0.235,-0.005,7816.666666666667
-0.22,-0.015,7819.444444444444
-0.215,-0.01,7822.222222222223
-0.2,0.005,7825.0
-0.17,0.02,7827.777777777777
-0.14,0.05,7830.555555555556
-0.13,0.055,7833.333333333333
-0.11,0.075,7836.111111111111
-0.095,0.065,7838.888888888889
-0.075,0.075,7841.666666666667
-0.06,0.09,7844.444444444444
-0.03,0.115,7847.222222222223
-0.01,0.125,7850.0
0.0,0.125,7852.777777777777
0.015,0.135,7855.555555555556
0.025,0.145,7858.333333333333
0.05,0.155,7861.111111111111
0.06,0.18,7863.888888888889
0.095,0.2,7866.666666666667
0.1,0.19,7869.444444444444
0.105,0.185,7872.222222222223
0.115,0.195,7875.0
0.135,0.215,7877.777777777777
0.15,0.225,7880.555555555556
0.15,0.24,7883.333333333333
0.165,0.24,7886.111111111111
0.165,0.235,7888.888888888889
0.16,0.24,7891.666666666667
0.165,0.25,7894.444444444444
0.17,0.26,7897.222222222223
0.16,0.25,7900.0
0.165,0.235,7902.777777777777
0.15,0.22,7905.555555555556
0.12,0.22,7908.333333333333
0.125,0.22,7911.111111111111
0.11,0.22,7913.888888888889
0.1,0.22,7916.666666666667
0.07,0.18,7919.444444444444
0.04,0.165,7922.222222222223
0.015,0.155,7925.0
0.0,0.15,7927.777777777777
-0.02,0.135,7930.555555555556
-0.04,0.12,7933.333333333333
-0.07,0.09,7936.111111111111
-0.1,0.07,7938.888888888889
-0.13,0.05,7941.666666666667
-0.145,0.045,7944.444444444444
-0.155,0.04,7947.222222222223
-0.16,0.02,7950.0
-0.18,-0.015,7952.777777777777
-0.205,-0.025,7955.555555555556
-0.23,-0.035,7958.333333333333
-0.22,-0.04,7961.111111111111
-0.23,-0.04,7963.888888888889
-0.245,-0.05,7966.666666666667
-0.255,-0.065,7969.444444444444
-0.26,-0.08,7972.222222222223
-0.265,-0.07,7975.0
-0.26,-0.08,7977.777777777777
-0.265,-0.075,7980.555555555556
-0.27,-0.075,7983.333333333333
-0.275,-0.1,7986.111111111111
-0.28,-0.11,7988.888888888889
-0.28,-0.1,7991.666666666667
-0.275,-0.095,7994.444444444444
-0.27,-0.095,7997.222222222223
-0.27,-0.1,8000.0
-0.285,-0.11,8002.777777777777
-0.275,-0.125,8005.555555555556
-0.28,-0.12,8008.333333333333
-0.275,-0.105,8011.111111111111
-0.275,-0.1,8013.888888888889
-0.27,-0.11,8016.666666666667
-0.275,-0.115,8019.444444444444
-0.285,-0.12,8022.222222222223
-0.28,-0.1,8025.0
-0.265,-0.105,8027.777777777777
-0.245,-0.09,8030.555555555556
-0.245,-0.09,8033.333333333333
-0.245,-0.105,8036.111111111111
-0.245,-0.1,8038.888888888889
-0.255,-0.085,8041.666666666667
-0.255,-0.09,8044.444444444444
-0.25,-0.07,8047.222222222223
-0.23,-0.075,8050.0
-0.24,-0.08,8052.777777777777
-0.23,-0.095,8055.555555555556
-0.25,-0.075,8058.333333333333
-0.23,-0.065,8061.111111111111
-0.23,-0.065,8063.888888888889
-0.215,-0.055,8066.666666666667
-0.22,-0.06,8069.444444444444
-0.225,-0.055,8072.222222222223
-0.25,-0.05,8075.0
-0.23,-0.045,8077.777777777777
-0.21,-0.04,8080.555555555556
-0.205,-0.04,8083.333333333333
-0.22,-0.05,8086.111111111111
-0.22,-0.05,8088.888888888889
-0.23,-0.045,8091.666666666667
-0.225,-0.035,8094.444444444444
-0.195,-0.045,8097.222222222223
-0.195,-0.035,8100.0
-0.205,-0.045,8102.777777777777
-0.22,-0.05,8105.555555555556
-0.235,-0.05,8108.333333333333
-0.225,-0.03,8111.111111111111
-0.22,-0.04,8113.888888888889
-0.23,-0.05,8116.666666666667
-0.235,-0.065,8119.444444444444
-0.24,-0.085,8122.222222222223
-0.245,-0.07,8125.0
-0.245,-0.065,8127.777777777777
-0.235,-0.06,8130.555555555556
-0.235,-0.05,8133.333333333333
-0.24,-0.065,8136.111111111111
-0.265,-0.095,8138.888888888889
-0.255,-0.075,8141.666666666667
-0.265,-0.07,8144.444444444444
-0.255,-0.07,8147.222222222223
-0.25,-0.075,8150.0
-0.27,-0.085,8152.777777777777
-0.285,-0.1,8155.555555555556
-0.275,-0.09,8158.333333333333
-0.285,-0.085,8161.111111111111
-0.265,-0.09,8163.888888888889
-0.275,-0.085,8166.666666666667
-0.295,-0.1,8169.444444444444
-0.3,-0.12,8172.222222222223
-0.31,-0.125,8175.0
-0.285,-0.105,8177.777777777777
-0.285,-0.105,8180.555555555556
-0.285,-0.1,8183.333333333333
-0.29,-0.095,8186.111111111111
-0.3,-0.11,8188.888888888889
-0.315,-0.115,8191.666666666667
-0.305,-0.12,8194.444444444445
-0.305,-0.105,8197.222222222223
-0.29,-0.11,8200.0
-0.305,-0.12,8202.777777777777
-0.305,-0.115,8205.555555555555
-0.32,-0.105,8208.333333333334
-0.32,-0.115,8211.111111111111
-0.315,-0.11,8213.888888888889
-0.3,-0.105,8216.666666666666
-0.31,-0.125,8219.444444444445
-0.315,-0.135,8222.222222222223
-0.325,-0.13,8225.0
-0.315,-0.12,8227.777777777777
-0.305,-0.115,8230.555555555555
-0.305,-0.12,8233.333333333334
-0.3,-0.12,8236.111111111111
-0.305,-0.135,8238.888888888889
-0.305,-0.135,8241.666666666666
-0.3,-0.125,8244.444444444445
-0.28,-0.11,8247.222222222223
-0.275,-0.12,8250.0
-0.25,-0.13,8252.777777777777
-0.24,-0.135,8255.555555555555
-0.25,-0.11,8258.333333333334
-0.25,-0.095,8261.111111111111
-0.23,-0.08,8263.888888888889
-0.23,-0.095,8266.666666666666
-0.23,-0.1,8269.444444444445
-0.22,-0.11,8272.222222222223
-0.215,-0.1,8275.0
-0.205,-0.11,8277.777777777777
-0.195,-0.105,8280.555555555555
-0.2,-0.1,8283.333333333334
-0.2,-0.095,8286.111111111111
-0.2,-0.105,8288.888888888889
-0.195,-0.11,8291.666666666666
-0.19,-0.095,8294.444444444445
-0.19,-0.095,8297.222222222223
-0.205,-0.09,8300.0
-0.215,-0.105,8302.777777777777
-0.245,-0.12,8305.555555555555
-0.26,-0.145,8308.333333333334
-0.255,-0.15,8311.111111111111
-0.24,-0.14,8313.888888888889
-0.24,-0.145,8316.666666666666
-0.235,-0.14,8319.444444444445
-0.235,-0.135,8322.222222222223
-0.255,-0.105,8325.0
-0.26,-0.08,8327.777777777777
-0.27,-0.08,8330.555555555555
-0.27,-0.065,8333.333333333334
-0.29,-0.075,8336.111111111111
-0.31,-0.1,8338.888888888889
-0.31,-0.09,8341.666666666666
-0.32,-0.09,8344.444444444445
-0.32,-0.09,8347.222222222223
-0.32,-0.095,8350.0
-0.33,-0.105,8352.777777777777
-0.345,-0.125,8355.555555555555
-0.35,-0.12,8358.333333333334
-0.37,-0.115,8361.111111111111
-0.345,-0.11,8363.888888888889
-0.35,-0.11,8366.666666666666
-0.355,-0.11,8369.444444444445
-0.355,-0.125,8372.222222222223
-0.365,-0.12,8375.0
-0.37,-0.11,8377.777777777777
-0.35,-0.09,8380.555555555555
-0.355,-0.1,8383.333333333334
-0.365,-0.115,8386.111111111111
-0.365,-0.115,8388.888888888889
-0.38,-0.115,8391.666666666666
-0.36,-0.095,8394.444444444445
-0.345,-0.1,8397.222222222223
-0.355,-0.1,8400.0
-0.37,-0.105,8402.777777777777
-0.355,-0.1,8405.555555555555
-0.37,-0.1,8408.333333333334
-0.365,-0.085,8411.111111111111
-0.365,-0.075,8413.888888888889
-0.39,-0.08,8416.666666666666
-0.46,-0.1,8419.444444444445
-0.525,-0.125,8422.222222222223
-0.555,-0.13,8425.0
-0.515,-0.11,8427.777777777777
-0.445,-0.07,8430.555555555555
-0.355,-0.03,8433.333333333334
-0.215,0.0,8436.111111111111
0.05,0.065,8438.888888888889
0.4,0.22,8441.666666666666
0.81,0.455,8444.444444444445
1.17,0.7,8447.222222222223
1.49,0.93,8450.0
1.73,1.17,8452.777777777777
1.84,1.345,8455.555555555555
1.81,1.41,8458.333333333334
1.55,1.32,8461.111111111111
1.07,1.045,8463.888888888889
0.51,0.59,8466.666666666666
0.02,0.105,8469.444444444445
-0.295,-0.26,8472.222222222223
-0.435,-0.47,8475.0
-0.46,-0.51,8477.777777777777
-0.45,-0.46,8480.555555555555
-0.405,-0.37,8483.333333333334
-0.315,-0.265,8486.111111111111
-0.235,-0.165,8488.888888888889
-0.245,-0.09,8491.666666666666
-0.27,-0.045,8494.444444444445
-0.295,-0.045,8497.222222222223
-0.295,-0.055,8500.0
-0.3,-0.075,8502.777777777777
-0.315,-0.085,8505.555555555555
-0.33,-0.07,8508.333333333334
-0.335,-0.05,8511.111111111111
-0.335,-0.055,8513.888888888889
-0.345,-0.065,8516.666666666666
-0.37,-0.07,8519.444444444445
-0.365,-0.08,8522.222222222223
-0.375,-0.07,8525.0
-0.38,-0.07,8527.777777777777
-0.375,-0.055,8530.555555555555
-0.375,-0.06,8533.333333333334
-0.375,-0.065,8536.111111111111
-0.385,-0.07,8538.888888888889
-0.405,-0.07,8541.666666666666
-0.39,-0.06,8544.444444444445
-0.385,-0.05,8547.222222222223
-0.375,-0.05,8550.0
-0.385,-0.06,8552.777777777777
-0.385,-0.07,8555.555555555555
-0.4,-0.065,8558.333333333334
-0.38,-0.05,8561.111111111111
-0.38,-0.045,8563.888888888889
-0.375,-0.04,8566.666666666666
-0.38,-0.05,8569.444444444445
-0.38,-0.06,8572.222222222223
-0.38,-0.045,8575.0
-0.365,-0.04,8577.777777777777
-0.365,-0.015,8580.555555555555
-0.345,-0.015,8583.333333333334
-0.36,-0.03,8586.111111111111
-0.36,-0.04,8588.888888888889
-0.365,-0.035,8591.666666666666
-0.37,-0.03,8594.444444444445
-0.345,-0.025,8597.222222222223
-0.34,-0.01,8600.0
-0.35,-0.03,8602.777777777777
-0.34,-0.03,8605.555555555555
-0.355,-0.025,8608.333333333334
-0.335,0.0,8611.111111111111
-0.325,0.0,8613.888888888889
-0.305,0.0,8616.666666666666
-0.31,-0.01,8619.444444444445
-0.315,-0.015,8622.222222222223
-0.31,-0.01,8625.0
-0.29,0.015,8627.777777777777
-0.27,0.03,8630.555555555555
-0.26,0.03,8633.333333333334
-0.26,0.035,8636.111111111111
-0.265,0.03,8638.888888888889
-0.25,0.04,8641.666666666666
-0.22,0.06,8644.444444444445
-0.21,0.08,8647.222222222223
-0.19,0.085,8650.0
-0.18,0.075,8652.777777777777
-0.175,0.08,8655.555555555555
-0.175,0.1,8658.333333333334
-0.145,0.105,8661.111111111111
-0.125,0.13,8663.888888888889
-0.105,0.15,8666.666666666666
-0.075,0.16,8669.444444444445
-0.055,0.16,8672.222222222223
-0.05,0.16,8675.0
-0.04,0.19,8677.777777777777
-0.01,0.215,8680.555555555555
0.02,0.23,8683.333333333334
0.03,0.22,8686.111111111111
0.035,0.215,8688.888888888889
0.045,0.235,8691.666666666666
0.06,0.25,8694.444444444445
0.085,0.27,8697.222222222223
0.1,0.275,8700.0
0.115,0.27,8702.777777777777
0.115,0.285,8705.555555555555
0.12,0.28,8708.333333333334
0.145,0.3,8711.111111111111
0.15,0.315,8713.888888888889
0.155,0.315,8716.666666666666
0.165,0.315,8719.444444444445
0.175,0.315,8722.222222222223
0.165,0.325,8725.0
0.185,0.335,8727.777777777777
0.18,0.355,8730.555555555555
0.18,0.345,8733.333333333334
0.18,0.33,8736.111111111111
0.165,0.33,8738.888888888889
0.15,0.32,8741.666666666666
0.135,0.315,8744.444444444445
0.13,0.305,8747.222222222223
0.105,0.3,8750.0
0.08,0.275,8752.777777777777
0.06,0.255,8755.555555555555
0.02,0.245,8758.333333333334
0.015,0.235,8761.111111111111
-0.005,0.225,8763.888888888889
-0.03,0.205,8766.666666666666
-0.05,0.17,8769.444444444445
-0.06,0.15,8772.222222222223
-0.1,0.14,8775.0
-0.105,0.135,8777.777777777777
-0.13,0.125,8780.555555555555
-0.135,0.11,8783.333333333334
-0.15,0.095,8786.111111111111
-0.17,0.06,8788.888888888889
-0.185,0.055,8791.666666666666
-0.19,0.05,8794.444444444445
-0.19,0.045,8797.222222222223
-0.19,0.04,8800.0
-0.2,0.02,8802.777777777777
-0.215,0.015,8805.555555555555
-0.22,0.015,8808.333333333334
-0.215,0.015,8811.111111111111
-0.225,0.015,8813.888888888889
-0.21,0.01,8816.666666666666
-0.215,0.005,8819.444444444445
-0.225,-0.005,8822.222222222223
-0.235,0.0,8825.0
-0.225,-0.005,8827.777777777777
-0.225,-0.005,8830.555555555555
-0.225,-0.015,8833.333333333334
-0.245,-0.025,8836.111111111111
-0.235,-0.015,8838.888888888889
-0.235,-0.02,8841.666666666666
-0.23,0.01,8844.444444444445
-0.215,0.01,8847.222222222223
-0.21,0.01,8850.0
-0.215,0.0,8852.777777777777
-0.225,-0.01,8855.555555555555
-0.22,0.0,8858.333333333334
-0.21,0.015,8861.111111111111
-0.2,0.025,8863.888888888889
-0.2,0.015,8866.666666666666
-0.2,0.01,8869.444444444445
-0.205,0.005,8872.222222222223
-0.225,0.02,8875.0
-0.195,0.025,8877.777777777777
-0.2,0.04,8880.555555555555
-0.19,0.025,8883.333333333334
-0.195,0.03,8886.111111111111
-0.205,0.015,8888.888888888889
-0.2,0.025,8891.666666666666
-0.21,0.04,8894.444444444445
-0.195,0.04,8897.222222222223
-0.195,0.04,8900.0
-0.185,0.03,8902.777777777777
-0.195,0.03,8905.555555555555
-0.19,0.03,8908.333333333334
-0.195,0.045,8911.111111111111
-0.18,0.055,8913.888888888889
-0.17,0.055,8916.666666666666
-0.18,0.045,8919.444444444445
-0.19,0.04,8922.222222222223
-0.195,0.035,8925.0
-0.2,0.04,8927.777777777777
-0.19,0.045,8930.555555555555
-0.185,0.045,8933.333333333334
-0.19,0.04,8936.111111111111
-0.2,0.02,8938.888888888889
-0.215,0.03,8941.666666666666
-0.215,0.035,8944.444444444445
-0.2,0.03,8947.222222222223
-0.185,0.03,8950.0
-0.205,0.025,8952.777777777777
-0.21,0.02,8955.555555555555
-0.22,0.02,8958.333333333334
-0.225,0.03,8961.111111111111
-0.21,0.035,8963.888888888889
-0.2,0.02,8966.666666666666
-0.205,0.005,8969.444444444445
-0.23,-0.015,8972.222222222223
-0.23,-0.005,8975.0
-0.23,0.005,8977.777777777777
-0.24,0.015,8980.555555555555
-0.24,0.0,8983.333333333334
-0.24,-0.01,8986.111111111111
-0.26,-0.02,8988.888888888889
-0.27,-0.02,8991.666666666666
-0.26,-0.01,8994.444444444445
-0.25,-0.01,8997.222222222223
-0.25,-0.01,9000.0
-0.25,-0.035,9002.777777777777
-0.265,-0.035,9005.555555555555
-0.275,-0.025,9008.333333333334
-0.27,-0.025,9011.111111111111
-0.265,-0.02,9013.888888888889
-0.26,-0.03,9016.666666666666
-0.275,-0.045,9019.444444444445
-0.295,-0.045,9022.222222222223
-0.295,-0.045,9025.0
-0.29,-0.04,9027.777777777777
-0.29,-0.05,9030.555555555555
-0.28,-0.04,9033.333333333334
-0.285,-0.06,9036.111111111111
-0.295,-0.055,9038.888888888889
-0.3,-0.045,9041.666666666666
-0.29,-0.04,9044.444444444445
-0.285,-0.025,9047.222222222223
-0.295,-0.025,9050.0
-0.29,-0.05,9052.777777777777
-0.305,-0.06,9055.555555555555
-0.31,-0.05,9058.333333333334
-0.3,-0.055,9061.111111111111
-0.295,-0.055,9063.888888888889
-0.29,-0.035,9066.666666666666
-0.295,-0.05,9069.444444444445
-0.295,-0.075,9072.222222222223
-0.3,-0.06,9075.0
-0.295,-0.05,9077.777777777777
-0.29,-0.045,9080.555555555555
-0.275,-0.035,9083.333333333334
-0.28,-0.055,9086.111111111111
-0.27,-0.055,9088.888888888889
-0.26,-0.05,9091.666666666666
-0.24,-0.05,9094.444444444445
-0.22,-0.03,9097.222222222223
-0.225,-0.035,9100.0
-0.225,-0.035,9102.777777777777
-0.22,-0.045,9105.555555555555
-0.215,-0.045,9108.333333333334
-0.205,-0.04,9111.111111111111
-0.19,-0.03,9113.888888888889
-0.185,-0.03,9116.666666666666
-0.175,-0.04,9119.444444444445
-0.18,-0.045,9122.222222222223
-0.195,-0.04,9125.0
-0.185,-0.035,9127.777777777777
-0.18,-0.015,9130.555555555555
-0.17,-0.02,9133.333333333334
-0.16,-0.025,9136.111111111111
-0.185,-0.045,9138.888888888889
-0.2,-0.055,9141.666666666666
-0.21,-0.05,9144.444444444445
-0.22,-0.055,9147.222222222223
-0.23,-0.06,9150.0
-0.23,-0.09,9152.777777777777
-0.235,-0.11,9155.555555555555
-0.225,-0.1,9158.333333333334
-0.215,-0.07,9161.111111111111
-0.2,-0.05,9163.888888888889
-0.205,-0.03,9166.666666666666
-0.225,-0.025,9169.444444444445
-0.245,-0.03,9172.222222222223
-0.27,-0.02,9175.0
-0.275,-0.025,9177.777777777777
-0.285,-0.015,9180.555555555555
-0.28,-0.015,9183.333333333334
-0.3,-0.035,9186.111111111111
-0.315,-0.055,9188.888888888889
-0.33,-0.055,9191.666666666666
-0.33,-0.045,9194.444444444445
-0.325,-0.04,9197.222222222223
-0.34,-0.05,9200.0
-0.355,-0.06,9202.777777777777
-0.36,-0.06,9205.555555555555
-0.365,-0.055,9208.333333333334
-0.36,-0.045,9211.111111111111
-0.35,-0.045,9213.888888888889
-0.345,-0.045,9216.666666666666
-0.355,-0.055,9219.444444444445
-0.36,-0.065,9222.222222222223
-0.365,-0.055,9225.0
-0.36,-0.045,9227.777777777777
-0.35,-0.035,9230.555555555555
-0.355,-0.05,9233.333333333334
-0.345,-0.055,9236.111111111111
-0.375,-0.07,9238.888888888889
-0.37,-0.065,9241.666666666666
-0.36,-0.055,9244.444444444445
-0.35,-0.04,9247.222222222223
-0.35,-0.045,9250.0
-0.35,-0.045,9252.777777777777
-0.375,-0.065,9255.555555555555
-0.41,-0.06,9258.333333333334
-0.45,-0.06,9261.111111111111
-0.5,-0.065,9263.888888888889
-0.515,-0.08,9266.666666666666
-0.47,-0.065,9269.444444444445
-0.405,-0.05,9272.222222222223
-0.31,0.015,9275.0
-0.115,0.06,9277.777777777777
0.175,0.155,9280.555555555555
0.535,0.335,9283.333333333334
0.895,0.525,9286.111111111111
1.215,0.745,9288.888888888889
1.49,0.97,9291.666666666666
1.705,1.2,9294.444444444445
1.795,1.35,9297.222222222223
1.755,1.39,9300.0
1.525,1.295,9302.777777777777
1.105,1.075,9305.555555555555
0.59,0.7,9308.333333333334
0.12,0.285,9311.111111111111
-0.215,-0.075,9313.888888888889
-0.41,-0.32,9316.666666666666
-0.5,-0.445,9319.444444444445
-0.505,-0.44,9322.222222222223
-0.45,-0.36,9325.0
-0.34,-0.24,9327.777777777777
-0.25,-0.115,9330.555555555555
-0.235,-0.03,9333.333333333334
-0.27,0.01,9336.111111111111
-0.295,0.0,9338.888888888889
-0.325,-0.01,9341.666666666666
-0.32,-0.02,9344.444444444445
-0.32,-0.02,9347.222222222223
-0.32,0.0,9350.0
-0.34,-0.005,9352.777777777777
-0.345,-0.02,9355.555555555555
-0.375,-0.02,9358.333333333334
-0.375,-0.015,9361.111111111111
-0.375,-0.02,9363.888888888889
-0.37,-0.01,9366.666666666666
-0.375,-0.02,9369.444444444445
-0.39,-0.035,9372.222222222223
-0.4,-0.01,9375.0
-0.405,-0.02,9377.777777777777
-0.4,-0.015,9380.555555555555
-0.39,-0.01,9383.333333333334
-0.39,-0.025,9386.111111111111
-0.41,-0.03,9388.888888888889
-0.41,-0.015,9391.666666666666
-0.395,-0.015,9394.444444444445
-0.395,-0.01,9397.222222222223
-0.39,-0.015,9400.0
-0.39,-0.015,9402.777777777777
-0.4,-0.02,9405.555555555555
-0.42,-0.015,9408.333333333334
-0.405,-0.01,9411.111111111111
-0.39,-0.005,9413.888888888889
-0.39,-0.01,9416.666666666666
-0.39,-0.005,9419.444444444445
-0.395,-0.01,9422.222222222223
-0.405,-0.01,9425.0
-0.38,0.005,9427.777777777777
-0.38,0.015,9430.555555555555
-0.365,0.01,9433.333333333334
-0.38,0.01,9436.111111111111
-0.385,0.01,9438.888888888889
-0.395,0.005,9441.666666666666
-0.38,0.02,9444.444444444445
-0.36,0.025,9447.222222222223
-0.36,0.03,9450.0
-0.36,0.01,9452.777777777777
-0.36,0.015,9455.555555555555
-0.355,0.025,9458.333333333334
-0.35,0.035,9461.111111111111
-0.34,0.04,9463.888888888889
-0.33,0.04,9466.666666666666
-0.33,0.04,9469.444444444445
-0.335,0.035,9472.222222222223
-0.33,0.04,9475.0
-0.315,0.06,9477.777777777777
-0.295,0.07,9480.555555555555
-0.28,0.075,9483.333333333334
-0.28,0.065,9486.111111111111
-0.285,0.075,9488.888888888889
-0.275,0.08,9491.666666666666
-0.255,0.1,9494.444444444445
-0.23,0.115,9497.222222222223
-0.22,0.115,9500.0
-0.2,0.115,9502.777777777777
-0.19,0.115,9505.555555555555
-0.185,0.13,9508.333333333334
-0.165,0.14,9511.111111111111
-0.135,0.16,9513.888888888889
-0.115,0.16,9516.666666666666
-0.095,0.165,9519.444444444445
-0.095,0.18,9522.222222222223
-0.09,0.19,9525.0
-0.065,0.21,9527.777777777777
-0.045,0.22,9530.555555555555
-0.03,0.235,9533.333333333334
-0.015,0.23,9536.111111111111
0.005,0.235,9538.888888888889
0.015,0.25,9541.666666666666
0.035,0.275,9544.444444444445
0.055,0.305,9547.222222222223
0.07,0.31,9550.0
0.09,0.3,9552.777777777777
0.09,0.28,9555.555555555555
0.095,0.305,9558.333333333334
0.11,0.315,9561.111111111111
0.12,0.335,9563.888888888889
0.125,0.335,9566.666666666666
0.13,0.335,9569.444444444445
0.125,0.32,9572.222222222223
0.125,0.335,9575.0
0.13,0.335,9577.777777777777
0.135,0.345,9580.555555555555
0.14,0.325,9583.333333333334
0.12,0.315,9586.111111111111
0.1,0.315,9588.888888888889
0.085,0.295,9591.666666666666
0.07,0.29,9594.444444444445
0.065,0.295,9597.222222222223
0.045,0.27,9600.0
0.015,0.265,9602.777777777777
-0.005,0.235,9605.555555555555
-0.045,0.225,9608.333333333334
-0.06,0.205,9611.111111111111
-0.08,0.19,9613.888888888889
-0.11,0.17,9616.666666666666
-0.12,0.145,9619.444444444445
-0.155,0.13,9622.222222222223
-0.175,0.115,9625.0
-0.18,0.12,9627.777777777777
-0.195,0.11,9630.555555555555
-0.2,0.1,9633.333333333334
-0.215,0.07,9636.111111111111
-0.235,0.06,9638.888888888889
-0.255,0.065,9641.666666666666
-0.245,0.055,9644.444444444445
-0.24,0.055,9647.222222222223
-0.255,0.05,9650.0
-0.255,0.03,9652.777777777777
-0.28,0.02,9655.555555555555
-0.275,0.02,9658.333333333334
-0.28,0.02,9661.111111111111
-0.265,0.015,9663.888888888889
-0.265,0.02,9666.666666666666
-0.265,0.01,9669.444444444445
-0.285,0.0,9672.222222222223
-0.285,0.01,9675.0
-0.29,0.015,9677.777777777777
-0.275,0.025,9680.555555555555
-0.285,0.025,9683.333333333334
-0.29,0.0,9686.111111111111
-0.295,0.005,9688.888888888889
-0.3,-0.005,9691.666666666666
-0.29,0.01,9694.444444444445
-0.27,0.02,9697.222222222223
-0.27,0.03,9700.0
-0.265,0.01,9702.777777777777
-0.27,0.01,9705.555555555555
-0.28,0.015,9708.333333333334
-0.255,0.04,9711.111111111111
-0.25,0.04,9713.888888888889
-0.235,0.025,9716.666666666666
-0.25,0.03,9719.444444444445
-0.255,0.02,9722.222222222223
-0.255,0.025,9725.0
-0.24,0.045,9727.777777777777
-0.22,0.045,9730.555555555555
-0.22,0.065,9733.333333333334
-0.23,0.05,9736.111111111111
-0.235,0.035,9738.888888888889
-0.24,0.05,9741.666666666666
-0.235,0.04,9744.444444444445
-0.225,0.06,9747.222222222223
-0.225,0.045,9750.0
-0.225,0.045,9752.777777777777
-0.235,0.045,9755.555555555555
-0.235,0.06,9758.333333333334
-0.235,0.065,9761.111111111111
-0.22,0.06,9763.888888888889
-0.235,0.065,9766.666666666666
-0.225,0.055,9769.444444444445
-0.235,0.04,9772.222222222223
-0.245,0.045,9775.0
-0.24,0.05,9777.777777777777
-0.235,0.065,9780.555555555555
-0.225,0.06,9783.333333333334
-0.24,0.04,9786.111111111111
-0.245,0.03,9788.888888888889
-0.265,0.03,9791.666666666666
-0.25,0.045,9794.444444444445
-0.255,0.05,9797.222222222223
-0.25,0.03,9800.0
-0.255,0.03,9802.777777777777
-0.265,0.02,9805.555555555555
-0.275,0.015,9808.333333333334
-0.27,0.03,9811.111111111111
-0.27,0.03,9813.888888888889
-0.265,0.02,9816.666666666666
-0.275,0.01,9819.444444444445
-0.285,0.0,9822.222222222223
-0.29,0.0,9825.0
-0.295,0.005,9827.777777777777
-0.285,0.015,9830.555555555555
-0.285,0.0,9833.333333333334
-0.29,-0.01,9836.111111111111
-0.305,-0.015,9838.888888888889
-0.3,-0.01,9841.666666666666
-0.31,-0.02,9844.444444444445
-0.305,-0.01,9847.222222222223
-0.315,-0.025,9850.0
-0.305,-0.02,9852.777777777777
-0.32,-0.035,9855.555555555555
-0.335,-0.03,9858.333333333334
-0.32,-0.025,9861.111111111111
-0.31,-0.02,9863.888888888889
-0.31,-0.025,9866.666666666666
-0.315,-0.035,9869.444444444445
-0.335,-0.04,9872.222222222223
-0.345,-0.03,9875.0
-0.335,-0.035,9877.777777777777
-0.32,-0.035,9880.555555555555
-0.31,-0.035,9883.333333333334
-0.33,-0.05,9886.111111111111
-0.335,-0.055,9888.888888888889
-0.35,-0.05,9891.666666666666
-0.34,-0.035,9894.444444444445
-0.325,-0.03,9897.222222222223
-0.32,-0.04,9900.0
-0.34,-0.05,9902.777777777777
-0.33,-0.065,9905.555555555555
-0.35,-0.07,9908.333333333334
-0.335,-0.055,9911.111111111111
-0.32,-0.04,9913.888888888889
-0.31,-0.03,9916.666666666666
-0.31,-0.05,9919.444444444445
-0.305,-0.05,9922.222222222223
-0.295,-0.05,9925.0
-0.275,-0.045,9927.777777777777
-0.25,-0.035,9930.555555555555
-0.26,-0.04,9933.333333333334
-0.255,-0.04,9936.111111111111
-0.265,-0.04,9938.888888888889
-0.275,-0.03,9941.666666666666
-0.265,-0.035,9944.444444444445
-0.23,-0.025,9947.222222222223
-0.22,-0.04,9950.0
-0.225,-0.05,9952.777777777777
-0.235,-0.06,9955.555555555555
-0.245,-0.055,9958.333333333334
-0.22,-0.04,9961.111111111111
-0.215,-0.03,9963.888888888889
-0.215,-0.035,9966.666666666666
-0.215,-0.035,9969.444444444445
-0.24,-0.05,9972.222222222223
-0.25,-0.05,9975.0
-0.26,-0.05,9977.777777777777
-0.275,-0.06,9980.555555555555
-0.275,-0.07,9983.333333333334
-0.29,-0.085,9986.111111111111
-0.295,-0.11,9988.888888888889
-0.28,-0.085,9991.666666666666
-0.265,-0.065,9994.444444444445
-0.26,-0.03,9997.222222222223
-0.28,-0.015,10000.0
-0.295,-0.02,10002.777777777777
-0.31,-0.03,10005.555555555555
-0.335,-0.03,10008.333333333334
-0.33,-0.025,10011.111111111111
-0.32,-0.025,10013.888888888889
-0.33,-0.025,10016.666666666666
-0.35,-0.04,10019.444444444445
-0.37,-0.05,10022.222222222223
-0.38,-0.045,10025.0
-0.375,-0.045,10027.777777777777
-0.385,-0.045,10030.555555555555
-0.385,-0.05,10033.333333333334
-0.4,-0.07,10036.111111111111
-0.405,-0.08,10038.888888888889
-0.42,-0.06,10041.666666666666
-0.405,-0.065,10044.444444444445
-0.39,-0.05,10047.222222222223
-0.385,-0.045,10050.0
-0.4,-0.055,10052.777777777777
-0.415,-0.065,10055.555555555555
-0.41,-0.06,10058.333333333334
-0.405,-0.055,10061.111111111111
-0.39,-0.05,10063.888888888889
-0.4,-0.04,10066.666666666666
-0.4,-0.05,10069.444444444445
-0.4,-0.06,10072.222222222223
-0.405,-0.06,10075.0
-0.395,-0.05,10077.777777777777
-0.39,-0.035,10080.555555555555
-0.395,-0.045,10083.333333333334
-0.405,-0.055,10086.111111111111
-0.44,-0.065,10088.888888888889
-0.5,-0.07,10091.666666666666
-0.555,-0.06,10094.444444444445
-0.595,-0.09,10097.222222222223
-0.58,-0.085,10100.0
-0.53,-0.075,10102.777777777777
-0.47,-0.06,10105.555555555555
-0.37,-0.015,10108.333333333334
-0.16,0.05,10111.111111111111
0.165,0.145,10113.888888888889
0.515,0.315,10116.666666666666
0.865,0.515,10119.444444444445
1.175,0.73,10122.222222222223
1.465,0.99,10125.0
1.705,1.245,10127.777777777777
1.81,1.435,10130.555555555555
1.78,1.5,10133.333333333334
1.56,1.415,10136.111111111111
1.15,1.175,10138.888888888889
0.585,0.765,10141.666666666666
0.085,0.305,10144.444444444445
-0.275,-0.115,10147.222222222223
-0.445,-0.38,10150.0
-0.51,-0.46,10152.777777777777
-0.5,-0.42,10155.555555555555
-0.435,-0.325,10158.333333333334
-0.345,-0.2,10161.111111111111
-0.275,-0.08,10163.888888888889
-0.28,-0.015,10166.666666666666
-0.32,0.015,10169.444444444445
-0.35,-0.005,10172.222222222223
-0.36,-0.01,10175.0
-0.365,-0.01,10177.777777777777
-0.37,-0.02,10180.555555555555
-0.36,-0.015,10183.333333333334
-0.39,-0.025,10186.111111111111
-0.415,-0.03,10188.888888888889
-0.43,-0.045,10191.666666666666
-0.425,-0.025,10194.444444444445
-0.42,-0.02,10197.222222222223
-0.435,-0.03,10200.0
-0.43,-0.04,10202.777777777777
-0.45,-0.045,10205.555555555555
-0.45,-0.04,10208.333333333334
-0.445,-0.045,10211.111111111111
-0.445,-0.025,10213.888888888889
-0.44,-0.04,10216.666666666666
-0.45,-0.03,10219.444444444445
-0.46,-0.045,10222.222222222223
-0.47,-0.04,10225.0
-0.465,-0.025,10227.777777777777
-0.45,-0.025,10230.555555555555
-0.445,-0.02,10233.333333333334
-0.445,-0.03,10236.111111111111
-0.44,-0.035,10238.888888888889
-0.455,-0.025,10241.666666666666
-0.445,-0.03,10244.444444444445
-0.43,-0.005,10247.222222222223
-0.445,-0.005,10250.0
-0.44,-0.01,10252.777777777777
-0.445,-0.035,10255.555555555555
-0.45,-0.02,10258.333333333334
-0.435,-0.025,10261.111111111111
-0.43,-0.005,10263.888888888889
-0.425,-0.005,10266.666666666666
-0.425,-0.01,10269.444444444445
-0.445,-0.02,10272.222222222223
-0.445,-0.005,10275.0
-0.42,0.0,10277.777777777777
-0.41,0.005,10280.555555555555
-0.4,0.015,10283.333333333334
-0.41,-0.005,10286.111111111111
-0.405,0.0,10288.888888888889
-0.405,0.015,10291.666666666666
-0.395,0.025,10294.444444444445
-0.38,0.035,10297.222222222223
-0.37,0.02,10300.0
-0.37,0.02,10302.777777777777
-0.365,0.035,10305.555555555555
-0.36,0.045,10308.333333333334
-0.335,0.06,10311.111111111111
-0.325,0.07,10313.888888888889
-0.325,0.07,10316.666666666666
-0.31,0.07,10319.444444444445
-0.3,0.07,10322.222222222223
-0.3,0.08,10325.0
-0.28,0.1,10327.777777777777
-0.26,0.11,10330.555555555555
-0.24,0.115,10333.333333333334
-0.235,0.12,10336.111111111111
-0.23,0.13,10338.888888888889
-0.205,0.145,10341.666666666666
-0.18,0.155,10344.444444444445
-0.155,0.17,10347.222222222223
-0.135,0.18,10350.0
-0.14,0.19,10352.777777777777
-0.135,0.205,10355.555555555555
-0.105,0.21,10358.333333333334
-0.08,0.24,10361.111111111111
-0.06,0.245,10363.888888888889
-0.03,0.265,10366.666666666666
-0.025,0.26,10369.444444444445
-0.005,0.27,10372.222222222223
-0.01,0.275,10375.0
0.02,0.3,10377.777777777777
0.035,0.315,10380.555555555555
0.05,0.325,10383.333333333334
0.055,0.33,10386.111111111111
0.065,0.31,10388.888888888889
0.065,0.325,10391.666666666666
0.085,0.35,10394.444444444445
0.095,0.355,10397.222222222223
0.11,0.355,10400.0
0.105,0.345,10402.777777777777
0.095,0.345,10405.555555555555
0.095,0.34,10408.333333333334
0.105,0.355,10411.111111111111
0.1,0.365,10413.888888888889
0.085,0.35,10416.666666666666
0.075,0.34,10419.444444444445
0.05,0.315,10422.222222222223
0.025,0.32,10425.0
0.02,0.32,10427.777777777777
0.0,0.31,10430.555555555555
-0.015,0.29,10433.333333333334
-0.05,0.27,10436.111111111111
-0.065,0.235,10438.888888888889
-0.09,0.235,10441.666666666666
-0.11,0.22,10444.444444444445
-0.125,0.2,10447.222222222223
-0.15,0.185,10450.0
-0.175,0.16,10452.777777777777
-0.2,0.13,10455.555555555555
-0.225,0.13,10458.333333333334
-0.235,0.115,10461.111111111111
-0.24,0.115,10463.888888888889
-0.255,0.09,10466.666666666666
-0.27,0.07,10469.444444444445
-0.285,0.05,10472.222222222223
-0.3,0.06,10475.0
-0.29,0.045,10477.777777777777
-0.3,0.055,10480.555555555555
-0.3,0.045,10483.333333333334
-0.31,0.025,10486.111111111111
-0.31,0.02,10488.888888888889
-0.325,0.015,10491.666666666666
-0.31,0.015,10494.444444444445
-0.305,0.025,10497.222222222223
-0.31,0.015,10500.0
-0.325,0.025,10502.777777777777
-0.32,0.005,10505.555555555555
-0.33,0.015,10508.333333333334
-0.33,0.01,10511.111111111111
-0.32,0.015,10513.888888888889
-0.31,0.015,10516.666666666666
-0.315,0.0,10519.444444444445
-0.325,-0.01,10522.222222222223
-0.325,-0.01,10525.0
-0.31,0.01,10527.777777777777
-0.305,0.015,10530.555555555555
-0.295,0.025,10533.333333333334
-0.3,0.01,10536.111111111111
-0.31,0.0,10538.888888888889
-0.315,0.005,10541.666666666666
-0.3,0.025,10544.444444444445
-0.295,0.015,10547.222222222223
-0.285,0.02,10550.0
-0.29,0.01,10552.777777777777
-0.295,0.02,10555.555555555555
-0.295,0.045,10558.333333333334
-0.295,0.06,10561.111111111111
-0.29,0.05,10563.888888888889
-0.28,0.055,10566.666666666666
-0.29,0.04,10569.444444444445
-0.3,0.03,10572.222222222223
-0.29,0.025,10575.0
-0.28,0.045,10577.777777777777
-0.27,0.05,10580.555555555555
-0.28,0.05,10583.333333333334
-0.275,0.045,10586.111111111111
-0.275,0.03,10588.888888888889
-0.28,0.045,10591.666666666666
-0.285,0.055,10594.444444444445
-0.27,0.07,10597.222222222223
-0.27,0.065,10600.0
-0.275,0.05,10602.777777777777
-0.29,0.035,10605.555555555555
-0.3,0.045,10608.333333333334
-0.295,0.055,10611.111111111111
-0.29,0.06,10613.888888888889
-0.29,0.045,10616.666666666666
-0.295,0.04,10619.444444444445
-0.31,0.03,10622.222222222223
-0.3,0.03,10625.0
-0.29,0.04,10627.777777777777
-0.275,0.04,10630.555555555555
-0.27,0.05,10633.333333333334
-0.28,0.035,10636.111111111111
-0.295,0.03,10638.888888888889
-0.305,0.025,10641.666666666666
-0.305,0.035,10644.444444444445
-0.3,0.03,10647.222222222223
-0.31,0.02,10650.0
-0.31,0.005,10652.777777777777
-0.33,0.005,10655.555555555555
-0.32,0.005,10658.333333333334
-0.315,0.015,10661.111111111111
-0.315,0.025,10663.888888888889
-0.32,0.01,10666.666666666666
-0.335,0.0,10669.444444444445
-0.335,-0.015,10672.222222222223
-0.34,-0.01,10675.0
-0.34,-0.005,10677.777777777777
-0.33,-0.005,10680.555555555555
-0.335,0.0,10683.333333333334
-0.34,-0.015,10686.111111111111
-0.35,-0.035,10688.888888888889
-0.36,-0.025,10691.666666666666
-0.36,-0.03,10694.444444444445
-0.345,-0.025,10697.222222222223
-0.345,-0.015,10700.0
-0.37,-0.025,10702.777777777777
-0.36,-0.04,10705.555555555555
-0.365,-0.025,10708.333333333334
-0.36,-0.03,10711.111111111111
-0.345,-0.025,10713.888888888889
-0.355,-0.025,10716.666666666666
-0.365,-0.045,10719.444444444445
-0.375,-0.035,10722.222222222223
-0.385,-0.035,10725.0
-0.37,-0.035,10727.777777777777
-0.37,-0.03,10730.555555555555
-0.365,-0.035,10733.333333333334
-0.375,-0.035,10736.111111111111
-0.375,-0.05,10738.888888888889
-0.38,-0.04,10741.666666666666
-0.38,-0.025,10744.444444444445
-0.38,-0.025,10747.222222222223
-0.375,-0.025,10750.0
-0.37,-0.035,10752.777777777777
-0.38,-0.055,10755.555555555555
-0.38,-0.04,10758.333333333334
-0.365,-0.035,10761.111111111111
-0.35,-0.025,10763.888888888889
-0.35,-0.03,10766.666666666666
-0.34,-0.045,10769.444444444445
-0.335,-0.05,10772.222222222223
-0.335,-0.05,10775.0
-0.315,-0.04,10777.777777777777
-0.305,-0.035,10780.555555555555
-0.31,-0.035,10783.333333333334
-0.295,-0.035,10786.111111111111
-0.295,-0.04,10788.888888888889
-0.305,-0.03,10791.666666666666
-0.29,-0.02,10794.444444444445
-0.27,-0.01,10797.222222222223
-0.25,-0.01,10800.0
-0.27,-0.03,10802.777777777777
-0.275,-0.03,10805.555555555555
-0.28,-0.035,10808.333333333334
-0.26,-0.015,10811.111111111111
-0.245,-0.015,10813.888888888889
-0.255,-0.02,10816.666666666666
-0.27,-0.04,10819.444444444445
-0.285,-0.05,10822.222222222223
-0.305,-0.055,10825.0
-0.315,-0.055,10827.777777777777
-0.31,-0.055,10830.555555555555
-0.31,-0.065,10833.333333333334
-0.32,-0.085,10836.111111111111
-0.31,-0.1,10838.888888888889
-0.31,-0.085,10841.666666666666
-0.305,-0.05,10844.444444444445
-0.315,-0.025,10847.222222222223
-0.32,-0.01,10850.0
-0.345,-0.02,10852.777777777777
-0.36,-0.015,10855.555555555555
-0.375,-0.035,10858.333333333334
-0.375,-0.015,10861.111111111111
-0.37,-0.02,10863.888888888889
-0.385,-0.03,10866.666666666666
-0.4,-0.03,10869.444444444445
-0.41,-0.05,10872.222222222223
-0.425,-0.05,10875.0
-0.41,-0.04,10877.777777777777
-0.405,-0.03,10880.555555555555
-0.42,-0.045,10883.333333333334
-0.43,-0.055,10886.111111111111
-0.44,-0.07,10888.888888888889
-0.445,-0.07,10891.666666666666
-0.425,-0.065,10894.444444444445
-0.425,-0.055,10897.222222222223
-0.425,-0.04,10900.0
-0.43,-0.05,10902.777777777777
-0.44,-0.055,10905.555555555555
-0.44,-0.045,10908.333333333334
-0.44,-0.035,10911.111111111111
-0.425,-0.035,10913.888888888889
-0.43,-0.025,10916.666666666666
-0.415,-0.04,10919.444444444445
-0.43,-0.05,10922.222222222223
-0.435,-0.045,10925.0
-0.435,-0.03,10927.777777777777
-0.43,-0.025,10930.555555555555
-0.43,-0.025,10933.333333333334
-0.43,-0.045,10936.111111111111
-0.44,-0.05,10938.888888888889
-0.45,-0.03,10941.666666666666
-0.47,-0.025,10944.444444444445
-0.51,-0.025,10947.222222222223
-0.565,-0.04,10950.0
-0.58,-0.065,10952.777777777777
-0.565,-0.06,10955.555555555555
-0.51,-0.025,10958.333333333334
-0.42,0.02,10961.111111111111
-0.29,0.06,10963.888888888889
-0.05,0.135,10966.666666666666
0.28,0.27,10969.444444444445
0.615,0.455,10972.222222222223
0.93,0.69,10975.0
1.215,0.89,10977.777777777777
1.45,1.1,10980.555555555555
1.58,1.285,10983.333333333334
1.62,1.395,10986.111111111111
1.52,1.39,10988.888888888889
1.25,1.275,10991.666666666666
0.83,1.02,10994.444444444445
0.385,0.65,10997.222222222223
0.0,0.235,11000.0
-0.3,-0.115,11002.777777777777
-0.47,-0.34,11005.555555555555
-0.545,-0.425,11008.333333333334
-0.55,-0.4,11011.111111111111
-0.505,-0.32,11013.888888888889
-0.42,-0.235,11016.666666666666
-0.35,-0.125,11019.444444444445
-0.335,-0.04,11022.222222222223
-0.36,0.02,11025.0
-0.385,0.045,11027.777777777777
-0.395,0.03,11030.555555555555
-0.405,0.02,11033.333333333334
-0.405,-0.005,11036.111111111111
-0.415,-0.015,11038.888888888889
-0.41,0.0,11041.666666666666
-0.415,0.005,11044.444444444445
-0.425,0.015,11047.222222222223
-0.44,0.01,11050.0
-0.45,0.0,11052.777777777777
-0.455,-0.02,11055.555555555555
-0.47,-0.02,11058.333333333334
-0.455,0.0,11061.111111111111
-0.46,0.01,11063.888888888889
-0.46,-0.005,11066.666666666666
-0.465,-0.015,11069.444444444445
-0.47,-0.015,11072.222222222223
-0.47,-0.015,11075.0
-0.475,-0.005,11077.777777777777
-0.47,0.005,11080.555555555555
-0.46,0.0,11083.333333333334
-0.48,0.005,11086.111111111111
-0.485,-0.015,11088.888888888889
-0.49,-0.015,11091.666666666666
-0.485,0.005,11094.444444444445
-0.47,0.005,11097.222222222223
-0.47,0.0,11100.0
-0.47,-0.005,11102.777777777777
-0.47,-0.005,11105.555555555555
-0.47,0.01,11108.333333333334
-0.475,0.0,11111.111111111111
-0.455,0.02,11113.888888888889
-0.465,0.015,11116.666666666666
-0.46,0.0,11119.444444444445
-0.47,-0.005,11122.222222222223
-0.47,0.005,11125.0
-0.465,0.015,11127.777777777777
-0.455,0.03,11130.555555555555
-0.445,0.02,11133.333333333334
-0.45,0.02,11136.111111111111
-0.455,0.005,11138.888888888889
-0.455,0.01,11141.666666666666
-0.44,0.025,11144.444444444445
-0.43,0.04,11147.222222222223
-0.43,0.045,11150.0
-0.425,0.045,11152.777777777777
-0.43,0.03,11155.555555555555
-0.435,0.035,11158.333333333334
-0.415,0.05,11161.111111111111
-0.405,0.07,11163.888888888889
-0.38,0.055,11166.666666666666
-0.385,0.07,11169.444444444445
-0.385,0.065,11172.222222222223
-0.375,0.08,11175.0
-0.365,0.09,11177.777777777777
-0.34,0.095,11180.555555555555
-0.335,0.11,11183.333333333334
-0.345,0.105,11186.111111111111
-0.325,0.105,11188.888888888889
-0.305,0.115,11191.666666666666
-0.29,0.135,11194.444444444445
-0.27,0.15,11197.222222222223
-0.255,0.165,11200.0
-0.25,0.16,11202.777777777777
-0.235,0.17,11205.555555555555
-0.215,0.19,11208.333333333334
-0.185,0.2,11211.111111111111
-0.175,0.2,11213.888888888889
-0.155,0.2,11216.666666666666
-0.145,0.215,11219.444444444445
-0.135,0.22,11222.222222222223
-0.115,0.24,11225.0
-0.1,0.255,11227.777777777777
-0.07,0.265,11230.555555555555
-0.06,0.285,11233.333333333334
-0.05,0.275,11236.111111111111
-0.04,0.28,11238.888888888889
-0.03,0.29,11241.666666666666
-0.015,0.3,11244.444444444445
0.005,0.32,11247.222222222223
0.02,0.33,11250.0
0.03,0.32,11252.777777777777
0.025,0.31,11255.555555555555
0.03,0.34,11258.333333333334
0.045,0.335,11261.111111111111
0.055,0.36,11263.888888888889
