MLII,V1,time_ms
-0.445,0.26,0.0
-0.445,0.26,2.7777777777777777
-0.445,0.26,5.555555555555555
-0.445,0.26,8.333333333333334
-0.445,0.26,11.11111111111111
-0.445,0.26,13.88888888888889
-0.445,0.26,16.666666666666668
-0.445,0.26,19.444444444444443
-0.45,0.26,22.22222222222222
-0.43,0.25,25.0
-0.435,0.25,27.77777777777778
-0.405,0.26,30.555555555555557
-0.385,0.27,33.333333333333336
-0.365,0.25,36.111111111111114
-0.355,0.255,38.888888888888886
-0.34,0.235,41.666666666666664
-0.325,0.235,44.44444444444444
-0.305,0.245,47.22222222222222
-0.285,0.265,50.0
-0.26,0.25,52.77777777777778
-0.245,0.235,55.55555555555556
-0.225,0.225,58.333333333333336
-0.24,0.215,61.111111111111114
-0.225,0.225,63.888888888888886
-0.21,0.23,66.66666666666667
-0.195,0.23,69.44444444444444
-0.19,0.22,72.22222222222223
-0.195,0.205,75.0
-0.205,0.205,77.77777777777777
-0.205,0.215,80.55555555555556
-0.2,0.215,83.33333333333333
-0.205,0.215,86.11111111111111
-0.21,0.2,88.88888888888889
-0.215,0.19,91.66666666666667
-0.235,0.19,94.44444444444444
-0.235,0.195,97.22222222222223
-0.22,0.2,100.0
-0.235,0.195,102.77777777777777
-0.24,0.195,105.55555555555556
-0.255,0.185,108.33333333333333
-0.28,0.18,111.11111111111111
-0.275,0.18,113.88888888888889
-0.265,0.195,116.66666666666667
-0.27,0.2,119.44444444444444
-0.27,0.19,122.22222222222223
-0.285,0.175,125.0
-0.305,0.17,127.77777777777777
-0.305,0.165,130.55555555555554
-0.295,0.185,133.33333333333334
-0.29,0.17,136.11111111111111
-0.3,0.19,138.88888888888889
-0.305,0.18,141.66666666666666
-0.315,0.175,144.44444444444446
-0.31,0.185,147.22222222222223
-0.315,0.2,150.0
-0.295,0.19,152.77777777777777
-0.3,0.17,155.55555555555554
-0.31,0.175,158.33333333333334
-0.315,0.17,161.11111111111111
-0.315,0.19,163.88888888888889
-0.32,0.195,166.66666666666666
-0.315,0.165,169.44444444444446
-0.305,0.175,172.22222222222223
-0.31,0.15,175.0
-0.33,0.155,177.77777777777777
-0.325,0.17,180.55555555555554
-0.33,0.18,183.33333333333334
-0.32,0.175,186.11111111111111
-0.32,0.16,188.88888888888889
-0.31,0.145,191.66666666666666
-0.325,0.14,194.44444444444446
-0.33,0.16,197.22222222222223
-0.33,0.175,200.0
-0.325,0.16,202.77777777777777
-0.325,0.155,205.55555555555554
-0.335,0.145,208.33333333333334
-0.335,0.15,211.11111111111111
-0.33,0.155,213.88888888888889
-0.32,0.17,216.66666666666666
-0.32,0.17,219.44444444444446
-0.335,0.155,222.22222222222223
-0.335,0.14,225.0
-0.345,0.14,227.77777777777777
-0.34,0.155,230.55555555555554
-0.325,0.16,233.33333333333334
-0.32,0.155,236.11111111111111
-0.325,0.14,238.88888888888889
-0.35,0.14,241.66666666666666
-0.36,0.135,244.44444444444446
-0.35,0.135,247.22222222222223
-0.325,0.155,250.0
-0.31,0.135,252.77777777777777
-0.325,0.145,255.55555555555554
-0.335,0.135,258.3333333333333
-0.34,0.14,261.1111111111111
-0.34,0.15,263.8888888888889
-0.33,0.15,266.6666666666667
-0.325,0.15,269.44444444444446
-0.335,0.14,272.22222222222223
-0.34,0.13,275.0
-0.345,0.13,277.77777777777777
-0.33,0.15,280.55555555555554
-0.335,0.155,283.3333333333333
-0.325,0.15,286.1111111111111
-0.325,0.145,288.8888888888889
-0.335,0.13,291.6666666666667
-0.34,0.135,294.44444444444446
-0.325,0.14,297.22222222222223
-0.325,0.145,300.0
-0.32,0.14,302.77777777777777
-0.325,0.14,305.55555555555554
-0.33,0.14,308.3333333333333
-0.345,0.135,311.1111111111111
-0.325,0.15,313.8888888888889
-0.325,0.17,316.6666666666667
-0.325,0.155,319.44444444444446
-0.32,0.15,322.22222222222223
-0.325,0.135,325.0
-0.33,0.14,327.77777777777777
-0.335,0.14,330.55555555555554
-0.305,0.175,333.3333333333333
-0.31,0.195,336.1111111111111
-0.295,0.21,338.8888888888889
-0.285,0.21,341.6666666666667
-0.29,0.215,344.44444444444446
-0.245,0.215,347.22222222222223
-0.23,0.225,350.0
-0.21,0.225,352.77777777777777
-0.23,0.22,355.55555555555554
-0.245,0.22,358.3333333333333
-0.245,0.205,361.1111111111111
-0.225,0.195,363.8888888888889
-0.19,0.185,366.6666666666667
-0.155,0.17,369.44444444444446
-0.145,0.16,372.22222222222223
-0.15,0.16,375.0
-0.155,0.17,377.77777777777777
-0.15,0.165,380.55555555555554
-0.14,0.18,383.3333333333333
-0.13,0.165,386.1111111111111
-0.12,0.145,388.8888888888889
-0.125,0.135,391.6666666666667
-0.14,0.135,394.44444444444446
-0.145,0.16,397.22222222222223
-0.15,0.165,400.0
-0.155,0.145,402.77777777777777
-0.15,0.14,405.55555555555554
-0.175,0.125,408.3333333333333
-0.2,0.125,411.1111111111111
-0.24,0.12,413.8888888888889
-0.28,0.12,416.6666666666667
-0.325,0.125,419.44444444444446
-0.36,0.11,422.22222222222223
-0.38,0.1,425.0
-0.39,0.095,427.77777777777777
-0.38,0.11,430.55555555555554
-0.38,0.125,433.3333333333333
-0.37,0.115,436.1111111111111
-0.38,0.1,438.8888888888889
-0.395,0.095,441.6666666666667
-0.415,0.09,444.44444444444446
-0.395,0.105,447.22222222222223
-0.395,0.105,450.0
-0.38,0.105,452.77777777777777
-0.37,0.105,455.55555555555554
-0.375,0.11,458.3333333333333
-0.39,0.11,461.1111111111111
-0.385,0.105,463.8888888888889
-0.38,0.125,466.6666666666667
-0.365,0.115,469.44444444444446
-0.375,0.11,472.22222222222223
-0.37,0.095,475.0
-0.4,0.095,477.77777777777777
-0.385,0.105,480.55555555555554
-0.37,0.11,483.3333333333333
-0.375,0.11,486.1111111111111
-0.37,0.085,488.8888888888889
-0.37,0.085,491.6666666666667
-0.36,0.06,494.44444444444446
-0.355,0.05,497.22222222222223
-0.355,0.06,500.0
-0.365,0.07,502.77777777777777
-0.37,0.055,505.55555555555554
-0.37,0.03,508.3333333333333
-0.355,0.0,511.1111111111111
-0.3,-0.025,513.8888888888889
-0.21,-0.07,516.6666666666666
-0.085,-0.13,519.4444444444445
0.05,-0.215,522.2222222222222
0.235,-0.31,525.0
0.4,-0.375,527.7777777777778
0.59,-0.425,530.5555555555555
0.775,-0.415,533.3333333333334
0.915,-0.395,536.1111111111111
1.025,-0.345,538.8888888888889
1.1,-0.305,541.6666666666666
1.16,-0.275,544.4444444444445
1.18,-0.245,547.2222222222222
1.09,-0.2,550.0
0.96,-0.165,552.7777777777778
0.825,-0.125,555.5555555555555
0.71,-0.095,558.3333333333334
0.575,-0.055,561.1111111111111
0.41,-0.005,563.8888888888889
0.255,0.04,566.6666666666666
0.145,0.04,569.4444444444445
0.095,0.065,572.2222222222222
0.005,0.085,575.0
-0.105,0.095,577.7777777777778
-0.195,0.125,580.5555555555555
-0.245,0.145,583.3333333333334
-0.285,0.14,586.1111111111111
-0.325,0.155,588.8888888888889
-0.375,0.165,591.6666666666666
-0.43,0.165,594.4444444444445
-0.47,0.195,597.2222222222222
-0.495,0.195,600.0
-0.505,0.18,602.7777777777778
-0.52,0.17,605.5555555555555
-0.55,0.16,608.3333333333334
-0.56,0.155,611.1111111111111
-0.55,0.17,613.8888888888889
-0.54,0.195,616.6666666666666
-0.52,0.195,619.4444444444445
-0.54,0.19,622.2222222222222
-0.54,0.18,625.0
-0.55,0.17,627.7777777777778
-0.545,0.175,630.5555555555555
-0.53,0.195,633.3333333333334
-0.515,0.2,636.1111111111111
-0.53,0.19,638.8888888888889
-0.53,0.185,641.6666666666666
-0.535,0.195,644.4444444444445
-0.545,0.2,647.2222222222222
-0.525,0.205,650.0
-0.515,0.21,652.7777777777778
-0.51,0.205,655.5555555555555
-0.525,0.2,658.3333333333334
-0.535,0.205,661.1111111111111
-0.52,0.205,663.8888888888889
-0.51,0.22,666.6666666666666
-0.505,0.225,669.4444444444445
-0.51,0.215,672.2222222222222
-0.525,0.19,675.0
-0.535,0.205,677.7777777777778
-0.535,0.205,680.5555555555555
-0.515,0.215,683.3333333333334
-0.51,0.215,686.1111111111111
-0.515,0.225,688.8888888888889
-0.52,0.22,691.6666666666666
-0.53,0.205,694.4444444444445
-0.545,0.22,697.2222222222222
-0.535,0.23,700.0
-0.525,0.225,702.7777777777778
-0.515,0.22,705.5555555555555
-0.53,0.225,708.3333333333334
-0.535,0.225,711.1111111111111
-0.53,0.25,713.8888888888889
-0.515,0.245,716.6666666666666
-0.52,0.25,719.4444444444445
-0.53,0.235,722.2222222222222
-0.525,0.22,725.0
-0.515,0.23,727.7777777777778
-0.52,0.24,730.5555555555555
-0.495,0.245,733.3333333333334
-0.48,0.255,736.1111111111111
-0.49,0.24,738.8888888888889
-0.485,0.24,741.6666666666666
-0.495,0.235,744.4444444444445
-0.47,0.25,747.2222222222222
-0.47,0.27,750.0
-0.45,0.265,752.7777777777778
-0.445,0.265,755.5555555555555
-0.43,0.25,758.3333333333334
-0.435,0.25,761.1111111111111
-0.42,0.26,763.8888888888889
-0.4,0.275,766.6666666666666
-0.375,0.25,769.4444444444445
-0.37,0.245,772.2222222222222
-0.36,0.26,775.0
-0.35,0.26,777.7777777777778
-0.33,0.27,780.5555555555555
-0.3,0.28,783.3333333333334
-0.26,0.265,786.1111111111111
-0.25,0.255,788.8888888888889
-0.24,0.24,791.6666666666666
-0.235,0.24,794.4444444444445
-0.23,0.235,797.2222222222222
-0.21,0.245,800.0
-0.205,0.24,802.7777777777778
-0.18,0.23,805.5555555555555
-0.175,0.215,808.3333333333334
-0.185,0.21,811.1111111111111
-0.17,0.215,813.8888888888889
-0.165,0.215,816.6666666666666
-0.16,0.215,819.4444444444445
-0.155,0.215,822.2222222222222
-0.17,0.185,825.0
-0.17,0.195,827.7777777777778
-0.175,0.205,830.5555555555555
-0.175,0.205,833.3333333333334
-0.185,0.195,836.1111111111111
-0.185,0.185,838.8888888888889
-0.195,0.175,841.6666666666666
-0.2,0.175,844.4444444444445
-0.215,0.18,847.2222222222222
-0.22,0.205,850.0
-0.215,0.185,852.7777777777778
-0.23,0.195,855.5555555555555
-0.265,0.175,858.3333333333334
-0.28,0.165,861.1111111111111
-0.265,0.17,863.8888888888889
-0.26,0.19,866.6666666666666
-0.265,0.185,869.4444444444445
-0.255,0.18,872.2222222222222
-0.28,0.175,875.0
-0.31,0.165,877.7777777777778
-0.305,0.19,880.5555555555555
-0.29,0.19,883.3333333333334
-0.285,0.185,886.1111111111111
-0.3,0.18,888.8888888888889
-0.285,0.18,891.6666666666666
-0.29,0.17,894.4444444444445
-0.29,0.185,897.2222222222222
-0.29,0.195,900.0
-0.295,0.175,902.7777777777778
-0.295,0.165,905.5555555555555
-0.31,0.16,908.3333333333334
-0.31,0.165,911.1111111111111
-0.31,0.17,913.8888888888889
-0.315,0.175,916.6666666666666
-0.315,0.185,919.4444444444445
-0.315,0.18,922.2222222222222
-0.325,0.17,925.0
-0.33,0.165,927.7777777777778
-0.325,0.16,930.5555555555555
-0.31,0.17,933.3333333333334
-0.315,0.165,936.1111111111111
-0.32,0.155,938.8888888888889
-0.325,0.14,941.6666666666666
-0.36,0.155,944.4444444444445
-0.335,0.165,947.2222222222222
-0.32,0.165,950.0
-0.31,0.16,952.7777777777778
-0.32,0.15,955.5555555555555
-0.32,0.145,958.3333333333334
-0.33,0.145,961.1111111111111
-0.33,0.145,963.8888888888889
-0.31,0.165,966.6666666666666
-0.29,0.155,969.4444444444445
-0.3,0.15,972.2222222222222
-0.325,0.13,975.0
-0.33,0.125,977.7777777777778
-0.345,0.13,980.5555555555555
-0.325,0.14,983.3333333333334
-0.32,0.145,986.1111111111111
-0.32,0.13,988.8888888888889
-0.31,0.145,991.6666666666666
-0.315,0.145,994.4444444444445
-0.32,0.155,997.2222222222222
-0.32,0.155,1000.0
-0.315,0.145,1002.7777777777778
-0.31,0.13,1005.5555555555555
-0.33,0.125,1008.3333333333334
-0.34,0.125,1011.1111111111111
-0.335,0.14,1013.8888888888889
-0.325,0.15,1016.6666666666666
-0.32,0.145,1019.4444444444445
-0.32,0.135,1022.2222222222222
-0.325,0.125,1025.0
-0.345,0.13,1027.7777777777778
-0.335,0.13,1030.5555555555557
-0.32,0.14,1033.3333333333333
-0.32,0.145,1036.111111111111
-0.32,0.145,1038.888888888889
-0.33,0.135,1041.6666666666667
-0.36,0.125,1044.4444444444443
-0.345,0.14,1047.2222222222222
-0.32,0.145,1050.0
-0.32,0.145,1052.7777777777778
-0.33,0.135,1055.5555555555557
-0.34,0.125,1058.3333333333333
-0.355,0.145,1061.111111111111
-0.345,0.145,1063.888888888889
-0.33,0.19,1066.6666666666667
-0.305,0.195,1069.4444444444443
-0.3,0.195,1072.2222222222222
-0.295,0.215,1075.0
-0.305,0.215,1077.7777777777778
-0.285,0.23,1080.5555555555557
-0.245,0.235,1083.3333333333333
-0.225,0.235,1086.111111111111
-0.225,0.23,1088.888888888889
-0.245,0.215,1091.6666666666667
-0.26,0.195,1094.4444444444443
-0.25,0.2,1097.2222222222222
-0.22,0.2,1100.0
-0.205,0.195,1102.7777777777778
-0.175,0.195,1105.5555555555557
-0.18,0.175,1108.3333333333333
-0.175,0.165,1111.111111111111
-0.17,0.165,1113.888888888889
-0.145,0.155,1116.6666666666667
-0.12,0.15,1119.4444444444443
-0.145,0.145,1122.2222222222222
-0.15,0.13,1125.0
-0.165,0.14,1127.7777777777778
-0.17,0.15,1130.5555555555557
-0.165,0.175,1133.3333333333333
-0.17,0.155,1136.111111111111
-0.185,0.15,1138.888888888889
-0.205,0.13,1141.6666666666667
-0.24,0.115,1144.4444444444443
-0.27,0.125,1147.2222222222222
-0.325,0.14,1150.0
-0.36,0.135,1152.7777777777778
-0.39,0.13,1155.5555555555557
-0.395,0.135,1158.3333333333333
-0.405,0.11,1161.111111111111
-0.405,0.13,1163.888888888889
-0.415,0.13,1166.6666666666667
-0.41,0.125,1169.4444444444443
-0.4,0.115,1172.2222222222222
-0.41,0.115,1175.0
-0.42,0.115,1177.7777777777778
-0.42,0.13,1180.5555555555557
-0.4,0.145,1183.3333333333333
-0.395,0.13,1186.111111111111
-0.395,0.12,1188.888888888889
-0.4,0.11,1191.6666666666667
-0.39,0.11,1194.4444444444443
-0.39,0.13,1197.2222222222222
-0.385,0.13,1200.0
-0.38,0.145,1202.7777777777778
-0.39,0.125,1205.5555555555557
-0.4,0.12,1208.3333333333333
-0.395,0.11,1211.111111111111
-0.385,0.13,1213.888888888889
-0.375,0.13,1216.6666666666667
-0.37,0.12,1219.4444444444443
-0.365,0.105,1222.2222222222222
-0.385,0.095,1225.0
-0.39,0.095,1227.7777777777778
-0.385,0.11,1230.5555555555557
-0.39,0.12,1233.3333333333333
-0.39,0.1,1236.111111111111
-0.385,0.08,1238.888888888889
-0.37,0.04,1241.6666666666667
-0.33,-0.015,1244.4444444444443
-0.225,-0.05,1247.2222222222222
-0.09,-0.12,1250.0
0.09,-0.225,1252.7777777777778
0.27,-0.315,1255.5555555555557
0.46,-0.38,1258.3333333333333
0.64,-0.38,1261.111111111111
0.83,-0.34,1263.888888888889
0.98,-0.27,1266.6666666666667
1.085,-0.22,1269.4444444444443
1.175,-0.215,1272.2222222222222
1.175,-0.2,1275.0
1.065,-0.175,1277.7777777777778
0.91,-0.125,1280.5555555555557
0.78,-0.065,1283.3333333333333
0.66,-0.055,1286.111111111111
0.53,-0.015,1288.888888888889
0.385,0.025,1291.6666666666667
0.245,0.05,1294.4444444444443
0.175,0.08,1297.2222222222222
0.155,0.11,1300.0
0.095,0.125,1302.7777777777778
0.0,0.14,1305.5555555555557
-0.115,0.14,1308.3333333333333
-0.19,0.155,1311.111111111111
-0.25,0.175,1313.888888888889
-0.295,0.195,1316.6666666666667
-0.35,0.215,1319.4444444444443
-0.415,0.22,1322.2222222222222
-0.455,0.19,1325.0
-0.49,0.195,1327.7777777777778
-0.495,0.19,1330.5555555555557
-0.495,0.205,1333.3333333333333
-0.51,0.205,1336.111111111111
-0.52,0.2,1338.888888888889
-0.54,0.205,1341.6666666666667
-0.56,0.205,1344.4444444444443
-0.55,0.205,1347.2222222222222
-0.54,0.21,1350.0
-0.52,0.22,1352.7777777777778
-0.515,0.215,1355.5555555555557
-0.52,0.195,1358.3333333333333
-0.53,0.2,1361.111111111111
-0.525,0.205,1363.888888888889
-0.495,0.22,1366.6666666666667
-0.475,0.215,1369.4444444444443
-0.485,0.215,1372.2222222222222
-0.495,0.195,1375.0
-0.51,0.195,1377.7777777777778
-0.515,0.2,1380.5555555555557
-0.505,0.21,1383.3333333333333
-0.495,0.205,1386.111111111111
-0.5,0.2,1388.888888888889
-0.49,0.22,1391.6666666666667
-0.495,0.22,1394.4444444444443
-0.49,0.235,1397.2222222222222
-0.49,0.24,1400.0
-0.485,0.235,1402.7777777777778
-0.5,0.22,1405.5555555555557
-0.505,0.225,1408.3333333333333
-0.515,0.225,1411.111111111111
-0.515,0.235,1413.888888888889
-0.51,0.235,1416.6666666666667
-0.505,0.23,1419.4444444444443
-0.505,0.225,1422.2222222222222
-0.5,0.21,1425.0
-0.505,0.21,1427.7777777777778
-0.51,0.22,1430.5555555555557
-0.5,0.23,1433.3333333333333
-0.5,0.23,1436.111111111111
-0.5,0.22,1438.888888888889
-0.505,0.2,1441.6666666666667
-0.525,0.21,1444.4444444444443
-0.515,0.215,1447.2222222222222
-0.515,0.22,1450.0
-0.515,0.235,1452.7777777777778
-0.495,0.235,1455.5555555555557
-0.5,0.225,1458.3333333333333
-0.51,0.215,1461.111111111111
-0.495,0.225,1463.888888888889
-0.49,0.25,1466.6666666666667
-0.47,0.235,1469.4444444444443
-0.475,0.245,1472.2222222222222
-0.48,0.225,1475.0
-0.475,0.235,1477.7777777777778
-0.45,0.24,1480.5555555555557
-0.44,0.235,1483.3333333333333
-0.415,0.25,1486.111111111111
-0.41,0.235,1488.888888888889
-0.42,0.24,1491.6666666666667
-0.4,0.235,1494.4444444444443
-0.385,0.245,1497.2222222222222
-0.345,0.25,1500.0
-0.325,0.25,1502.7777777777778
-0.32,0.235,1505.5555555555557
-0.335,0.235,1508.3333333333333
-0.325,0.225,1511.111111111111
-0.305,0.23,1513.888888888889
-0.285,0.225,1516.6666666666667
-0.255,0.225,1519.4444444444443
-0.24,0.225,1522.2222222222222
-0.235,0.21,1525.0
-0.235,0.21,1527.7777777777778
-0.23,0.2,1530.5555555555557
-0.205,0.215,1533.3333333333333
-0.19,0.2,1536.111111111111
-0.2,0.205,1538.888888888889
-0.2,0.205,1541.6666666666667
-0.22,0.19,1544.4444444444443
-0.205,0.19,1547.2222222222222
-0.22,0.195,1550.0
-0.205,0.205,1552.7777777777778
-0.215,0.18,1555.5555555555557
-0.245,0.175,1558.3333333333333
-0.26,0.185,1561.111111111111
-0.25,0.19,1563.888888888889
-0.255,0.19,1566.6666666666667
-0.25,0.18,1569.4444444444443
-0.265,0.165,1572.2222222222222
-0.28,0.155,1575.0
-0.3,0.165,1577.7777777777778
-0.295,0.18,1580.5555555555557
-0.3,0.195,1583.3333333333333
-0.3,0.18,1586.111111111111
-0.305,0.18,1588.888888888889
-0.31,0.175,1591.6666666666667
-0.33,0.18,1594.4444444444443
-0.33,0.185,1597.2222222222222
-0.32,0.19,1600.0
-0.315,0.19,1602.7777777777778
-0.32,0.19,1605.5555555555557
-0.33,0.185,1608.3333333333333
-0.345,0.18,1611.111111111111
-0.345,0.195,1613.888888888889
-0.34,0.2,1616.6666666666667
-0.335,0.195,1619.4444444444443
-0.335,0.19,1622.2222222222222
-0.34,0.185,1625.0
-0.355,0.17,1627.7777777777778
-0.34,0.175,1630.5555555555557
-0.345,0.175,1633.3333333333333
-0.34,0.17,1636.111111111111
-0.35,0.17,1638.888888888889
-0.35,0.155,1641.6666666666667
-0.365,0.17,1644.4444444444443
-0.365,0.185,1647.2222222222222
-0.35,0.195,1650.0
-0.335,0.17,1652.7777777777778
-0.335,0.18,1655.5555555555557
-0.35,0.16,1658.3333333333333
-0.36,0.16,1661.111111111111
-0.37,0.165,1663.888888888889
-0.36,0.17,1666.6666666666667
-0.345,0.17,1669.4444444444443
-0.35,0.16,1672.2222222222222
-0.365,0.155,1675.0
-0.365,0.145,1677.7777777777778
-0.37,0.16,1680.5555555555557
-0.355,0.165,1683.3333333333333
-0.355,0.16,1686.111111111111
-0.36,0.16,1688.888888888889
-0.365,0.145,1691.6666666666667
-0.365,0.15,1694.4444444444443
-0.355,0.16,1697.2222222222222
-0.335,0.16,1700.0
-0.34,0.15,1702.7777777777778
-0.355,0.145,1705.5555555555557
-0.375,0.145,1708.3333333333333
-0.385,0.155,1711.111111111111
-0.375,0.155,1713.888888888889
-0.36,0.17,1716.6666666666667
-0.35,0.16,1719.4444444444443
-0.355,0.16,1722.2222222222222
-0.365,0.145,1725.0
-0.375,0.145,1727.7777777777778
-0.37,0.155,1730.5555555555557
-0.36,0.165,1733.3333333333333
-0.355,0.16,1736.111111111111
-0.355,0.16,1738.888888888889
-0.365,0.14,1741.6666666666667
-0.365,0.14,1744.4444444444443
-0.355,0.15,1747.2222222222222
-0.335,0.155,1750.0
-0.325,0.165,1752.7777777777778
-0.335,0.155,1755.5555555555557
-0.36,0.155,1758.3333333333333
-0.375,0.145,1761.111111111111
-0.355,0.165,1763.888888888889
-0.335,0.185,1766.6666666666667
-0.32,0.19,1769.4444444444443
-0.32,0.21,1772.2222222222222
-0.29,0.215,1775.0
-0.3,0.22,1777.7777777777778
-0.275,0.23,1780.5555555555557
-0.25,0.23,1783.3333333333333
-0.22,0.205,1786.111111111111
-0.24,0.215,1788.888888888889
-0.255,0.2,1791.6666666666667
-0.245,0.19,1794.4444444444443
-0.215,0.19,1797.2222222222222
-0.18,0.195,1800.0
-0.17,0.19,1802.7777777777778
-0.165,0.185,1805.5555555555557
-0.145,0.17,1808.3333333333333
-0.135,0.185,1811.111111111111
-0.125,0.175,1813.888888888889
-0.115,0.175,1816.6666666666667
-0.105,0.155,1819.4444444444443
-0.115,0.16,1822.2222222222222
-0.13,0.155,1825.0
-0.17,0.15,1827.7777777777778
-0.17,0.15,1830.5555555555557
-0.18,0.165,1833.3333333333333
-0.18,0.165,1836.111111111111
-0.21,0.14,1838.888888888889
-0.255,0.125,1841.6666666666667
-0.315,0.13,1844.4444444444443
-0.35,0.14,1847.2222222222222
-0.37,0.145,1850.0
-0.375,0.13,1852.7777777777778
-0.37,0.12,1855.5555555555557
-0.39,0.105,1858.3333333333333
-0.405,0.105,1861.111111111111
-0.4,0.115,1863.888888888889
-0.39,0.13,1866.6666666666667
-0.375,0.125,1869.4444444444443
-0.38,0.12,1872.2222222222222
-0.385,0.11,1875.0
-0.405,0.11,1877.7777777777778
-0.385,0.12,1880.5555555555557
-0.375,0.125,1883.3333333333333
-0.375,0.125,1886.111111111111
-0.38,0.125,1888.888888888889
-0.375,0.11,1891.6666666666667
-0.38,0.11,1894.4444444444443
-0.37,0.13,1897.2222222222222
-0.355,0.14,1900.0
-0.35,0.14,1902.7777777777778
-0.355,0.135,1905.5555555555557
-0.365,0.115,1908.3333333333333
-0.375,0.1,1911.111111111111
-0.36,0.11,1913.888888888889
-0.35,0.1,1916.6666666666667
-0.34,0.1,1919.4444444444443
-0.34,0.075,1922.2222222222222
-0.355,0.075,1925.0
-0.38,0.085,1927.7777777777778
-0.38,0.09,1930.5555555555557
-0.36,0.09,1933.3333333333333
-0.32,0.06,1936.111111111111
-0.23,0.02,1938.888888888889
-0.1,-0.04,1941.6666666666667
0.055,-0.11,1944.4444444444443
0.24,-0.18,1947.2222222222222
0.415,-0.225,1950.0
0.61,-0.285,1952.7777777777778
0.775,-0.32,1955.5555555555557
0.925,-0.32,1958.3333333333333
1.03,-0.25,1961.111111111111
1.105,-0.175,1963.888888888889
1.155,-0.14,1966.6666666666667
1.14,-0.155,1969.4444444444443
1.035,-0.14,1972.2222222222222
0.885,-0.115,1975.0
0.755,-0.08,1977.7777777777778
0.65,-0.04,1980.5555555555557
0.54,0.005,1983.3333333333333
0.37,0.035,1986.111111111111
0.19,0.07,1988.888888888889
0.08,0.08,1991.6666666666667
-0.015,0.1,1994.4444444444443
-0.08,0.12,1997.2222222222222
-0.175,0.145,2000.0
-0.245,0.135,2002.7777777777778
-0.305,0.15,2005.5555555555557
-0.365,0.165,2008.3333333333333
-0.41,0.175,2011.111111111111
-0.45,0.205,2013.888888888889
-0.47,0.22,2016.6666666666667
-0.49,0.22,2019.4444444444443
-0.495,0.21,2022.2222222222222
-0.535,0.185,2025.0
-0.56,0.185,2027.7777777777778
-0.57,0.19,2030.5555555555557
-0.565,0.205,2033.3333333333333
-0.555,0.205,2036.111111111111
-0.56,0.195,2038.888888888889
-0.565,0.17,2041.6666666666667
-0.585,0.175,2044.4444444444443
-0.57,0.2,2047.2222222222222
-0.555,0.21,2050.0
-0.55,0.205,2052.777777777778
-0.545,0.195,2055.5555555555557
-0.555,0.19,2058.3333333333335
-0.57,0.185,2061.1111111111113
-0.56,0.21,2063.8888888888887
-0.55,0.215,2066.6666666666665
-0.545,0.2,2069.4444444444443
-0.525,0.19,2072.222222222222
-0.53,0.195,2075.0
-0.545,0.205,2077.777777777778
-0.535,0.21,2080.5555555555557
-0.53,0.22,2083.3333333333335
-0.53,0.205,2086.1111111111113
-0.52,0.205,2088.8888888888887
-0.525,0.19,2091.6666666666665
-0.535,0.185,2094.4444444444443
-0.535,0.21,2097.222222222222
-0.525,0.225,2100.0
-0.535,0.215,2102.777777777778
-0.525,0.205,2105.5555555555557
-0.53,0.195,2108.3333333333335
-0.55,0.19,2111.1111111111113
-0.535,0.2,2113.8888888888887
-0.53,0.21,2116.6666666666665
-0.52,0.215,2119.4444444444443
-0.535,0.21,2122.222222222222
-0.545,0.205,2125.0
-0.55,0.205,2127.777777777778
-0.54,0.205,2130.5555555555557
-0.525,0.225,2133.3333333333335
-0.525,0.21,2136.1111111111113
-0.535,0.22,2138.8888888888887
-0.54,0.195,2141.6666666666665
-0.53,0.21,2144.4444444444443
-0.52,0.23,2147.222222222222
-0.51,0.24,2150.0
-0.5,0.235,2152.777777777778
-0.505,0.215,2155.5555555555557
-0.515,0.21,2158.3333333333335
-0.52,0.2,2161.1111111111113
-0.51,0.22,2163.8888888888887
-0.505,0.24,2166.6666666666665
-0.495,0.25,2169.4444444444443
-0.48,0.235,2172.222222222222
-0.475,0.22,2175.0
-0.475,0.21,2177.777777777778
-0.455,0.225,2180.5555555555557
-0.425,0.225,2183.3333333333335
-0.4,0.225,2186.1111111111113
-0.41,0.225,2188.8888888888887
-0.405,0.215,2191.6666666666665
-0.4,0.21,2194.4444444444443
-0.385,0.22,2197.222222222222
-0.37,0.23,2200.0
-0.345,0.225,2202.777777777778
-0.315,0.215,2205.5555555555557
-0.31,0.21,2208.3333333333335
-0.315,0.22,2211.1111111111113
-0.29,0.225,2213.8888888888887
-0.26,0.225,2216.6666666666665
-0.25,0.22,2219.4444444444443
-0.235,0.205,2222.222222222222
-0.23,0.21,2225.0
-0.24,0.2,2227.777777777778
-0.225,0.2,2230.5555555555557
-0.22,0.215,2233.3333333333335
-0.205,0.2,2236.1111111111113
-0.2,0.19,2238.8888888888887
-0.18,0.185,2241.6666666666665
-0.185,0.185,2244.4444444444443
-0.18,0.17,2247.222222222222
-0.185,0.19,2250.0
-0.17,0.18,2252.777777777778
-0.19,0.19,2255.5555555555557
-0.21,0.185,2258.3333333333335
-0.225,0.175,2261.1111111111113
-0.23,0.175,2263.8888888888887
-0.215,0.18,2266.6666666666665
-0.215,0.18,2269.4444444444443
-0.23,0.18,2272.222222222222
-0.25,0.18,2275.0
-0.26,0.18,2277.777777777778
-0.27,0.185,2280.5555555555557
-0.255,0.195,2283.3333333333335
-0.255,0.195,2286.1111111111113
-0.265,0.185,2288.8888888888887
-0.275,0.165,2291.6666666666665
-0.275,0.165,2294.4444444444443
-0.28,0.17,2297.222222222222
-0.285,0.18,2300.0
-0.27,0.19,2302.777777777778
-0.27,0.18,2305.5555555555557
-0.295,0.17,2308.3333333333335
-0.3,0.165,2311.1111111111113
-0.31,0.16,2313.8888888888887
-0.31,0.175,2316.6666666666665
-0.295,0.165,2319.4444444444443
-0.295,0.165,2322.222222222222
-0.295,0.145,2325.0
-0.315,0.15,2327.777777777778
-0.315,0.16,2330.5555555555557
-0.325,0.17,2333.3333333333335
-0.315,0.17,2336.1111111111113
-0.315,0.175,2338.8888888888887
-0.315,0.15,2341.6666666666665
-0.325,0.145,2344.4444444444443
-0.335,0.155,2347.222222222222
-0.33,0.165,2350.0
-0.33,0.145,2352.777777777778
-0.32,0.14,2355.5555555555557
-0.32,0.135,2358.3333333333335
-0.325,0.145,2361.1111111111113
-0.325,0.14,2363.8888888888887
-0.31,0.165,2366.6666666666665
-0.31,0.155,2369.4444444444443
-0.315,0.155,2372.222222222222
-0.305,0.135,2375.0
-0.31,0.145,2377.777777777778
-0.32,0.13,2380.5555555555557
-0.32,0.145,2383.3333333333335
-0.32,0.145,2386.1111111111113
-0.32,0.145,2388.8888888888887
-0.32,0.135,2391.6666666666665
-0.33,0.135,2394.4444444444443
-0.32,0.135,2397.222222222222
-0.315,0.135,2400.0
-0.305,0.125,2402.777777777778
-0.315,0.12,2405.5555555555557
-0.315,0.12,2408.3333333333335
-0.34,0.12,2411.1111111111113
-0.335,0.125,2413.8888888888887
-0.325,0.135,2416.6666666666665
-0.315,0.14,2419.4444444444443
-0.31,0.12,2422.222222222222
-0.33,0.125,2425.0
-0.34,0.11,2427.777777777778
-0.32,0.14,2430.5555555555557
-0.305,0.155,2433.3333333333335
-0.295,0.145,2436.1111111111113
-0.3,0.135,2438.8888888888887
-0.315,0.14,2441.6666666666665
-0.33,0.125,2444.4444444444443
-0.33,0.125,2447.222222222222
-0.31,0.135,2450.0
-0.295,0.145,2452.777777777778
-0.3,0.14,2455.5555555555557
-0.32,0.125,2458.3333333333335
-0.33,0.12,2461.1111111111113
-0.325,0.13,2463.8888888888887
-0.31,0.135,2466.6666666666665
-0.295,0.14,2469.4444444444443
-0.31,0.14,2472.222222222222
-0.32,0.135,2475.0
-0.315,0.15,2477.777777777778
-0.295,0.165,2480.5555555555557
-0.28,0.195,2483.3333333333335
-0.265,0.205,2486.1111111111113
-0.245,0.205,2488.8888888888887
-0.245,0.2,2491.6666666666665
-0.245,0.185,2494.4444444444443
-0.24,0.195,2497.222222222222
-0.22,0.215,2500.0
-0.215,0.21,2502.777777777778
-0.23,0.21,2505.5555555555557
-0.21,0.18,2508.3333333333335
-0.195,0.165,2511.1111111111113
-0.18,0.16,2513.8888888888887
-0.16,0.165,2516.6666666666665
-0.135,0.165,2519.4444444444443
-0.125,0.17,2522.222222222222
-0.13,0.15,2525.0
-0.13,0.135,2527.777777777778
-0.12,0.135,2530.5555555555557
-0.095,0.135,2533.3333333333335
-0.105,0.135,2536.1111111111113
-0.105,0.13,2538.8888888888887
-0.13,0.125,2541.6666666666665
-0.15,0.12,2544.4444444444443
-0.14,0.115,2547.222222222222
-0.145,0.125,2550.0
-0.17,0.115,2552.777777777778
-0.23,0.11,2555.5555555555557
-0.28,0.095,2558.3333333333335
-0.325,0.08,2561.1111111111113
-0.34,0.095,2563.8888888888887
-0.34,0.1,2566.6666666666665
-0.335,0.095,2569.4444444444443
-0.36,0.09,2572.222222222222
-0.365,0.075,2575.0
-0.375,0.085,2577.777777777778
-0.37,0.085,2580.5555555555557
-0.355,0.085,2583.3333333333335
-0.34,0.08,2586.1111111111113
-0.345,0.08,2588.8888888888887
-0.35,0.07,2591.6666666666665
-0.345,0.075,2594.4444444444443
-0.35,0.085,2597.222222222222
-0.35,0.09,2600.0
-0.33,0.08,2602.777777777778
-0.315,0.075,2605.5555555555557
-0.325,0.06,2608.3333333333335
-0.34,0.065,2611.1111111111113
-0.33,0.075,2613.8888888888887
-0.335,0.085,2616.6666666666665
-0.315,0.08,2619.4444444444443
-0.31,0.075,2622.222222222222
-0.31,0.055,2625.0
-0.32,0.055,2627.777777777778
-0.315,0.04,2630.5555555555557
-0.305,0.045,2633.3333333333335
-0.305,0.025,2636.1111111111113
-0.315,0.025,2638.8888888888887
-0.325,0.035,2641.6666666666665
-0.335,0.03,2644.4444444444443
-0.33,0.03,2647.222222222222
-0.275,0.0,2650.0
-0.165,-0.05,2652.777777777778
-0.01,-0.135,2655.5555555555557
0.185,-0.22,2658.3333333333335
0.355,-0.305,2661.1111111111113
0.56,-0.37,2663.8888888888887
0.77,-0.38,2666.6666666666665
0.945,-0.355,2669.4444444444443
1.05,-0.305,2672.222222222222
1.14,-0.27,2675.0
1.18,-0.24,2677.777777777778
1.14,-0.24,2680.5555555555557
1.035,-0.205,2683.3333333333335
0.895,-0.165,2686.1111111111113
0.77,-0.12,2688.8888888888887
0.675,-0.115,2691.6666666666665
0.57,-0.09,2694.4444444444443
0.46,-0.05,2697.222222222222
0.31,0.0,2700.0
0.17,0.01,2702.777777777778
0.065,0.015,2705.5555555555557
-0.03,0.025,2708.3333333333335
-0.11,0.055,2711.1111111111113
-0.195,0.08,2713.8888888888887
-0.27,0.1,2716.6666666666665
-0.33,0.105,2719.4444444444443
-0.365,0.115,2722.222222222222
-0.42,0.125,2725.0
-0.485,0.145,2727.777777777778
-0.5,0.165,2730.5555555555557
-0.51,0.18,2733.3333333333335
-0.5,0.155,2736.1111111111113
-0.505,0.14,2738.8888888888887
-0.515,0.135,2741.6666666666665
-0.535,0.12,2744.4444444444443
-0.545,0.14,2747.222222222222
-0.54,0.155,2750.0
-0.54,0.16,2752.777777777778
-0.54,0.15,2755.5555555555557
-0.535,0.15,2758.3333333333335
-0.52,0.155,2761.1111111111113
-0.515,0.155,2763.8888888888887
-0.515,0.155,2766.6666666666665
-0.51,0.15,2769.4444444444443
-0.51,0.145,2772.222222222222
-0.505,0.15,2775.0
-0.5,0.155,2777.777777777778
-0.495,0.17,2780.5555555555557
-0.49,0.155,2783.3333333333335
-0.49,0.15,2786.1111111111113
-0.495,0.145,2788.8888888888887
-0.495,0.145,2791.6666666666665
-0.485,0.155,2794.4444444444443
-0.465,0.155,2797.222222222222
-0.47,0.15,2800.0
-0.47,0.15,2802.777777777778
-0.475,0.14,2805.5555555555557
-0.495,0.14,2808.3333333333335
-0.49,0.14,2811.1111111111113
-0.47,0.155,2813.8888888888887
-0.47,0.16,2816.6666666666665
-0.485,0.155,2819.4444444444443
-0.48,0.14,2822.222222222222
-0.5,0.14,2825.0
-0.485,0.145,2827.777777777778
-0.475,0.155,2830.5555555555557
-0.485,0.15,2833.3333333333335
-0.48,0.14,2836.1111111111113
-0.49,0.145,2838.8888888888887
-0.495,0.15,2841.6666666666665
-0.505,0.155,2844.4444444444443
-0.51,0.165,2847.222222222222
-0.475,0.165,2850.0
-0.48,0.16,2852.777777777778
-0.485,0.145,2855.5555555555557
-0.5,0.15,2858.3333333333335
-0.495,0.15,2861.1111111111113
-0.485,0.18,2863.8888888888887
-0.475,0.165,2866.6666666666665
-0.465,0.17,2869.4444444444443
-0.47,0.155,2872.222222222222
-0.485,0.16,2875.0
-0.465,0.16,2877.777777777778
-0.45,0.17,2880.5555555555557
-0.425,0.165,2883.3333333333335
-0.42,0.155,2886.1111111111113
-0.4,0.15,2888.8888888888887
-0.415,0.165,2891.6666666666665
-0.395,0.17,2894.4444444444443
-0.385,0.175,2897.222222222222
-0.38,0.175,2900.0
-0.375,0.175,2902.777777777778
-0.37,0.16,2905.5555555555557
-0.37,0.16,2908.3333333333335
-0.345,0.155,2911.1111111111113
-0.315,0.175,2913.8888888888887
-0.285,0.18,2916.6666666666665
-0.28,0.175,2919.4444444444443
-0.255,0.16,2922.222222222222
-0.26,0.15,2925.0
-0.235,0.15,2927.777777777778
-0.215,0.16,2930.5555555555557
-0.195,0.155,2933.3333333333335
-0.19,0.15,2936.1111111111113
-0.18,0.135,2938.8888888888887
-0.175,0.135,2941.6666666666665
-0.165,0.145,2944.4444444444443
-0.155,0.145,2947.222222222222
-0.14,0.14,2950.0
-0.145,0.135,2952.777777777778
-0.15,0.115,2955.5555555555557
-0.155,0.11,2958.3333333333335
-0.175,0.135,2961.1111111111113
-0.175,0.14,2963.8888888888887
-0.16,0.12,2966.6666666666665
-0.175,0.11,2969.4444444444443
-0.2,0.1,2972.222222222222
-0.215,0.095,2975.0
-0.22,0.1,2977.777777777778
-0.215,0.11,2980.5555555555557
-0.225,0.115,2983.3333333333335
-0.23,0.1,2986.1111111111113
-0.23,0.1,2988.8888888888887
-0.24,0.105,2991.6666666666665
-0.235,0.11,2994.4444444444443
-0.24,0.12,2997.222222222222
-0.245,0.1,3000.0
-0.255,0.085,3002.777777777778
-0.245,0.085,3005.5555555555557
-0.245,0.08,3008.3333333333335
-0.255,0.105,3011.1111111111113
-0.245,0.11,3013.8888888888887
-0.24,0.105,3016.6666666666665
-0.255,0.09,3019.4444444444443
-0.265,0.08,3022.222222222222
-0.28,0.085,3025.0
-0.275,0.105,3027.777777777778
-0.27,0.11,3030.5555555555557
-0.26,0.11,3033.3333333333335
-0.26,0.11,3036.1111111111113
-0.27,0.09,3038.8888888888887
-0.28,0.075,3041.6666666666665
-0.285,0.11,3044.4444444444443
-0.28,0.095,3047.222222222222
-0.27,0.095,3050.0
-0.27,0.095,3052.777777777778
-0.275,0.09,3055.5555555555557
-0.27,0.08,3058.3333333333335
-0.27,0.095,3061.1111111111113
-0.27,0.1,3063.8888888888887
-0.265,0.085,3066.6666666666665
-0.255,0.085,3069.4444444444443
-0.275,0.07,3072.222222222222
-0.29,0.075,3075.0
-0.28,0.075,3077.777777777778
-0.27,0.09,3080.5555555555557
-0.28,0.085,3083.3333333333335
-0.285,0.075,3086.1111111111113
-0.28,0.065,3088.8888888888887
-0.28,0.06,3091.6666666666665
-0.275,0.075,3094.4444444444443
-0.275,0.075,3097.222222222222
-0.26,0.075,3100.0
-0.265,0.065,3102.777777777778
-0.28,0.055,3105.5555555555557
-0.285,0.04,3108.3333333333335
-0.28,0.055,3111.1111111111113
-0.27,0.065,3113.8888888888887
-0.25,0.055,3116.6666666666665
-0.27,0.065,3119.4444444444443
-0.29,0.06,3122.222222222222
-0.28,0.06,3125.0
-0.29,0.055,3127.777777777778
-0.265,0.08,3130.5555555555557
-0.26,0.075,3133.3333333333335
-0.255,0.065,3136.1111111111113
-0.27,0.06,3138.8888888888887
-0.285,0.055,3141.6666666666665
-0.285,0.06,3144.4444444444443
-0.275,0.085,3147.222222222222
-0.26,0.07,3150.0
-0.27,0.06,3152.777777777778
-0.265,0.06,3155.5555555555557
-0.28,0.05,3158.3333333333335
-0.28,0.06,3161.1111111111113
-0.26,0.07,3163.8888888888887
-0.265,0.065,3166.6666666666665
-0.275,0.06,3169.4444444444443
-0.28,0.045,3172.222222222222
-0.295,0.055,3175.0
-0.275,0.075,3177.777777777778
-0.25,0.07,3180.5555555555557
-0.245,0.06,3183.3333333333335
-0.255,0.06,3186.1111111111113
-0.27,0.06,3188.8888888888887
-0.285,0.06,3191.6666666666665
-0.285,0.09,3194.4444444444443
-0.265,0.115,3197.222222222222
-0.24,0.12,3200.0
-0.235,0.14,3202.777777777778
-0.225,0.135,3205.5555555555557
-0.205,0.145,3208.3333333333335
-0.17,0.15,3211.1111111111113
-0.145,0.15,3213.8888888888887
-0.15,0.14,3216.6666666666665
-0.18,0.135,3219.4444444444443
-0.175,0.12,3222.222222222222
-0.17,0.1,3225.0
-0.13,0.085,3227.777777777778
-0.1,0.1,3230.5555555555557
-0.085,0.09,3233.3333333333335
-0.09,0.09,3236.1111111111113
-0.075,0.075,3238.8888888888887
-0.085,0.07,3241.6666666666665
-0.09,0.085,3244.4444444444443
-0.075,0.065,3247.222222222222
-0.055,0.05,3250.0
-0.065,0.055,3252.777777777778
-0.075,0.06,3255.5555555555557
-0.09,0.075,3258.3333333333335
-0.11,0.075,3261.1111111111113
-0.11,0.065,3263.8888888888887
-0.12,0.04,3266.6666666666665
-0.13,0.035,3269.4444444444443
-0.19,0.02,3272.222222222222
-0.26,0.03,3275.0
-0.3,0.03,3277.777777777778
-0.325,0.035,3280.5555555555557
-0.33,0.05,3283.3333333333335
-0.335,0.035,3286.1111111111113
-0.34,0.025,3288.8888888888887
-0.335,0.025,3291.6666666666665
-0.33,0.03,3294.4444444444443
-0.34,0.045,3297.222222222222
-0.34,0.03,3300.0
-0.335,0.035,3302.777777777778
-0.335,0.025,3305.5555555555557
-0.34,0.03,3308.3333333333335
-0.325,0.035,3311.1111111111113
-0.335,0.04,3313.8888888888887
-0.325,0.035,3316.6666666666665
-0.32,0.03,3319.4444444444443
-0.325,0.045,3322.222222222222
-0.325,0.035,3325.0
-0.325,0.045,3327.777777777778
-0.31,0.05,3330.5555555555557
-0.295,0.05,3333.3333333333335
-0.305,0.035,3336.1111111111113
-0.305,0.015,3338.8888888888887
-0.305,0.02,3341.6666666666665
-0.28,0.02,3344.4444444444443
-0.27,0.025,3347.222222222222
-0.275,0.015,3350.0
-0.29,0.02,3352.777777777778
-0.315,-0.01,3355.5555555555557
-0.31,-0.015,3358.3333333333335
-0.29,-0.03,3361.1111111111113
-0.245,-0.085,3363.8888888888887
-0.16,-0.135,3366.6666666666665
-0.045,-0.225,3369.4444444444443
0.115,-0.32,3372.222222222222
0.3,-0.41,3375.0
0.515,-0.465,3377.777777777778
0.74,-0.465,3380.5555555555557
0.935,-0.41,3383.3333333333335
1.075,-0.355,3386.1111111111113
1.195,-0.3,3388.8888888888887
1.235,-0.3,3391.6666666666665
1.195,-0.3,3394.4444444444443
1.08,-0.255,3397.222222222222
0.96,-0.205,3400.0
0.835,-0.185,3402.777777777778
0.74,-0.15,3405.5555555555557
0.625,-0.11,3408.3333333333335
0.465,-0.06,3411.1111111111113
0.31,-0.01,3413.8888888888887
0.215,-0.005,3416.6666666666665
0.14,0.015,3419.4444444444443
0.025,0.025,3422.222222222222
-0.08,0.03,3425.0
-0.16,0.07,3427.777777777778
-0.23,0.08,3430.5555555555557
-0.27,0.11,3433.3333333333335
-0.325,0.115,3436.1111111111113
-0.385,0.12,3438.8888888888887
-0.445,0.11,3441.6666666666665
-0.46,0.115,3444.4444444444443
-0.46,0.12,3447.222222222222
-0.485,0.115,3450.0
-0.485,0.11,3452.777777777778
-0.495,0.105,3455.5555555555557
-0.5,0.11,3458.3333333333335
-0.495,0.115,3461.1111111111113
-0.51,0.12,3463.8888888888887
-0.515,0.13,3466.6666666666665
-0.505,0.115,3469.4444444444443
-0.495,0.105,3472.222222222222
-0.495,0.115,3475.0
-0.495,0.13,3477.777777777778
-0.475,0.13,3480.5555555555557
-0.475,0.135,3483.3333333333335
-0.48,0.135,3486.1111111111113
-0.485,0.12,3488.8888888888887
-0.49,0.11,3491.6666666666665
-0.5,0.125,3494.4444444444443
-0.485,0.13,3497.222222222222
-0.47,0.135,3500.0
-0.47,0.13,3502.777777777778
-0.465,0.135,3505.5555555555557
-0.47,0.13,3508.3333333333335
-0.465,0.13,3511.1111111111113
-0.465,0.145,3513.8888888888887
-0.48,0.13,3516.6666666666665
-0.475,0.135,3519.4444444444443
-0.48,0.13,3522.222222222222
-0.48,0.135,3525.0
-0.48,0.15,3527.777777777778
-0.465,0.155,3530.5555555555557
-0.47,0.155,3533.3333333333335
-0.47,0.145,3536.1111111111113
-0.475,0.145,3538.8888888888887
-0.485,0.145,3541.6666666666665
-0.465,0.155,3544.4444444444443
-0.46,0.16,3547.222222222222
-0.455,0.165,3550.0
-0.45,0.16,3552.777777777778
-0.46,0.155,3555.5555555555557
-0.48,0.15,3558.3333333333335
-0.46,0.15,3561.1111111111113
-0.45,0.165,3563.8888888888887
-0.44,0.165,3566.6666666666665
-0.445,0.175,3569.4444444444443
-0.45,0.155,3572.222222222222
-0.465,0.165,3575.0
-0.465,0.17,3577.777777777778
-0.465,0.185,3580.5555555555557
-0.455,0.175,3583.3333333333335
-0.44,0.165,3586.1111111111113
-0.43,0.17,3588.8888888888887
-0.435,0.175,3591.6666666666665
-0.42,0.175,3594.4444444444443
-0.41,0.19,3597.222222222222
-0.39,0.18,3600.0
-0.37,0.16,3602.777777777778
-0.365,0.165,3605.5555555555557
-0.36,0.165,3608.3333333333335
-0.33,0.17,3611.1111111111113
-0.315,0.185,3613.8888888888887
-0.295,0.18,3616.6666666666665
-0.275,0.18,3619.4444444444443
-0.28,0.175,3622.222222222222
-0.27,0.18,3625.0
-0.24,0.175,3627.777777777778
-0.22,0.185,3630.5555555555557
-0.2,0.17,3633.3333333333335
-0.185,0.16,3636.1111111111113
-0.18,0.155,3638.8888888888887
-0.175,0.145,3641.6666666666665
-0.16,0.16,3644.4444444444443
-0.135,0.15,3647.222222222222
-0.115,0.15,3650.0
-0.125,0.145,3652.777777777778
-0.13,0.14,3655.5555555555557
-0.155,0.13,3658.3333333333335
-0.15,0.13,3661.1111111111113
-0.14,0.14,3663.8888888888887
-0.135,0.14,3666.6666666666665
-0.14,0.125,3669.4444444444443
-0.16,0.1,3672.222222222222
-0.175,0.1,3675.0
-0.175,0.11,3677.777777777778
-0.18,0.115,3680.5555555555557
-0.17,0.125,3683.3333333333335
-0.185,0.105,3686.1111111111113
-0.2,0.115,3688.8888888888887
-0.215,0.115,3691.6666666666665
-0.22,0.11,3694.4444444444443
-0.225,0.12,3697.222222222222
-0.235,0.12,3700.0
-0.235,0.11,3702.777777777778
-0.24,0.105,3705.5555555555557
-0.25,0.105,3708.3333333333335
-0.25,0.1,3711.1111111111113
-0.24,0.12,3713.8888888888887
-0.235,0.12,3716.6666666666665
-0.25,0.115,3719.4444444444443
-0.25,0.115,3722.222222222222
-0.28,0.1,3725.0
-0.27,0.115,3727.777777777778
-0.27,0.12,3730.5555555555557
-0.26,0.12,3733.3333333333335
-0.275,0.11,3736.1111111111113
-0.275,0.11,3738.8888888888887
-0.3,0.11,3741.6666666666665
-0.285,0.105,3744.4444444444443
-0.275,0.12,3747.222222222222
-0.265,0.12,3750.0
-0.27,0.12,3752.777777777778
-0.28,0.1,3755.5555555555557
-0.295,0.095,3758.3333333333335
-0.29,0.11,3761.1111111111113
-0.285,0.115,3763.8888888888887
-0.265,0.12,3766.6666666666665
-0.285,0.105,3769.4444444444443
-0.295,0.095,3772.222222222222
-0.295,0.095,3775.0
-0.31,0.105,3777.777777777778
-0.29,0.115,3780.5555555555557
-0.28,0.105,3783.3333333333335
-0.285,0.095,3786.1111111111113
-0.29,0.09,3788.8888888888887
-0.29,0.075,3791.6666666666665
-0.295,0.11,3794.4444444444443
-0.29,0.105,3797.222222222222
-0.285,0.115,3800.0
-0.29,0.11,3802.777777777778
-0.285,0.085,3805.5555555555557
-0.31,0.095,3808.3333333333335
-0.3,0.09,3811.1111111111113
-0.305,0.095,3813.8888888888887
-0.295,0.09,3816.6666666666665
-0.29,0.095,3819.4444444444443
-0.29,0.09,3822.222222222222
-0.29,0.095,3825.0
-0.295,0.085,3827.777777777778
-0.3,0.095,3830.5555555555557
-0.28,0.095,3833.3333333333335
-0.28,0.09,3836.1111111111113
-0.285,0.09,3838.8888888888887
-0.3,0.085,3841.6666666666665
-0.29,0.105,3844.4444444444443
-0.285,0.1,3847.222222222222
-0.275,0.085,3850.0
-0.27,0.09,3852.777777777778
-0.275,0.08,3855.5555555555557
-0.3,0.09,3858.3333333333335
-0.29,0.085,3861.1111111111113
-0.275,0.11,3863.8888888888887
-0.275,0.1,3866.6666666666665
-0.27,0.1,3869.4444444444443
-0.285,0.1,3872.222222222222
-0.295,0.09,3875.0
-0.285,0.1,3877.777777777778
-0.28,0.095,3880.5555555555557
-0.265,0.105,3883.3333333333335
-0.27,0.1,3886.1111111111113
-0.27,0.095,3888.8888888888887
-0.27,0.105,3891.6666666666665
-0.275,0.115,3894.4444444444443
-0.255,0.125,3897.222222222222
-0.255,0.13,3900.0
-0.255,0.14,3902.777777777778
-0.265,0.125,3905.5555555555557
-0.27,0.16,3908.3333333333335
-0.225,0.18,3911.1111111111113
-0.205,0.175,3913.8888888888887
-0.195,0.18,3916.6666666666665
-0.185,0.175,3919.4444444444443
-0.195,0.15,3922.222222222222
-0.2,0.155,3925.0
-0.195,0.155,3927.777777777778
-0.175,0.155,3930.5555555555557
-0.145,0.14,3933.3333333333335
-0.13,0.13,3936.1111111111113
-0.13,0.115,3938.8888888888887
-0.125,0.115,3941.6666666666665
-0.11,0.13,3944.4444444444443
-0.095,0.135,3947.222222222222
-0.06,0.125,3950.0
-0.07,0.095,3952.777777777778
-0.075,0.09,3955.5555555555557
-0.105,0.085,3958.3333333333335
-0.1,0.105,3961.1111111111113
-0.085,0.12,3963.8888888888887
-0.085,0.115,3966.6666666666665
-0.09,0.1,3969.4444444444443
-0.115,0.08,3972.222222222222
-0.13,0.09,3975.0
-0.155,0.075,3977.777777777778
-0.18,0.09,3980.5555555555557
-0.22,0.08,3983.3333333333335
-0.275,0.075,3986.1111111111113
-0.305,0.075,3988.8888888888887
-0.355,0.07,3991.6666666666665
-0.35,0.075,3994.4444444444443
-0.335,0.08,3997.222222222222
-0.33,0.075,4000.0
-0.34,0.075,4002.777777777778
-0.35,0.07,4005.5555555555557
-0.37,0.07,4008.3333333333335
-0.345,0.08,4011.1111111111113
-0.34,0.07,4013.8888888888887
-0.33,0.07,4016.6666666666665
-0.33,0.07,4019.4444444444443
-0.34,0.05,4022.222222222222
-0.34,0.055,4025.0
-0.33,0.07,4027.777777777778
-0.325,0.085,4030.5555555555557
-0.32,0.08,4033.3333333333335
-0.32,0.07,4036.1111111111113
-0.33,0.06,4038.8888888888887
-0.34,0.06,4041.6666666666665
-0.32,0.075,4044.4444444444443
-0.305,0.08,4047.222222222222
-0.295,0.075,4050.0
-0.29,0.065,4052.777777777778
-0.3,0.065,4055.5555555555557
-0.32,0.04,4058.3333333333335
-0.3,0.03,4061.1111111111113
-0.31,0.05,4063.8888888888887
-0.31,0.05,4066.6666666666665
-0.315,0.055,4069.4444444444443
-0.31,0.035,4072.222222222222
-0.3,0.045,4075.0
-0.235,0.005,4077.777777777778
-0.14,-0.03,4080.5555555555557
0.0,-0.115,4083.3333333333335
0.18,-0.205,4086.1111111111113
0.365,-0.295,4088.8888888888887
0.555,-0.355,4091.6666666666665
0.755,-0.36,4094.4444444444443
0.94,-0.325,4097.222222222223
1.075,-0.265,4100.0
1.16,-0.215,4102.777777777777
1.21,-0.225,4105.555555555556
1.165,-0.215,4108.333333333333
1.065,-0.18,4111.111111111111
0.94,-0.135,4113.888888888889
0.835,-0.11,4116.666666666667
0.755,-0.095,4119.444444444444
0.655,-0.08,4122.222222222223
0.525,-0.045,4125.0
0.36,0.025,4127.777777777777
0.22,0.055,4130.555555555556
0.135,0.07,4133.333333333333
0.07,0.055,4136.111111111111
-0.02,0.075,4138.888888888889
-0.13,0.1,4141.666666666667
-0.215,0.11,4144.444444444444
-0.275,0.145,4147.222222222223
-0.315,0.155,4150.0
-0.36,0.165,4152.777777777777
-0.41,0.165,4155.555555555556
-0.445,0.16,4158.333333333333
-0.455,0.165,4161.111111111111
-0.465,0.175,4163.888888888889
-0.465,0.165,4166.666666666667
-0.47,0.155,4169.444444444444
-0.485,0.165,4172.222222222223
-0.495,0.165,4175.0
-0.505,0.17,4177.777777777777
-0.5,0.17,4180.555555555556
-0.495,0.18,4183.333333333333
-0.5,0.17,4186.111111111111
-0.495,0.165,4188.888888888889
-0.5,0.175,4191.666666666667
-0.495,0.19,4194.444444444444
-0.48,0.19,4197.222222222223
-0.47,0.185,4200.0
-0.475,0.165,4202.777777777777
-0.47,0.16,4205.555555555556
-0.485,0.175,4208.333333333333
-0.475,0.19,4211.111111111111
-0.465,0.195,4213.888888888889
-0.465,0.18,4216.666666666667
-0.47,0.18,4219.444444444444
-0.495,0.165,4222.222222222223
-0.495,0.175,4225.0
-0.485,0.175,4227.777777777777
-0.475,0.185,4230.555555555556
-0.47,0.185,4233.333333333333
-0.48,0.175,4236.111111111111
-0.485,0.17,4238.888888888889
-0.505,0.16,4241.666666666667
-0.495,0.17,4244.444444444444
-0.475,0.17,4247.222222222223
-0.46,0.175,4250.0
-0.465,0.17,4252.777777777777
-0.48,0.16,4255.555555555556
-0.485,0.17,4258.333333333333
-0.495,0.185,4261.111111111111
-0.475,0.2,4263.888888888889
-0.485,0.185,4266.666666666667
-0.485,0.18,4269.444444444444
-0.475,0.175,4272.222222222223
-0.495,0.175,4275.0
-0.505,0.2,4277.777777777777
-0.49,0.21,4280.555555555556
-0.485,0.2,4283.333333333333
-0.47,0.205,4286.111111111111
-0.47,0.185,4288.888888888889
-0.47,0.19,4291.666666666667
-0.485,0.205,4294.444444444444
-0.465,0.2,4297.222222222223
-0.465,0.2,4300.0
-0.465,0.2,4302.777777777777
-0.46,0.205,4305.555555555556
-0.45,0.205,4308.333333333333
-0.455,0.21,4311.111111111111
-0.43,0.21,4313.888888888889
-0.41,0.21,4316.666666666667
-0.41,0.205,4319.444444444444
-0.41,0.195,4322.222222222223
-0.405,0.205,4325.0
-0.38,0.22,4327.777777777777
-0.35,0.215,4330.555555555556
-0.34,0.205,4333.333333333333
-0.33,0.19,4336.111111111111
-0.325,0.195,4338.888888888889
-0.3,0.19,4341.666666666667
-0.27,0.195,4344.444444444444
-0.245,0.215,4347.222222222223
-0.24,0.21,4350.0
-0.225,0.21,4352.777777777777
-0.23,0.19,4355.555555555556
-0.23,0.19,4358.333333333333
-0.21,0.185,4361.111111111111
-0.195,0.19,4363.888888888889
-0.175,0.2,4366.666666666667
-0.175,0.18,4369.444444444444
-0.175,0.18,4372.222222222223
-0.175,0.17,4375.0
-0.17,0.185,4377.777777777777
-0.155,0.195,4380.555555555556
-0.14,0.185,4383.333333333333
-0.155,0.165,4386.111111111111
-0.175,0.16,4388.888888888889
-0.19,0.155,4391.666666666667
-0.18,0.16,4394.444444444444
-0.195,0.165,4397.222222222223
-0.205,0.175,4400.0
-0.2,0.175,4402.777777777777
-0.205,0.155,4405.555555555556
-0.23,0.145,4408.333333333333
-0.23,0.15,4411.111111111111
-0.225,0.165,4413.888888888889
-0.21,0.16,4416.666666666667
-0.225,0.165,4419.444444444444
-0.24,0.155,4422.222222222223
-0.245,0.165,4425.0
-0.25,0.165,4427.777777777777
-0.245,0.17,4430.555555555556
-0.245,0.175,4433.333333333333
-0.245,0.175,4436.111111111111
-0.26,0.155,4438.888888888889
-0.28,0.16,4441.666666666667
-0.29,0.17,4444.444444444444
-0.28,0.18,4447.222222222223
-0.26,0.17,4450.0
-0.26,0.165,4452.777777777777
-0.285,0.16,4455.555555555556
-0.295,0.16,4458.333333333333
-0.285,0.175,4461.111111111111
-0.28,0.175,4463.888888888889
-0.265,0.17,4466.666666666667
-0.27,0.165,4469.444444444444
-0.275,0.15,4472.222222222223
-0.305,0.155,4475.0
-0.3,0.16,4477.777777777777
-0.295,0.15,4480.555555555556
-0.275,0.15,4483.333333333333
-0.28,0.15,4486.111111111111
-0.295,0.155,4488.888888888889
-0.3,0.145,4491.666666666667
-0.295,0.145,4494.444444444444
-0.29,0.155,4497.222222222223
-0.285,0.15,4500.0
-0.29,0.145,4502.777777777777
-0.3,0.145,4505.555555555556
-0.3,0.14,4508.333333333333
-0.29,0.145,4511.111111111111
-0.285,0.15,4513.888888888889
-0.295,0.14,4516.666666666667
-0.28,0.145,4519.444444444444
-0.285,0.13,4522.222222222223
-0.295,0.135,4525.0
-0.285,0.14,4527.777777777777
-0.29,0.15,4530.555555555556
-0.275,0.145,4533.333333333333
-0.285,0.14,4536.111111111111
-0.305,0.13,4538.888888888889
-0.305,0.14,4541.666666666667
-0.305,0.14,4544.444444444444
-0.285,0.135,4547.222222222223
-0.285,0.135,4550.0
-0.29,0.13,4552.777777777777
-0.295,0.125,4555.555555555556
-0.305,0.125,4558.333333333333
-0.305,0.135,4561.111111111111
-0.295,0.14,4563.888888888889
-0.285,0.145,4566.666666666667
-0.28,0.14,4569.444444444444
-0.28,0.135,4572.222222222223
-0.295,0.125,4575.0
-0.29,0.135,4577.777777777777
-0.285,0.14,4580.555555555556
-0.275,0.14,4583.333333333333
-0.285,0.14,4586.111111111111
-0.28,0.125,4588.888888888889
-0.295,0.125,4591.666666666667
-0.29,0.13,4594.444444444444
-0.29,0.135,4597.222222222223
-0.285,0.125,4600.0
-0.28,0.12,4602.777777777777
-0.29,0.12,4605.555555555556
-0.3,0.12,4608.333333333333
-0.275,0.125,4611.111111111111
-0.275,0.145,4613.888888888889
-0.275,0.13,4616.666666666667
-0.275,0.13,4619.444444444444
-0.29,0.14,4622.222222222223
-0.285,0.15,4625.0
-0.27,0.165,4627.777777777777
-0.265,0.19,4630.555555555556
-0.245,0.19,4633.333333333333
-0.23,0.205,4636.111111111111
-0.22,0.205,4638.888888888889
-0.22,0.195,4641.666666666667
-0.21,0.2,4644.444444444444
-0.18,0.2,4647.222222222223
-0.18,0.2,4650.0
-0.19,0.2,4652.777777777777
-0.19,0.17,4655.555555555556
-0.19,0.155,4658.333333333333
-0.15,0.165,4661.111111111111
-0.125,0.16,4663.888888888889
-0.105,0.16,4666.666666666667
-0.095,0.14,4669.444444444444
-0.09,0.145,4672.222222222223
-0.09,0.135,4675.0
-0.075,0.135,4677.777777777777
-0.06,0.135,4680.555555555556
-0.065,0.13,4683.333333333333
-0.08,0.13,4686.111111111111
-0.095,0.125,4688.888888888889
-0.11,0.115,4691.666666666667
-0.105,0.12,4694.444444444444
-0.1,0.13,4697.222222222223
-0.1,0.115,4700.0
-0.125,0.11,4702.777777777777
-0.17,0.095,4705.555555555556
-0.225,0.1,4708.333333333333
-0.27,0.105,4711.111111111111
-0.295,0.105,4713.888888888889
-0.305,0.1,4716.666666666667
-0.325,0.09,4719.444444444444
-0.345,0.08,4722.222222222223
-0.34,0.085,4725.0
-0.335,0.085,4727.777777777777
-0.325,0.09,4730.555555555556
-0.32,0.09,4733.333333333333
-0.33,0.08,4736.111111111111
-0.34,0.075,4738.888888888889
-0.35,0.07,4741.666666666667
-0.34,0.09,4744.444444444444
-0.32,0.105,4747.222222222223
-0.32,0.09,4750.0
-0.32,0.095,4752.777777777777
-0.32,0.075,4755.555555555556
-0.325,0.08,4758.333333333333
-0.325,0.085,4761.111111111111
-0.32,0.095,4763.888888888889
-0.3,0.09,4766.666666666667
-0.295,0.08,4769.444444444444
-0.305,0.065,4772.222222222223
-0.31,0.07,4775.0
-0.31,0.075,4777.777777777777
-0.305,0.085,4780.555555555556
-0.29,0.075,4783.333333333333
-0.28,0.06,4786.111111111111
-0.305,0.035,4788.888888888889
-0.31,0.035,4791.666666666667
-0.315,0.06,4794.444444444444
-0.325,0.065,4797.222222222223
-0.31,0.06,4800.0
-0.3,0.035,4802.777777777777
-0.255,-0.005,4805.555555555556
-0.18,-0.05,4808.333333333333
-0.045,-0.1,4811.111111111111
0.135,-0.175,4813.888888888889
0.32,-0.27,4816.666666666667
0.495,-0.345,4819.444444444444
0.675,-0.385,4822.222222222223
0.855,-0.38,4825.0
1.015,-0.315,4827.777777777777
1.135,-0.25,4830.555555555556
1.2,-0.23,4833.333333333333
1.205,-0.23,4836.111111111111
1.1,-0.21,4838.888888888889
0.95,-0.165,4841.666666666667
0.82,-0.13,4844.444444444444
0.745,-0.095,4847.222222222223
0.66,-0.09,4850.0
0.52,-0.055,4852.777777777777
0.355,-0.03,4855.555555555556
0.24,0.0,4858.333333333333
0.155,0.025,4861.111111111111
0.14,0.045,4863.888888888889
0.08,0.055,4866.666666666667
-0.02,0.075,4869.444444444444
-0.125,0.105,4872.222222222223
-0.22,0.11,4875.0
-0.29,0.135,4877.777777777777
-0.325,0.155,4880.555555555556
-0.355,0.165,4883.333333333333
-0.395,0.18,4886.111111111111
-0.435,0.165,4888.888888888889
-0.455,0.16,4891.666666666667
-0.46,0.18,4894.444444444444
-0.475,0.18,4897.222222222223
-0.48,0.17,4900.0
-0.495,0.17,4902.777777777777
-0.5,0.145,4905.555555555556
-0.51,0.16,4908.333333333333
-0.5,0.175,4911.111111111111
-0.485,0.18,4913.888888888889
-0.475,0.175,4916.666666666667
-0.48,0.17,4919.444444444444
-0.495,0.17,4922.222222222223
-0.49,0.165,4925.0
-0.485,0.17,4927.777777777777
-0.475,0.175,4930.555555555556
-0.445,0.18,4933.333333333333
-0.46,0.17,4936.111111111111
-0.485,0.165,4938.888888888889
-0.495,0.175,4941.666666666667
-0.49,0.18,4944.444444444444
-0.48,0.175,4947.222222222223
-0.465,0.17,4950.0
-0.465,0.18,4952.777777777777
-0.47,0.17,4955.555555555556
-0.48,0.17,4958.333333333333
-0.475,0.17,4961.111111111111
-0.46,0.195,4963.888888888889
-0.47,0.185,4966.666666666667
-0.46,0.18,4969.444444444444
-0.47,0.175,4972.222222222223
-0.47,0.17,4975.0
-0.48,0.185,4977.777777777777
-0.485,0.19,4980.555555555556
-0.475,0.18,4983.333333333333
-0.475,0.18,4986.111111111111
-0.49,0.17,4988.888888888889
-0.51,0.165,4991.666666666667
-0.51,0.18,4994.444444444444
-0.51,0.195,4997.222222222223
-0.495,0.19,5000.0
-0.5,0.175,5002.777777777777
-0.51,0.175,5005.555555555556
-0.505,0.175,5008.333333333333
-0.495,0.185,5011.111111111111
-0.505,0.205,5013.888888888889
-0.49,0.2,5016.666666666667
-0.49,0.19,5019.444444444444
-0.495,0.185,5022.222222222223
-0.495,0.175,5025.0
-0.485,0.18,5027.777777777777
-0.47,0.195,5030.555555555556
-0.465,0.19,5033.333333333333
-0.485,0.2,5036.111111111111
-0.48,0.195,5038.888888888889
-0.485,0.195,5041.666666666667
-0.47,0.19,5044.444444444444
-0.44,0.2,5047.222222222223
-0.43,0.2,5050.0
-0.44,0.19,5052.777777777777
-0.435,0.18,5055.555555555556
-0.425,0.185,5058.333333333333
-0.405,0.2,5061.111111111111
-0.4,0.21,5063.888888888889
-0.385,0.2,5066.666666666667
-0.365,0.19,5069.444444444444
-0.355,0.18,5072.222222222223
-0.35,0.185,5075.0
-0.33,0.19,5077.777777777777
-0.315,0.195,5080.555555555556
-0.29,0.2,5083.333333333333
-0.275,0.19,5086.111111111111
-0.27,0.19,5088.888888888889
-0.265,0.185,5091.666666666667
-0.25,0.18,5094.444444444444
-0.245,0.195,5097.222222222223
-0.215,0.185,5100.0
-0.2,0.18,5102.777777777777
-0.19,0.17,5105.555555555556
-0.195,0.165,5108.333333333333
-0.175,0.155,5111.111111111111
-0.16,0.175,5113.888888888889
-0.155,0.165,5116.666666666667
-0.15,0.165,5119.444444444444
-0.16,0.14,5122.222222222223
-0.165,0.14,5125.0
-0.16,0.14,5127.777777777777
-0.155,0.15,5130.555555555556
-0.155,0.155,5133.333333333333
-0.17,0.15,5136.111111111111
-0.185,0.15,5138.888888888889
-0.2,0.13,5141.666666666667
-0.21,0.135,5144.444444444444
-0.195,0.135,5147.222222222223
-0.2,0.14,5150.0
-0.21,0.13,5152.777777777777
-0.235,0.125,5155.555555555556
-0.24,0.135,5158.333333333333
-0.245,0.14,5161.111111111111
-0.235,0.14,5163.888888888889
-0.22,0.13,5166.666666666667
-0.23,0.115,5169.444444444444
-0.255,0.115,5172.222222222223
-0.27,0.13,5175.0
-0.275,0.125,5177.777777777777
-0.265,0.14,5180.555555555556
-0.26,0.14,5183.333333333333
-0.265,0.145,5186.111111111111
-0.265,0.13,5188.888888888889
-0.275,0.12,5191.666666666667
-0.285,0.135,5194.444444444444
-0.275,0.135,5197.222222222223
-0.265,0.12,5200.0
-0.26,0.125,5202.777777777777
-0.275,0.12,5205.555555555556
-0.29,0.11,5208.333333333333
-0.28,0.12,5211.111111111111
-0.295,0.145,5213.888888888889
-0.28,0.12,5216.666666666667
-0.285,0.125,5219.444444444444
-0.29,0.11,5222.222222222223
-0.31,0.115,5225.0
-0.295,0.11,5227.777777777777
-0.285,0.12,5230.555555555556
-0.285,0.12,5233.333333333333
-0.295,0.115,5236.111111111111
-0.31,0.095,5238.888888888889
-0.325,0.095,5241.666666666667
-0.31,0.1,5244.444444444444
-0.295,0.11,5247.222222222223
-0.285,0.11,5250.0
-0.295,0.095,5252.777777777777
-0.305,0.085,5255.555555555556
-0.305,0.08,5258.333333333333
-0.31,0.105,5261.111111111111
-0.295,0.1,5263.888888888889
-0.29,0.09,5266.666666666667
-0.29,0.095,5269.444444444444
-0.3,0.075,5272.222222222223
-0.305,0.065,5275.0
-0.295,0.085,5277.777777777777
-0.3,0.09,5280.555555555556
-0.3,0.09,5283.333333333333
-0.295,0.095,5286.111111111111
-0.285,0.075,5288.888888888889
-0.295,0.07,5291.666666666667
-0.29,0.085,5294.444444444444
-0.28,0.09,5297.222222222223
-0.275,0.08,5300.0
-0.29,0.085,5302.777777777777
-0.305,0.07,5305.555555555556
-0.305,0.075,5308.333333333333
-0.295,0.08,5311.111111111111
-0.285,0.085,5313.888888888889
-0.275,0.075,5316.666666666667
-0.29,0.08,5319.444444444444
-0.295,0.065,5322.222222222223
-0.31,0.055,5325.0
-0.3,0.08,5327.777777777777
-0.295,0.08,5330.555555555556
-0.275,0.075,5333.333333333333
-0.275,0.07,5336.111111111111
-0.29,0.06,5338.888888888889
-0.3,0.07,5341.666666666667
-0.305,0.07,5344.444444444444
-0.29,0.075,5347.222222222223
-0.29,0.08,5350.0
-0.285,0.075,5352.777777777777
-0.28,0.065,5355.555555555556
-0.285,0.055,5358.333333333333
-0.29,0.075,5361.111111111111
-0.285,0.085,5363.888888888889
-0.28,0.08,5366.666666666667
-0.285,0.075,5369.444444444444
-0.275,0.07,5372.222222222223
-0.285,0.07,5375.0
-0.275,0.09,5377.777777777777
-0.265,0.105,5380.555555555556
-0.265,0.12,5383.333333333333
-0.265,0.15,5386.111111111111
-0.265,0.15,5388.888888888889
-0.255,0.16,5391.666666666667
-0.22,0.155,5394.444444444444
-0.185,0.165,5397.222222222223
-0.175,0.17,5400.0
-0.18,0.175,5402.777777777777
-0.2,0.16,5405.555555555556
-0.215,0.145,5408.333333333333
-0.19,0.145,5411.111111111111
-0.16,0.13,5413.888888888889
-0.125,0.115,5416.666666666667
-0.115,0.105,5419.444444444444
-0.11,0.1,5422.222222222223
-0.115,0.105,5425.0
-0.115,0.11,5427.777777777777
-0.1,0.115,5430.555555555556
-0.075,0.09,5433.333333333333
-0.075,0.085,5436.111111111111
-0.085,0.065,5438.888888888889
-0.1,0.07,5441.666666666667
-0.095,0.09,5444.444444444444
-0.085,0.095,5447.222222222223
-0.1,0.1,5450.0
-0.12,0.095,5452.777777777777
-0.125,0.075,5455.555555555556
-0.145,0.06,5458.333333333333
-0.165,0.065,5461.111111111111
-0.195,0.06,5463.888888888889
-0.245,0.06,5466.666666666667
-0.3,0.05,5469.444444444444
-0.325,0.035,5472.222222222223
-0.35,0.045,5475.0
-0.35,0.05,5477.777777777777
-0.34,0.065,5480.555555555556
-0.34,0.065,5483.333333333333
-0.35,0.05,5486.111111111111
-0.36,0.045,5488.888888888889
-0.37,0.04,5491.666666666667
-0.355,0.045,5494.444444444444
-0.34,0.06,5497.222222222223
-0.335,0.045,5500.0
-0.345,0.05,5502.777777777777
-0.335,0.035,5505.555555555556
-0.35,0.035,5508.333333333333
-0.35,0.055,5511.111111111111
-0.34,0.06,5513.888888888889
-0.34,0.04,5516.666666666667
-0.335,0.04,5519.444444444444
-0.335,0.04,5522.222222222223
-0.35,0.05,5525.0
-0.34,0.055,5527.777777777777
-0.325,0.06,5530.555555555556
-0.31,0.055,5533.333333333333
-0.295,0.03,5536.111111111111
-0.325,0.025,5538.888888888889
-0.325,0.03,5541.666666666667
-0.31,0.035,5544.444444444444
-0.32,0.035,5547.222222222223
-0.315,0.03,5550.0
-0.315,0.02,5552.777777777777
-0.33,0.015,5555.555555555556
-0.335,0.01,5558.333333333333
-0.32,-0.015,5561.111111111111
-0.275,-0.04,5563.888888888889
-0.215,-0.1,5566.666666666667
-0.1,-0.17,5569.444444444444
0.01,-0.26,5572.222222222223
0.165,-0.345,5575.0
0.34,-0.415,5577.777777777777
0.525,-0.435,5580.555555555556
0.705,-0.44,5583.333333333333
0.86,-0.42,5586.111111111111
0.98,-0.385,5588.888888888889
1.08,-0.335,5591.666666666667
1.18,-0.29,5594.444444444444
1.205,-0.275,5597.222222222223
1.155,-0.255,5600.0
1.025,-0.22,5602.777777777777
0.88,-0.18,5605.555555555556
0.77,-0.15,5608.333333333333
0.685,-0.135,5611.111111111111
0.595,-0.08,5613.888888888889
0.48,-0.05,5616.666666666667
0.33,-0.015,5619.444444444444
0.22,-0.01,5622.222222222223
0.165,0.015,5625.0
0.09,0.04,5627.777777777777
0.015,0.075,5630.555555555556
-0.08,0.09,5633.333333333333
-0.175,0.09,5636.111111111111
-0.25,0.09,5638.888888888889
-0.31,0.125,5641.666666666667
-0.36,0.15,5644.444444444444
-0.415,0.165,5647.222222222223
-0.465,0.17,5650.0
-0.49,0.16,5652.777777777777
-0.505,0.145,5655.555555555556
-0.52,0.145,5658.333333333333
-0.525,0.155,5661.111111111111
-0.535,0.15,5663.888888888889
-0.53,0.16,5666.666666666667
-0.53,0.155,5669.444444444444
-0.525,0.145,5672.222222222223
-0.55,0.155,5675.0
-0.55,0.16,5677.777777777777
-0.555,0.175,5680.555555555556
-0.53,0.17,5683.333333333333
-0.525,0.165,5686.111111111111
-0.53,0.16,5688.888888888889
-0.53,0.165,5691.666666666667
-0.525,0.175,5694.444444444444
-0.525,0.185,5697.222222222223
-0.52,0.18,5700.0
-0.525,0.175,5702.777777777777
-0.53,0.165,5705.555555555556
-0.52,0.165,5708.333333333333
-0.505,0.17,5711.111111111111
-0.51,0.185,5713.888888888889
-0.505,0.2,5716.666666666667
-0.505,0.195,5719.444444444444
-0.52,0.18,5722.222222222223
-0.525,0.17,5725.0
-0.52,0.18,5727.777777777777
-0.505,0.195,5730.555555555556
-0.505,0.19,5733.333333333333
-0.505,0.19,5736.111111111111
-0.52,0.185,5738.888888888889
-0.525,0.185,5741.666666666667
-0.535,0.195,5744.444444444444
-0.53,0.205,5747.222222222223
-0.525,0.195,5750.0
-0.525,0.195,5752.777777777777
-0.525,0.19,5755.555555555556
-0.53,0.19,5758.333333333333
-0.525,0.195,5761.111111111111
-0.525,0.21,5763.888888888889
-0.52,0.205,5766.666666666667
-0.525,0.21,5769.444444444444
-0.535,0.2,5772.222222222223
-0.53,0.205,5775.0
-0.53,0.21,5777.777777777777
-0.52,0.22,5780.555555555556
-0.515,0.215,5783.333333333333
-0.53,0.225,5786.111111111111
-0.525,0.205,5788.888888888889
-0.53,0.21,5791.666666666667
-0.53,0.22,5794.444444444444
-0.51,0.235,5797.222222222223
-0.495,0.235,5800.0
-0.495,0.225,5802.777777777777
-0.495,0.215,5805.555555555556
-0.505,0.22,5808.333333333333
-0.49,0.225,5811.111111111111
-0.465,0.23,5813.888888888889
-0.44,0.235,5816.666666666667
-0.435,0.23,5819.444444444444
-0.435,0.22,5822.222222222223
-0.445,0.23,5825.0
-0.43,0.23,5827.777777777777
-0.405,0.24,5830.555555555556
-0.375,0.24,5833.333333333333
-0.365,0.235,5836.111111111111
-0.345,0.23,5838.888888888889
-0.335,0.225,5841.666666666667
-0.335,0.245,5844.444444444444
-0.315,0.255,5847.222222222223
-0.29,0.25,5850.0
-0.3,0.23,5852.777777777777
-0.275,0.225,5855.555555555556
-0.275,0.235,5858.333333333333
-0.25,0.23,5861.111111111111
-0.23,0.25,5863.888888888889
-0.22,0.24,5866.666666666667
-0.22,0.22,5869.444444444444
-0.21,0.22,5872.222222222223
-0.215,0.21,5875.0
-0.19,0.215,5877.777777777777
-0.18,0.21,5880.555555555556
-0.165,0.195,5883.333333333333
-0.17,0.2,5886.111111111111
-0.185,0.19,5888.888888888889
-0.205,0.185,5891.666666666667
-0.195,0.185,5894.444444444444
-0.19,0.19,5897.222222222223
-0.185,0.19,5900.0
-0.185,0.18,5902.777777777777
-0.2,0.18,5905.555555555556
-0.21,0.17,5908.333333333333
-0.225,0.175,5911.111111111111
-0.22,0.185,5913.888888888889
-0.22,0.195,5916.666666666667
-0.235,0.18,5919.444444444444
-0.24,0.17,5922.222222222223
-0.26,0.17,5925.0
-0.27,0.185,5927.777777777777
-0.275,0.185,5930.555555555556
-0.27,0.18,5933.333333333333
-0.275,0.18,5936.111111111111
-0.28,0.165,5938.888888888889
-0.29,0.175,5941.666666666667
-0.285,0.185,5944.444444444444
-0.275,0.195,5947.222222222223
-0.275,0.175,5950.0
-0.29,0.17,5952.777777777777
-0.295,0.16,5955.555555555556
-0.31,0.165,5958.333333333333
-0.31,0.175,5961.111111111111
-0.295,0.185,5963.888888888889
-0.275,0.185,5966.666666666667
-0.295,0.17,5969.444444444444
-0.3,0.175,5972.222222222223
-0.315,0.18,5975.0
-0.32,0.18,5977.777777777777
-0.31,0.18,5980.555555555556
-0.295,0.175,5983.333333333333
-0.3,0.165,5986.111111111111
-0.315,0.175,5988.888888888889
-0.335,0.165,5991.666666666667
-0.32,0.165,5994.444444444444
-0.315,0.18,5997.222222222223
-0.305,0.17,6000.0
-0.315,0.17,6002.777777777777
-0.32,0.15,6005.555555555556
-0.325,0.145,6008.333333333333
-0.32,0.16,6011.111111111111
-0.315,0.165,6013.888888888889
-0.315,0.16,6016.666666666667
-0.31,0.16,6019.444444444444
-0.33,0.145,6022.222222222223
-0.335,0.15,6025.0
-0.315,0.15,6027.777777777777
-0.32,0.15,6030.555555555556
-0.31,0.135,6033.333333333333
-0.31,0.15,6036.111111111111
-0.325,0.135,6038.888888888889
-0.335,0.12,6041.666666666667
-0.325,0.145,6044.444444444444
-0.31,0.155,6047.222222222223
-0.305,0.14,6050.0
-0.3,0.14,6052.777777777777
-0.315,0.12,6055.555555555556
-0.32,0.115,6058.333333333333
-0.31,0.13,6061.111111111111
-0.305,0.145,6063.888888888889
-0.29,0.14,6066.666666666667
-0.3,0.14,6069.444444444444
-0.315,0.14,6072.222222222223
-0.31,0.12,6075.0
-0.315,0.12,6077.777777777777
-0.305,0.145,6080.555555555556
-0.305,0.135,6083.333333333333
-0.31,0.13,6086.111111111111
-0.315,0.125,6088.888888888889
-0.315,0.115,6091.666666666667
-0.31,0.12,6094.444444444444
-0.3,0.14,6097.222222222223
-0.29,0.135,6100.0
-0.31,0.135,6102.777777777777
-0.315,0.12,6105.555555555556
-0.33,0.125,6108.333333333333
-0.315,0.14,6111.111111111111
-0.295,0.15,6113.888888888889
-0.295,0.15,6116.666666666667
-0.3,0.15,6119.444444444444
-0.3,0.135,6122.222222222223
-0.315,0.135,6125.0
-0.3,0.135,6127.777777777777
-0.29,0.15,6130.555555555556
-0.285,0.15,6133.333333333333
-0.285,0.15,6136.111111111111
-0.295,0.14,6138.888888888889
-0.305,0.14,6141.666666666667
-0.31,0.155,6144.444444444444
-0.295,0.18,6147.222222222223
-0.28,0.195,6150.0
-0.27,0.205,6152.777777777777
-0.255,0.21,6155.555555555556
-0.25,0.22,6158.333333333333
-0.22,0.23,6161.111111111111
-0.205,0.235,6163.888888888889
-0.19,0.235,6166.666666666667
-0.195,0.225,6169.444444444444
-0.21,0.22,6172.222222222223
-0.22,0.195,6175.0
-0.195,0.18,6177.777777777777
-0.175,0.185,6180.555555555556
-0.16,0.16,6183.333333333333
-0.155,0.165,6186.111111111111
-0.15,0.16,6188.888888888889
-0.145,0.17,6191.666666666667
-0.13,0.165,6194.444444444444
-0.11,0.17,6197.222222222223
-0.095,0.155,6200.0
-0.11,0.145,6202.777777777777
-0.105,0.135,6205.555555555556
-0.125,0.135,6208.333333333333
-0.135,0.155,6211.111111111111
-0.13,0.16,6213.888888888889
-0.125,0.155,6216.666666666667
-0.14,0.13,6219.444444444444
-0.155,0.11,6222.222222222223
-0.2,0.105,6225.0
-0.24,0.12,6227.777777777777
-0.275,0.145,6230.555555555556
-0.3,0.125,6233.333333333333
-0.32,0.12,6236.111111111111
-0.345,0.11,6238.888888888889
-0.38,0.105,6241.666666666667
-0.385,0.12,6244.444444444444
-0.37,0.12,6247.222222222223
-0.355,0.11,6250.0
-0.365,0.085,6252.777777777777
-0.375,0.09,6255.555555555556
-0.38,0.1,6258.333333333333
-0.365,0.125,6261.111111111111
-0.355,0.135,6263.888888888889
-0.355,0.125,6266.666666666667
-0.36,0.115,6269.444444444444
-0.36,0.105,6272.222222222223
-0.37,0.11,6275.0
-0.355,0.115,6277.777777777777
-0.345,0.12,6280.555555555556
-0.345,0.11,6283.333333333333
-0.335,0.095,6286.111111111111
-0.34,0.105,6288.888888888889
-0.34,0.105,6291.666666666667
-0.34,0.105,6294.444444444444
-0.325,0.105,6297.222222222223
-0.315,0.095,6300.0
-0.32,0.085,6302.777777777777
-0.335,0.07,6305.555555555556
-0.345,0.055,6308.333333333333
-0.325,0.08,6311.111111111111
-0.345,0.075,6313.888888888889
-0.325,0.06,6316.666666666667
-0.315,0.025,6319.444444444444
-0.285,-0.02,6322.222222222223
-0.185,-0.09,6325.0
-0.025,-0.17,6327.777777777777
0.165,-0.255,6330.555555555556
0.375,-0.36,6333.333333333333
0.595,-0.405,6336.111111111111
0.76,-0.415,6338.888888888889
0.945,-0.375,6341.666666666667
1.09,-0.31,6344.444444444444
1.2,-0.255,6347.222222222223
1.28,-0.22,6350.0
1.255,-0.22,6352.777777777777
1.145,-0.21,6355.555555555556
0.995,-0.165,6358.333333333333
0.85,-0.11,6361.111111111111
0.73,-0.075,6363.888888888889
0.625,-0.035,6366.666666666667
0.47,0.015,6369.444444444444
0.305,0.05,6372.222222222223
0.175,0.065,6375.0
0.1,0.095,6377.777777777777
0.035,0.12,6380.555555555556
-0.06,0.12,6383.333333333333
-0.145,0.125,6386.111111111111
-0.235,0.135,6388.888888888889
-0.29,0.15,6391.666666666667
-0.335,0.17,6394.444444444444
-0.385,0.19,6397.222222222223
-0.435,0.2,6400.0
-0.46,0.19,6402.777777777777
-0.49,0.19,6405.555555555556
-0.495,0.185,6408.333333333333
-0.51,0.195,6411.111111111111
-0.525,0.205,6413.888888888889
-0.535,0.205,6416.666666666667
-0.54,0.205,6419.444444444444
-0.535,0.185,6422.222222222223
-0.555,0.195,6425.0
-0.56,0.2,6427.777777777777
-0.53,0.21,6430.555555555556
-0.52,0.21,6433.333333333333
-0.52,0.195,6436.111111111111
-0.525,0.195,6438.888888888889
-0.54,0.195,6441.666666666667
-0.53,0.21,6444.444444444444
-0.525,0.21,6447.222222222223
-0.52,0.21,6450.0
-0.52,0.205,6452.777777777777
-0.515,0.195,6455.555555555556
-0.525,0.19,6458.333333333333
-0.515,0.2,6461.111111111111
-0.5,0.22,6463.888888888889
-0.5,0.225,6466.666666666667
-0.505,0.22,6469.444444444444
-0.51,0.205,6472.222222222223
-0.53,0.21,6475.0
-0.53,0.21,6477.777777777777
-0.51,0.22,6480.555555555556
-0.51,0.23,6483.333333333333
-0.505,0.215,6486.111111111111
-0.505,0.215,6488.888888888889
-0.51,0.22,6491.666666666667
-0.53,0.225,6494.444444444444
-0.51,0.23,6497.222222222223
-0.5,0.23,6500.0
-0.505,0.22,6502.777777777777
-0.515,0.22,6505.555555555556
-0.525,0.2,6508.333333333333
-0.52,0.235,6511.111111111111
-0.5,0.24,6513.888888888889
-0.495,0.235,6516.666666666667
-0.495,0.235,6519.444444444444
-0.515,0.23,6522.222222222223
-0.52,0.22,6525.0
-0.525,0.24,6527.777777777777
-0.51,0.265,6530.555555555556
-0.51,0.255,6533.333333333333
-0.51,0.245,6536.111111111111
-0.5,0.22,6538.888888888889
-0.5,0.23,6541.666666666667
-0.49,0.245,6544.444444444444
-0.48,0.25,6547.222222222223
-0.485,0.245,6550.0
-0.47,0.23,6552.777777777777
-0.46,0.245,6555.555555555556
-0.465,0.235,6558.333333333333
-0.45,0.25,6561.111111111111
-0.435,0.26,6563.888888888889
-0.42,0.26,6566.666666666667
-0.415,0.245,6569.444444444444
-0.41,0.23,6572.222222222223
-0.41,0.23,6575.0
-0.4,0.25,6577.777777777777
-0.36,0.26,6580.555555555556
-0.34,0.25,6583.333333333333
-0.33,0.245,6586.111111111111
-0.31,0.24,6588.888888888889
-0.31,0.235,6591.666666666667
-0.3,0.255,6594.444444444444
-0.275,0.255,6597.222222222223
-0.255,0.25,6600.0
-0.235,0.26,6602.777777777777
-0.23,0.245,6605.555555555556
-0.235,0.24,6608.333333333333
-0.21,0.24,6611.111111111111
-0.19,0.24,6613.888888888889
-0.175,0.22,6616.666666666667
-0.16,0.215,6619.444444444444
-0.16,0.21,6622.222222222223
-0.16,0.21,6625.0
-0.165,0.215,6627.777777777777
-0.17,0.23,6630.555555555556
-0.18,0.225,6633.333333333333
-0.175,0.21,6636.111111111111
-0.185,0.195,6638.888888888889
-0.205,0.18,6641.666666666667
-0.205,0.18,6644.444444444444
-0.2,0.19,6647.222222222223
-0.21,0.185,6650.0
-0.22,0.19,6652.777777777777
-0.225,0.165,6655.555555555556
-0.25,0.175,6658.333333333333
-0.25,0.19,6661.111111111111
-0.25,0.19,6663.888888888889
-0.26,0.19,6666.666666666667
-0.26,0.18,6669.444444444444
-0.27,0.18,6672.222222222223
-0.295,0.175,6675.0
-0.285,0.185,6677.777777777777
-0.26,0.195,6680.555555555556
-0.26,0.19,6683.333333333333
-0.27,0.18,6686.111111111111
-0.275,0.18,6688.888888888889
-0.305,0.165,6691.666666666667
-0.3,0.18,6694.444444444444
-0.295,0.19,6697.222222222223
-0.295,0.205,6700.0
-0.29,0.185,6702.777777777777
-0.285,0.18,6705.555555555556
-0.3,0.18,6708.333333333333
-0.305,0.18,6711.111111111111
-0.3,0.185,6713.888888888889
-0.295,0.19,6716.666666666667
-0.3,0.175,6719.444444444444
-0.31,0.185,6722.222222222223
-0.315,0.175,6725.0
-0.315,0.18,6727.777777777777
-0.305,0.185,6730.555555555556
-0.3,0.185,6733.333333333333
-0.305,0.185,6736.111111111111
-0.3,0.17,6738.888888888889
-0.32,0.175,6741.666666666667
-0.32,0.18,6744.444444444444
-0.315,0.18,6747.222222222223
-0.32,0.19,6750.0
-0.325,0.175,6752.777777777777
-0.32,0.155,6755.555555555556
-0.33,0.15,6758.333333333333
-0.33,0.16,6761.111111111111
-0.32,0.175,6763.888888888889
-0.305,0.17,6766.666666666667
-0.31,0.165,6769.444444444444
-0.315,0.16,6772.222222222223
-0.32,0.145,6775.0
-0.315,0.155,6777.777777777777
-0.305,0.165,6780.555555555556
-0.3,0.16,6783.333333333333
-0.305,0.15,6786.111111111111
-0.305,0.135,6788.888888888889
-0.33,0.13,6791.666666666667
-0.32,0.145,6794.444444444444
-0.305,0.165,6797.222222222223
-0.3,0.155,6800.0
-0.305,0.15,6802.777777777777
-0.295,0.145,6805.555555555556
-0.3,0.13,6808.333333333333
-0.325,0.145,6811.111111111111
-0.305,0.145,6813.888888888889
-0.29,0.145,6816.666666666667
-0.295,0.145,6819.444444444444
-0.3,0.135,6822.222222222223
-0.315,0.135,6825.0
-0.32,0.145,6827.777777777777
-0.31,0.15,6830.555555555556
-0.305,0.15,6833.333333333333
-0.3,0.145,6836.111111111111
-0.31,0.125,6838.888888888889
-0.32,0.13,6841.666666666667
-0.31,0.135,6844.444444444444
-0.305,0.155,6847.222222222223
-0.295,0.155,6850.0
-0.295,0.13,6852.777777777777
-0.31,0.13,6855.555555555556
-0.315,0.13,6858.333333333333
-0.32,0.135,6861.111111111111
-0.31,0.15,6863.888888888889
-0.31,0.15,6866.666666666667
-0.305,0.16,6869.444444444444
-0.31,0.16,6872.222222222223
-0.305,0.155,6875.0
-0.305,0.185,6877.777777777777
-0.29,0.215,6880.555555555556
-0.26,0.22,6883.333333333333
-0.25,0.215,6886.111111111111
-0.24,0.21,6888.888888888889
-0.25,0.21,6891.666666666667
-0.235,0.195,6894.444444444444
-0.22,0.205,6897.222222222223
-0.21,0.2,6900.0
-0.225,0.2,6902.777777777777
-0.22,0.185,6905.555555555556
-0.225,0.17,6908.333333333333
-0.18,0.175,6911.111111111111
-0.16,0.17,6913.888888888889
-0.145,0.175,6916.666666666667
-0.125,0.175,6919.444444444444
-0.135,0.155,6922.222222222223
-0.125,0.15,6925.0
-0.11,0.15,6927.777777777777
-0.105,0.13,6930.555555555556
-0.11,0.135,6933.333333333333
-0.115,0.135,6936.111111111111
-0.135,0.14,6938.888888888889
-0.155,0.135,6941.666666666667
-0.155,0.135,6944.444444444444
-0.17,0.145,6947.222222222223
-0.175,0.135,6950.0
-0.195,0.12,6952.777777777777
-0.235,0.11,6955.555555555556
-0.28,0.09,6958.333333333333
-0.325,0.11,6961.111111111111
-0.33,0.115,6963.888888888889
-0.345,0.11,6966.666666666667
-0.36,0.115,6969.444444444444
-0.375,0.085,6972.222222222223
-0.38,0.08,6975.0
-0.375,0.085,6977.777777777777
-0.38,0.115,6980.555555555556
-0.38,0.11,6983.333333333333
-0.38,0.1,6986.111111111111
-0.39,0.09,6988.888888888889
-0.375,0.09,6991.666666666667
-0.355,0.105,6994.444444444444
-0.355,0.12,6997.222222222223
-0.35,0.1,7000.0
-0.345,0.1,7002.777777777777
-0.345,0.1,7005.555555555556
-0.35,0.105,7008.333333333333
-0.345,0.12,7011.111111111111
-0.34,0.12,7013.888888888889
-0.33,0.1,7016.666666666667
-0.325,0.1,7019.444444444444
-0.335,0.1,7022.222222222223
-0.34,0.09,7025.0
-0.34,0.105,7027.777777777777
-0.32,0.11,7030.555555555556
-0.31,0.09,7033.333333333333
-0.325,0.06,7036.111111111111
-0.32,0.055,7038.888888888889
-0.335,0.055,7041.666666666667
-0.34,0.085,7044.444444444444
-0.32,0.085,7047.222222222223
-0.315,0.08,7050.0
-0.275,0.055,7052.777777777777
-0.195,0.015,7055.555555555556
-0.05,-0.035,7058.333333333333
0.115,-0.085,7061.111111111111
0.315,-0.15,7063.888888888889
0.48,-0.225,7066.666666666667
0.67,-0.3,7069.444444444444
0.83,-0.345,7072.222222222223
0.955,-0.335,7075.0
1.08,-0.255,7077.777777777777
1.165,-0.19,7080.555555555556
1.22,-0.175,7083.333333333333
1.2,-0.185,7086.111111111111
1.09,-0.18,7088.888888888889
0.93,-0.13,7091.666666666667
0.81,-0.095,7094.444444444444
0.72,-0.07,7097.222222222223
0.615,-0.04,7100.0
0.44,-0.005,7102.777777777777
0.26,0.02,7105.555555555556
0.125,0.05,7108.333333333333
0.035,0.065,7111.111111111111
-0.03,0.085,7113.888888888889
-0.095,0.1,7116.666666666667
-0.195,0.1,7119.444444444444
-0.28,0.11,7122.222222222223
-0.33,0.12,7125.0
-0.365,0.145,7127.777777777777
-0.385,0.175,7130.555555555556
-0.42,0.175,7133.333333333333
-0.465,0.175,7136.111111111111
-0.495,0.155,7138.888888888889
-0.515,0.16,7141.666666666667
-0.525,0.175,7144.444444444444
-0.53,0.175,7147.222222222223
-0.525,0.165,7150.0
-0.53,0.16,7152.777777777777
-0.525,0.16,7155.555555555556
-0.54,0.155,7158.333333333333
-0.535,0.17,7161.111111111111
-0.525,0.18,7163.888888888889
-0.52,0.175,7166.666666666667
-0.52,0.17,7169.444444444444
-0.535,0.16,7172.222222222223
-0.515,0.16,7175.0
-0.515,0.17,7177.777777777777
-0.5,0.175,7180.555555555556
-0.52,0.18,7183.333333333333
-0.52,0.165,7186.111111111111
-0.51,0.155,7188.888888888889
-0.525,0.155,7191.666666666667
-0.52,0.175,7194.444444444444
-0.495,0.19,7197.222222222223
-0.49,0.175,7200.0
-0.52,0.16,7202.777777777777
-0.51,0.16,7205.555555555556
-0.515,0.155,7208.333333333333
-0.51,0.165,7211.111111111111
-0.505,0.18,7213.888888888889
-0.505,0.165,7216.666666666667
-0.51,0.17,7219.444444444444
-0.5,0.145,7222.222222222223
-0.515,0.155,7225.0
-0.52,0.165,7227.777777777777
-0.515,0.165,7230.555555555556
-0.515,0.16,7233.333333333333
-0.525,0.155,7236.111111111111
-0.51,0.155,7238.888888888889
-0.52,0.165,7241.666666666667
-0.505,0.155,7244.444444444444
-0.5,0.18,7247.222222222223
-0.5,0.18,7250.0
-0.51,0.175,7252.777777777777
-0.51,0.165,7255.555555555556
-0.51,0.175,7258.333333333333
-0.51,0.175,7261.111111111111
-0.5,0.19,7263.888888888889
-0.5,0.18,7266.666666666667
-0.5,0.165,7269.444444444444
-0.5,0.165,7272.222222222223
-0.495,0.17,7275.0
-0.485,0.185,7277.777777777777
-0.455,0.2,7280.555555555556
-0.46,0.195,7283.333333333333
-0.44,0.185,7286.111111111111
-0.46,0.18,7288.888888888889
-0.455,0.17,7291.666666666667
-0.435,0.19,7294.444444444444
-0.405,0.19,7297.222222222223
-0.4,0.185,7300.0
-0.395,0.185,7302.777777777777
-0.4,0.18,7305.555555555556
-0.4,0.18,7308.333333333333
-0.37,0.185,7311.111111111111
-0.345,0.195,7313.888888888889
-0.325,0.18,7316.666666666667
-0.315,0.175,7319.444444444444
-0.305,0.165,7322.222222222223
-0.29,0.165,7325.0
-0.27,0.18,7327.777777777777
-0.245,0.185,7330.555555555556
-0.225,0.165,7333.333333333333
-0.225,0.165,7336.111111111111
-0.205,0.145,7338.888888888889
-0.22,0.125,7341.666666666667
-0.195,0.145,7344.444444444444
-0.185,0.17,7347.222222222223
-0.175,0.16,7350.0
-0.18,0.155,7352.777777777777
-0.19,0.13,7355.555555555556
-0.195,0.13,7358.333333333333
-0.185,0.13,7361.111111111111
-0.19,0.145,7363.888888888889
-0.2,0.145,7366.666666666667
-0.195,0.14,7369.444444444444
-0.22,0.125,7372.222222222223
-0.24,0.12,7375.0
-0.24,0.14,7377.777777777777
-0.24,0.14,7380.555555555556
-0.23,0.135,7383.333333333333
-0.235,0.135,7386.111111111111
-0.24,0.135,7388.888888888889
-0.265,0.13,7391.666666666667
-0.265,0.135,7394.444444444444
-0.255,0.15,7397.222222222223
-0.255,0.14,7400.0
-0.26,0.13,7402.777777777777
-0.265,0.125,7405.555555555556
-0.27,0.125,7408.333333333333
-0.28,0.13,7411.111111111111
-0.265,0.14,7413.888888888889
-0.25,0.14,7416.666666666667
-0.27,0.14,7419.444444444444
-0.28,0.115,7422.222222222223
-0.29,0.12,7425.0
-0.28,0.125,7427.777777777777
-0.275,0.145,7430.555555555556
-0.28,0.14,7433.333333333333
-0.275,0.12,7436.111111111111
-0.28,0.125,7438.888888888889
-0.29,0.12,7441.666666666667
-0.295,0.125,7444.444444444444
-0.29,0.135,7447.222222222223
-0.3,0.12,7450.0
-0.28,0.12,7452.777777777777
-0.3,0.105,7455.555555555556
-0.295,0.115,7458.333333333333
-0.295,0.12,7461.111111111111
-0.28,0.14,7463.888888888889
-0.28,0.115,7466.666666666667
-0.28,0.11,7469.444444444444
-0.29,0.09,7472.222222222223
-0.3,0.09,7475.0
-0.275,0.115,7477.777777777777
-0.27,0.11,7480.555555555556
-0.275,0.105,7483.333333333333
-0.285,0.105,7486.111111111111
-0.285,0.09,7488.888888888889
-0.29,0.08,7491.666666666667
-0.275,0.1,7494.444444444444
-0.28,0.09,7497.222222222223
-0.265,0.1,7500.0
-0.27,0.085,7502.777777777777
-0.29,0.075,7505.555555555556
-0.3,0.095,7508.333333333333
-0.275,0.09,7511.111111111111
-0.285,0.095,7513.888888888889
-0.27,0.085,7516.666666666667
-0.275,0.095,7519.444444444444
-0.28,0.08,7522.222222222223
-0.285,0.075,7525.0
-0.28,0.09,7527.777777777777
-0.265,0.11,7530.555555555556
-0.27,0.1,7533.333333333333
-0.26,0.085,7536.111111111111
-0.275,0.075,7538.888888888889
-0.28,0.075,7541.666666666667
-0.275,0.095,7544.444444444444
-0.255,0.095,7547.222222222223
-0.245,0.08,7550.0
-0.245,0.08,7552.777777777777
-0.265,0.08,7555.555555555556
-0.285,0.075,7558.333333333333
-0.275,0.09,7561.111111111111
-0.275,0.09,7563.888888888889
-0.255,0.085,7566.666666666667
-0.255,0.09,7569.444444444444
-0.255,0.075,7572.222222222223
-0.27,0.08,7575.0
-0.265,0.09,7577.777777777777
-0.255,0.085,7580.555555555556
-0.235,0.09,7583.333333333333
-0.23,0.105,7586.111111111111
-0.235,0.105,7588.888888888889
-0.25,0.12,7591.666666666667
-0.235,0.145,7594.444444444444
-0.205,0.165,7597.222222222223
-0.175,0.165,7600.0
-0.155,0.16,7602.777777777777
-0.16,0.15,7605.555555555556
-0.16,0.145,7608.333333333333
-0.16,0.155,7611.111111111111
-0.155,0.155,7613.888888888889
-0.15,0.14,7616.666666666667
-0.14,0.12,7619.444444444444
-0.115,0.1,7622.222222222223
-0.105,0.09,7625.0
-0.08,0.105,7627.777777777777
-0.07,0.11,7630.555555555556
-0.055,0.105,7633.333333333333
-0.045,0.085,7636.111111111111
-0.045,0.07,7638.888888888889
-0.055,0.065,7641.666666666667
-0.05,0.075,7644.444444444444
-0.065,0.09,7647.222222222223
-0.07,0.095,7650.0
-0.07,0.09,7652.777777777777
-0.08,0.075,7655.555555555556
-0.1,0.06,7658.333333333333
-0.12,0.055,7661.111111111111
-0.16,0.06,7663.888888888889
-0.195,0.06,7666.666666666667
-0.25,0.045,7669.444444444444
-0.29,0.04,7672.222222222223
-0.315,0.035,7675.0
-0.315,0.045,7677.777777777777
-0.32,0.055,7680.555555555556
-0.295,0.045,7683.333333333333
-0.31,0.04,7686.111111111111
-0.32,0.025,7688.888888888889
-0.315,0.025,7691.666666666667
-0.315,0.03,7694.444444444444
-0.295,0.055,7697.222222222223
-0.275,0.055,7700.0
-0.28,0.04,7702.777777777777
-0.29,0.035,7705.555555555556
-0.315,0.035,7708.333333333333
-0.295,0.05,7711.111111111111
-0.29,0.05,7713.888888888889
-0.29,0.05,7716.666666666667
-0.275,0.05,7719.444444444444
-0.29,0.035,7722.222222222223
-0.3,0.035,7725.0
-0.29,0.045,7727.777777777777
-0.275,0.045,7730.555555555556
-0.265,0.02,7733.333333333333
-0.255,0.0,7736.111111111111
-0.265,-0.01,7738.888888888889
-0.29,0.0,7741.666666666667
-0.295,0.005,7744.444444444444
-0.285,0.01,7747.222222222223
-0.255,-0.005,7750.0
-0.22,-0.045,7752.777777777777
-0.155,-0.095,7755.555555555556
-0.075,-0.14,7758.333333333333
0.06,-0.205,7761.111111111111
0.21,-0.27,7763.888888888889
0.38,-0.36,7766.666666666667
0.555,-0.43,7769.444444444444
0.745,-0.455,7772.222222222223
0.915,-0.43,7775.0
1.065,-0.37,7777.777777777777
1.165,-0.315,7780.555555555556
1.25,-0.295,7783.333333333333
1.22,-0.285,7786.111111111111
1.095,-0.255,7788.888888888889
0.93,-0.19,7791.666666666667
0.795,-0.15,7794.444444444444
0.68,-0.115,7797.222222222223
0.57,-0.065,7800.0
0.41,-0.045,7802.777777777777
0.275,-0.045,7805.555555555556
0.195,-0.025,7808.333333333333
0.13,-0.005,7811.111111111111
0.035,0.03,7813.888888888889
-0.055,0.05,7816.666666666667
-0.13,0.06,7819.444444444444
-0.195,0.07,7822.222222222223
-0.255,0.075,7825.0
-0.31,0.11,7827.777777777777
-0.345,0.135,7830.555555555556
-0.37,0.13,7833.333333333333
-0.405,0.12,7836.111111111111
-0.425,0.105,7838.888888888889
-0.44,0.11,7841.666666666667
-0.45,0.11,7844.444444444444
-0.45,0.115,7847.222222222223
-0.45,0.105,7850.0
-0.465,0.1,7852.777777777777
-0.46,0.1,7855.555555555556
-0.48,0.11,7858.333333333333
-0.46,0.12,7861.111111111111
-0.445,0.125,7863.888888888889
-0.43,0.12,7866.666666666667
-0.435,0.115,7869.444444444444
-0.45,0.105,7872.222222222223
-0.465,0.085,7875.0
-0.46,0.115,7877.777777777777
-0.45,0.14,7880.555555555556
-0.445,0.125,7883.333333333333
-0.43,0.125,7886.111111111111
-0.44,0.105,7888.888888888889
-0.44,0.105,7891.666666666667
-0.455,0.12,7894.444444444444
-0.43,0.13,7897.222222222223
-0.44,0.13,7900.0
-0.435,0.125,7902.777777777777
-0.435,0.12,7905.555555555556
-0.445,0.115,7908.333333333333
-0.445,0.135,7911.111111111111
-0.435,0.13,7913.888888888889
-0.435,0.135,7916.666666666667
-0.435,0.115,7919.444444444444
-0.445,0.11,7922.222222222223
-0.44,0.125,7925.0
-0.435,0.14,7927.777777777777
-0.43,0.145,7930.555555555556
-0.43,0.15,7933.333333333333
-0.44,0.135,7936.111111111111
-0.44,0.125,7938.888888888889
-0.435,0.125,7941.666666666667
-0.435,0.135,7944.444444444444
-0.43,0.165,7947.222222222223
-0.42,0.155,7950.0
-0.43,0.15,7952.777777777777
-0.44,0.135,7955.555555555556
-0.44,0.145,7958.333333333333
-0.445,0.155,7961.111111111111
-0.435,0.165,7963.888888888889
-0.41,0.145,7966.666666666667
-0.415,0.155,7969.444444444444
-0.415,0.145,7972.222222222223
-0.43,0.155,7975.0
-0.415,0.16,7977.777777777777
-0.405,0.17,7980.555555555556
-0.39,0.185,7983.333333333333
-0.38,0.175,7986.111111111111
-0.385,0.155,7988.888888888889
-0.395,0.165,7991.666666666667
-0.385,0.185,7994.444444444444
-0.36,0.18,7997.222222222223
-0.33,0.185,8000.0
-0.32,0.175,8002.777777777777
-0.31,0.175,8005.555555555556
-0.31,0.155,8008.333333333333
-0.31,0.16,8011.111111111111
-0.28,0.18,8013.888888888889
-0.245,0.175,8016.666666666667
-0.225,0.175,8019.444444444444
-0.21,0.16,8022.222222222223
-0.205,0.155,8025.0
-0.195,0.155,8027.777777777777
-0.165,0.155,8030.555555555556
-0.15,0.165,8033.333333333333
-0.14,0.155,8036.111111111111
-0.135,0.15,8038.888888888889
-0.115,0.145,8041.666666666667
-0.11,0.145,8044.444444444444
-0.095,0.155,8047.222222222223
-0.095,0.15,8050.0
-0.105,0.135,8052.777777777777
-0.11,0.12,8055.555555555556
-0.115,0.12,8058.333333333333
-0.105,0.13,8061.111111111111
-0.11,0.135,8063.888888888889
-0.11,0.115,8066.666666666667
-0.125,0.11,8069.444444444444
-0.14,0.11,8072.222222222223
-0.15,0.105,8075.0
-0.155,0.115,8077.777777777777
-0.15,0.115,8080.555555555556
-0.155,0.115,8083.333333333333
-0.17,0.1,8086.111111111111
-0.175,0.095,8088.888888888889
-0.19,0.1,8091.666666666667
-0.18,0.105,8094.444444444444
-0.17,0.11,8097.222222222223
-0.175,0.105,8100.0
-0.175,0.095,8102.777777777777
-0.19,0.095,8105.555555555556
-0.21,0.1,8108.333333333333
-0.2,0.11,8111.111111111111
-0.2,0.125,8113.888888888889
-0.195,0.115,8116.666666666667
-0.2,0.1,8119.444444444444
-0.215,0.09,8122.222222222223
-0.22,0.1,8125.0
-0.225,0.1,8127.777777777777
-0.215,0.12,8130.555555555556
-0.195,0.115,8133.333333333333
-0.22,0.105,8136.111111111111
-0.205,0.095,8138.888888888889
-0.23,0.085,8141.666666666667
-0.23,0.1,8144.444444444444
-0.22,0.1,8147.222222222223
-0.215,0.105,8150.0
-0.215,0.1,8152.777777777777
-0.23,0.08,8155.555555555556
-0.25,0.075,8158.333333333333
-0.24,0.08,8161.111111111111
-0.23,0.095,8163.888888888889
-0.22,0.085,8166.666666666667
-0.215,0.075,8169.444444444444
-0.23,0.075,8172.222222222223
-0.23,0.07,8175.0
-0.22,0.08,8177.777777777777
-0.225,0.085,8180.555555555556
-0.23,0.085,8183.333333333333
-0.23,0.065,8186.111111111111
-0.22,0.065,8188.888888888889
-0.23,0.06,8191.666666666667
-0.23,0.07,8194.444444444445
-0.225,0.085,8197.222222222223
-0.215,0.075,8200.0
-0.22,0.07,8202.777777777777
-0.22,0.055,8205.555555555555
-0.225,0.045,8208.333333333334
-0.225,0.075,8211.111111111111
-0.21,0.07,8213.888888888889
-0.215,0.075,8216.666666666666
-0.21,0.07,8219.444444444445
-0.215,0.065,8222.222222222223
-0.215,0.045,8225.0
-0.215,0.05,8227.777777777777
-0.21,0.07,8230.555555555555
-0.2,0.07,8233.333333333334
-0.215,0.065,8236.111111111111
-0.225,0.055,8238.888888888889
-0.23,0.055,8241.666666666666
-0.215,0.065,8244.444444444445
-0.2,0.065,8247.222222222223
-0.205,0.07,8250.0
-0.205,0.06,8252.777777777777
-0.2,0.05,8255.555555555555
-0.215,0.065,8258.333333333334
-0.195,0.075,8261.111111111111
-0.19,0.075,8263.888888888889
-0.175,0.07,8266.666666666666
-0.19,0.065,8269.444444444445
-0.21,0.055,8272.222222222223
-0.22,0.05,8275.0
-0.215,0.075,8277.777777777777
-0.195,0.1,8280.555555555555
-0.19,0.11,8283.333333333334
-0.185,0.115,8286.111111111111
-0.175,0.145,8288.888888888889
-0.15,0.155,8291.666666666666
-0.115,0.145,8294.444444444445
-0.095,0.15,8297.222222222223
-0.09,0.16,8300.0
-0.11,0.15,8302.777777777777
-0.12,0.15,8305.555555555555
-0.13,0.13,8308.333333333334
-0.11,0.13,8311.111111111111
-0.07,0.125,8313.888888888889
-0.05,0.11,8316.666666666666
-0.04,0.09,8319.444444444445
-0.035,0.09,8322.222222222223
-0.05,0.08,8325.0
-0.04,0.085,8327.777777777777
-0.005,0.08,8330.555555555555
0.01,0.07,8333.333333333334
0.0,0.07,8336.111111111111
-0.02,0.065,8338.888888888889
-0.045,0.065,8341.666666666666
-0.045,0.075,8344.444444444445
-0.04,0.07,8347.222222222223
-0.055,0.065,8350.0
-0.09,0.045,8352.777777777777
-0.16,0.035,8355.555555555555
-0.22,0.04,8358.333333333334
-0.27,0.05,8361.111111111111
-0.26,0.06,8363.888888888889
-0.265,0.045,8366.666666666666
-0.265,0.04,8369.444444444445
-0.275,0.035,8372.222222222223
-0.29,0.035,8375.0
-0.28,0.045,8377.777777777777
-0.285,0.045,8380.555555555555
-0.27,0.045,8383.333333333334
-0.255,0.03,8386.111111111111
-0.265,0.035,8388.888888888889
-0.265,0.03,8391.666666666666
-0.26,0.04,8394.444444444445
-0.26,0.045,8397.222222222223
-0.26,0.04,8400.0
-0.26,0.035,8402.777777777777
-0.265,0.03,8405.555555555555
-0.265,0.03,8408.333333333334
-0.245,0.035,8411.111111111111
-0.235,0.04,8413.888888888889
-0.23,0.04,8416.666666666666
-0.22,0.03,8419.444444444445
-0.225,0.03,8422.222222222223
-0.245,0.015,8425.0
-0.225,0.0,8427.777777777777
-0.215,0.015,8430.555555555555
-0.205,0.005,8433.333333333334
-0.205,0.005,8436.111111111111
-0.23,-0.01,8438.888888888889
-0.245,-0.03,8441.666666666666
-0.225,-0.05,8444.444444444445
-0.19,-0.075,8447.222222222223
-0.105,-0.15,8450.0
0.025,-0.215,8452.777777777777
0.2,-0.32,8455.555555555555
0.39,-0.41,8458.333333333334
0.615,-0.46,8461.111111111111
0.83,-0.475,8463.888888888889
1.005,-0.455,8466.666666666666
1.13,-0.41,8469.444444444445
1.21,-0.37,8472.222222222223
1.27,-0.345,8475.0
1.32,-0.31,8477.777777777777
1.275,-0.275,8480.555555555555
1.145,-0.23,8483.333333333334
0.97,-0.2,8486.111111111111
0.84,-0.16,8488.888888888889
0.715,-0.12,8491.666666666666
0.55,-0.08,8494.444444444445
0.41,-0.025,8497.222222222223
0.31,-0.005,8500.0
0.235,0.01,8502.777777777777
0.155,0.01,8505.555555555555
0.04,0.04,8508.333333333334
-0.06,0.06,8511.111111111111
-0.14,0.08,8513.888888888889
-0.185,0.085,8516.666666666666
-0.24,0.1,8519.444444444445
-0.29,0.12,8522.222222222223
-0.35,0.13,8525.0
-0.37,0.14,8527.777777777777
-0.37,0.135,8530.555555555555
-0.385,0.115,8533.333333333334
-0.405,0.12,8536.111111111111
-0.43,0.115,8538.888888888889
-0.435,0.105,8541.666666666666
-0.43,0.13,8544.444444444445
-0.43,0.14,8547.222222222223
-0.43,0.125,8550.0
-0.42,0.125,8552.777777777777
-0.435,0.125,8555.555555555555
-0.435,0.125,8558.333333333334
-0.43,0.145,8561.111111111111
-0.42,0.155,8563.888888888889
-0.395,0.16,8566.666666666666
-0.405,0.145,8569.444444444445
-0.405,0.155,8572.222222222223
-0.42,0.145,8575.0
-0.415,0.15,8577.777777777777
-0.39,0.155,8580.555555555555
-0.38,0.145,8583.333333333334
-0.395,0.145,8586.111111111111
-0.41,0.14,8588.888888888889
-0.42,0.14,8591.666666666666
-0.415,0.145,8594.444444444445
-0.405,0.155,8597.222222222223
-0.385,0.16,8600.0
-0.39,0.145,8602.777777777777
-0.415,0.14,8605.555555555555
-0.42,0.135,8608.333333333334
-0.415,0.15,8611.111111111111
-0.395,0.16,8613.888888888889
-0.39,0.16,8616.666666666666
-0.39,0.155,8619.444444444445
-0.4,0.15,8622.222222222223
-0.44,0.15,8625.0
-0.445,0.165,8627.777777777777
-0.42,0.18,8630.555555555555
-0.405,0.155,8633.333333333334
-0.415,0.14,8636.111111111111
-0.41,0.155,8638.888888888889
-0.425,0.16,8641.666666666666
-0.425,0.175,8644.444444444445
-0.42,0.175,8647.222222222223
-0.405,0.175,8650.0
-0.42,0.185,8652.777777777777
-0.43,0.165,8655.555555555555
-0.43,0.17,8658.333333333334
-0.43,0.17,8661.111111111111
-0.42,0.185,8663.888888888889
-0.405,0.19,8666.666666666666
-0.4,0.19,8669.444444444445
-0.41,0.17,8672.222222222223
-0.405,0.165,8675.0
-0.39,0.165,8677.777777777777
-0.38,0.2,8680.555555555555
-0.365,0.19,8683.333333333334
-0.345,0.195,8686.111111111111
-0.335,0.195,8688.888888888889
-0.33,0.18,8691.666666666666
-0.315,0.18,8694.444444444445
-0.305,0.19,8697.222222222223
-0.28,0.2,8700.0
-0.275,0.19,8702.777777777777
-0.27,0.185,8705.555555555555
-0.27,0.19,8708.333333333334
-0.25,0.195,8711.111111111111
-0.225,0.2,8713.888888888889
-0.205,0.195,8716.666666666666
-0.195,0.18,8719.444444444445
-0.18,0.175,8722.222222222223
-0.185,0.17,8725.0
-0.16,0.17,8727.777777777777
-0.135,0.185,8730.555555555555
-0.11,0.175,8733.333333333334
-0.1,0.17,8736.111111111111
-0.1,0.155,8738.888888888889
-0.105,0.135,8741.666666666666
-0.11,0.145,8744.444444444445
-0.1,0.145,8747.222222222223
-0.08,0.145,8750.0
-0.095,0.14,8752.777777777777
-0.095,0.14,8755.555555555555
-0.125,0.14,8758.333333333334
-0.115,0.135,8761.111111111111
-0.11,0.15,8763.888888888889
-0.115,0.135,8766.666666666666
-0.115,0.12,8769.444444444445
-0.125,0.115,8772.222222222223
-0.155,0.115,8775.0
-0.15,0.135,8777.777777777777
-0.135,0.15,8780.555555555555
-0.145,0.135,8783.333333333334
-0.145,0.135,8786.111111111111
-0.15,0.12,8788.888888888889
-0.165,0.12,8791.666666666666
-0.175,0.14,8794.444444444445
-0.17,0.15,8797.222222222223
-0.18,0.145,8800.0
-0.185,0.135,8802.777777777777
-0.2,0.125,8805.555555555555
-0.2,0.125,8808.333333333334
-0.195,0.135,8811.111111111111
-0.19,0.135,8813.888888888889
-0.2,0.13,8816.666666666666
-0.19,0.13,8819.444444444445
-0.2,0.135,8822.222222222223
-0.205,0.135,8825.0
-0.205,0.14,8827.777777777777
-0.205,0.145,8830.555555555555
-0.195,0.125,8833.333333333334
-0.2,0.135,8836.111111111111
-0.215,0.115,8838.888888888889
-0.225,0.12,8841.666666666666
-0.225,0.13,8844.444444444445
-0.22,0.125,8847.222222222223
-0.225,0.13,8850.0
-0.235,0.12,8852.777777777777
-0.235,0.11,8855.555555555555
-0.23,0.115,8858.333333333334
-0.215,0.115,8861.111111111111
-0.215,0.12,8863.888888888889
-0.21,0.125,8866.666666666666
-0.21,0.12,8869.444444444445
-0.215,0.11,8872.222222222223
-0.225,0.11,8875.0
-0.21,0.115,8877.777777777777
-0.205,0.11,8880.555555555555
-0.2,0.09,8883.333333333334
-0.215,0.095,8886.111111111111
-0.225,0.09,8888.888888888889
-0.235,0.09,8891.666666666666
-0.23,0.095,8894.444444444445
-0.215,0.11,8897.222222222223
-0.195,0.09,8900.0
-0.195,0.095,8902.777777777777
-0.205,0.095,8905.555555555555
-0.23,0.09,8908.333333333334
-0.225,0.11,8911.111111111111
-0.215,0.12,8913.888888888889
-0.205,0.1,8916.666666666666
-0.21,0.105,8919.444444444445
-0.225,0.08,8922.222222222223
-0.23,0.08,8925.0
-0.215,0.095,8927.777777777777
-0.22,0.11,8930.555555555555
-0.225,0.1,8933.333333333334
-0.23,0.095,8936.111111111111
-0.225,0.09,8938.888888888889
-0.22,0.08,8941.666666666666
-0.22,0.09,8944.444444444445
-0.205,0.095,8947.222222222223
-0.205,0.11,8950.0
-0.21,0.1,8952.777777777777
-0.215,0.09,8955.555555555555
-0.225,0.1,8958.333333333334
-0.22,0.11,8961.111111111111
-0.22,0.12,8963.888888888889
-0.22,0.11,8966.666666666666
-0.215,0.1,8969.444444444445
-0.22,0.095,8972.222222222223
-0.23,0.095,8975.0
-0.215,0.115,8977.777777777777
-0.2,0.13,8980.555555555555
-0.205,0.13,8983.333333333334
-0.205,0.13,8986.111111111111
-0.215,0.155,8988.888888888889
-0.205,0.17,8991.666666666666
-0.18,0.19,8994.444444444445
-0.145,0.195,8997.222222222223
-0.12,0.19,9000.0
-0.12,0.185,9002.777777777777
-0.135,0.165,9005.555555555555
-0.145,0.145,9008.333333333334
-0.125,0.15,9011.111111111111
-0.095,0.15,9013.888888888889
-0.065,0.13,9016.666666666666
-0.045,0.135,9019.444444444445
-0.05,0.125,9022.222222222223
-0.05,0.125,9025.0
-0.035,0.115,9027.777777777777
-0.02,0.115,9030.555555555555
0.0,0.095,9033.333333333334
-0.01,0.08,9036.111111111111
-0.035,0.09,9038.888888888889
-0.05,0.1,9041.666666666666
-0.065,0.105,9044.444444444445
-0.05,0.115,9047.222222222223
-0.06,0.09,9050.0
-0.09,0.075,9052.777777777777
-0.13,0.07,9055.555555555555
-0.19,0.06,9058.333333333334
-0.235,0.095,9061.111111111111
-0.26,0.09,9063.888888888889
-0.28,0.085,9066.666666666666
-0.285,0.07,9069.444444444445
-0.3,0.055,9072.222222222223
-0.3,0.055,9075.0
-0.295,0.075,9077.777777777777
-0.295,0.07,9080.555555555555
-0.27,0.08,9083.333333333334
-0.265,0.075,9086.111111111111
-0.27,0.07,9088.888888888889
-0.29,0.065,9091.666666666666
-0.29,0.07,9094.444444444445
-0.285,0.075,9097.222222222223
-0.275,0.065,9100.0
-0.27,0.07,9102.777777777777
-0.27,0.06,9105.555555555555
-0.285,0.065,9108.333333333334
-0.275,0.07,9111.111111111111
-0.255,0.065,9113.888888888889
-0.25,0.06,9116.666666666666
-0.245,0.05,9119.444444444445
-0.255,0.05,9122.222222222223
-0.27,0.04,9125.0
-0.26,0.045,9127.777777777777
-0.255,0.055,9130.555555555555
-0.255,0.04,9133.333333333334
-0.25,0.035,9136.111111111111
-0.27,0.03,9138.888888888889
-0.28,0.015,9141.666666666666
-0.24,0.005,9144.444444444445
-0.17,-0.035,9147.222222222223
-0.03,-0.115,9150.0
0.13,-0.2,9152.777777777777
0.305,-0.315,9155.555555555555
0.5,-0.395,9158.333333333334
0.725,-0.415,9161.111111111111
0.94,-0.38,9163.888888888889
1.1,-0.305,9166.666666666666
1.215,-0.26,9169.444444444445
1.26,-0.245,9172.222222222223
1.2,-0.23,9175.0
1.065,-0.165,9177.777777777777
0.93,-0.135,9180.555555555555
0.8,-0.11,9183.333333333334
0.66,-0.09,9186.111111111111
0.495,-0.05,9188.888888888889
0.34,-0.005,9191.666666666666
0.235,0.03,9194.444444444445
0.195,0.065,9197.222222222223
0.17,0.07,9200.0
0.085,0.08,9202.777777777777
-0.025,0.09,9205.555555555555
-0.13,0.115,9208.333333333334
-0.195,0.13,9211.111111111111
-0.25,0.16,9213.888888888889
-0.305,0.175,9216.666666666666
-0.355,0.165,9219.444444444445
-0.395,0.16,9222.222222222223
-0.42,0.16,9225.0
-0.42,0.165,9227.777777777777
-0.425,0.16,9230.555555555555
-0.44,0.18,9233.333333333334
-0.44,0.175,9236.111111111111
-0.46,0.165,9238.888888888889
-0.455,0.16,9241.666666666666
-0.46,0.16,9244.444444444445
-0.45,0.175,9247.222222222223
-0.435,0.165,9250.0
-0.44,0.165,9252.777777777777
-0.45,0.16,9255.555555555555
-0.45,0.165,9258.333333333334
-0.44,0.175,9261.111111111111
-0.425,0.185,9263.888888888889
-0.41,0.18,9266.666666666666
-0.42,0.17,9269.444444444445
-0.435,0.165,9272.222222222223
-0.44,0.165,9275.0
-0.43,0.175,9277.777777777777
-0.425,0.195,9280.555555555555
-0.415,0.19,9283.333333333334
-0.425,0.18,9286.111111111111
-0.425,0.185,9288.888888888889
-0.425,0.175,9291.666666666666
-0.42,0.19,9294.444444444445
-0.41,0.19,9297.222222222223
-0.405,0.19,9300.0
-0.415,0.175,9302.777777777777
-0.42,0.175,9305.555555555555
-0.425,0.17,9308.333333333334
-0.435,0.185,9311.111111111111
-0.43,0.195,9313.888888888889
-0.425,0.185,9316.666666666666
-0.41,0.175,9319.444444444445
-0.425,0.17,9322.222222222223
-0.425,0.185,9325.0
-0.425,0.2,9327.777777777777
-0.425,0.21,9330.555555555555
-0.43,0.195,9333.333333333334
-0.44,0.185,9336.111111111111
-0.44,0.17,9338.888888888889
-0.43,0.175,9341.666666666666
-0.425,0.195,9344.444444444445
-0.42,0.215,9347.222222222223
-0.405,0.21,9350.0
-0.41,0.2,9352.777777777777
-0.425,0.195,9355.555555555555
-0.41,0.2,9358.333333333334
-0.415,0.205,9361.111111111111
-0.405,0.21,9363.888888888889
-0.41,0.215,9366.666666666666
-0.395,0.205,9369.444444444445
-0.4,0.2,9372.222222222223
-0.405,0.21,9375.0
-0.385,0.225,9377.777777777777
-0.365,0.22,9380.555555555555
-0.345,0.215,9383.333333333334
-0.33,0.21,9386.111111111111
-0.325,0.195,9388.888888888889
-0.32,0.2,9391.666666666666
-0.31,0.22,9394.444444444445
-0.29,0.22,9397.222222222223
-0.28,0.225,9400.0
-0.265,0.21,9402.777777777777
-0.26,0.215,9405.555555555555
-0.27,0.2,9408.333333333334
-0.245,0.215,9411.111111111111
-0.22,0.22,9413.888888888889
-0.19,0.215,9416.666666666666
-0.17,0.215,9419.444444444445
-0.16,0.195,9422.222222222223
-0.17,0.19,9425.0
-0.155,0.21,9427.777777777777
-0.14,0.21,9430.555555555555
-0.125,0.2,9433.333333333334
-0.13,0.195,9436.111111111111
-0.125,0.195,9438.888888888889
-0.125,0.18,9441.666666666666
-0.11,0.19,9444.444444444445
-0.105,0.195,9447.222222222223
-0.11,0.19,9450.0
-0.11,0.18,9452.777777777777
-0.12,0.175,9455.555555555555
-0.125,0.165,9458.333333333334
-0.14,0.185,9461.111111111111
-0.135,0.18,9463.888888888889
-0.13,0.175,9466.666666666666
-0.15,0.16,9469.444444444445
-0.155,0.16,9472.222222222223
-0.18,0.155,9475.0
-0.185,0.17,9477.777777777777
-0.18,0.18,9480.555555555555
-0.165,0.16,9483.333333333334
-0.175,0.16,9486.111111111111
-0.2,0.155,9488.888888888889
-0.2,0.165,9491.666666666666
-0.2,0.175,9494.444444444445
-0.21,0.18,9497.222222222223
-0.19,0.17,9500.0
-0.21,0.17,9502.777777777777
-0.21,0.15,9505.555555555555
-0.21,0.145,9508.333333333334
-0.22,0.165,9511.111111111111
-0.21,0.18,9513.888888888889
-0.21,0.17,9516.666666666666
-0.225,0.17,9519.444444444445
-0.22,0.165,9522.222222222223
-0.235,0.15,9525.0
-0.225,0.155,9527.777777777777
-0.215,0.17,9530.555555555555
-0.22,0.14,9533.333333333334
-0.235,0.135,9536.111111111111
-0.245,0.145,9538.888888888889
-0.26,0.145,9541.666666666666
-0.25,0.14,9544.444444444445
-0.245,0.17,9547.222222222223
-0.255,0.14,9550.0
-0.255,0.135,9552.777777777777
-0.255,0.13,9555.555555555555
-0.255,0.135,9558.333333333334
-0.25,0.145,9561.111111111111
-0.25,0.15,9563.888888888889
-0.24,0.14,9566.666666666666
-0.245,0.12,9569.444444444445
-0.245,0.115,9572.222222222223
-0.245,0.13,9575.0
-0.25,0.13,9577.777777777777
-0.245,0.13,9580.555555555555
-0.235,0.12,9583.333333333334
-0.235,0.12,9586.111111111111
-0.245,0.115,9588.888888888889
-0.245,0.115,9591.666666666666
-0.245,0.13,9594.444444444445
-0.245,0.145,9597.222222222223
-0.24,0.125,9600.0
-0.265,0.115,9602.777777777777
-0.25,0.105,9605.555555555555
-0.265,0.115,9608.333333333334
-0.245,0.12,9611.111111111111
-0.23,0.13,9613.888888888889
-0.23,0.12,9616.666666666666
-0.24,0.115,9619.444444444445
-0.25,0.12,9622.222222222223
-0.265,0.1,9625.0
-0.255,0.115,9627.777777777777
-0.245,0.12,9630.555555555555
-0.23,0.12,9633.333333333334
-0.235,0.125,9636.111111111111
-0.235,0.105,9638.888888888889
-0.25,0.095,9641.666666666666
-0.245,0.11,9644.444444444445
-0.235,0.125,9647.222222222223
-0.24,0.11,9650.0
-0.24,0.11,9652.777777777777
-0.255,0.095,9655.555555555555
-0.27,0.09,9658.333333333334
-0.25,0.11,9661.111111111111
-0.245,0.12,9663.888888888889
-0.25,0.11,9666.666666666666
-0.24,0.105,9669.444444444445
-0.26,0.105,9672.222222222223
-0.26,0.11,9675.0
-0.265,0.115,9677.777777777777
-0.245,0.125,9680.555555555555
-0.24,0.11,9683.333333333334
-0.245,0.12,9686.111111111111
-0.24,0.115,9688.888888888889
-0.24,0.11,9691.666666666666
-0.24,0.15,9694.444444444445
-0.22,0.175,9697.222222222223
-0.21,0.185,9700.0
-0.19,0.2,9702.777777777777
-0.17,0.2,9705.555555555555
-0.18,0.18,9708.333333333334
-0.165,0.195,9711.111111111111
-0.15,0.195,9713.888888888889
-0.15,0.19,9716.666666666666
-0.175,0.185,9719.444444444445
-0.175,0.18,9722.222222222223
-0.165,0.16,9725.0
-0.125,0.17,9727.777777777777
-0.095,0.155,9730.555555555555
-0.07,0.16,9733.333333333334
-0.065,0.155,9736.111111111111
-0.075,0.135,9738.888888888889
-0.07,0.135,9741.666666666666
-0.06,0.13,9744.444444444445
-0.03,0.135,9747.222222222223
-0.025,0.135,9750.0
-0.035,0.12,9752.777777777777
-0.055,0.125,9755.555555555555
-0.075,0.11,9758.333333333334
-0.065,0.125,9761.111111111111
-0.07,0.12,9763.888888888889
-0.095,0.095,9766.666666666666
-0.115,0.085,9769.444444444445
-0.16,0.08,9772.222222222223
-0.22,0.085,9775.0
-0.255,0.09,9777.777777777777
-0.28,0.1,9780.555555555555
-0.28,0.09,9783.333333333334
-0.29,0.085,9786.111111111111
-0.31,0.07,9788.888888888889
-0.32,0.085,9791.666666666666
-0.31,0.08,9794.444444444445
-0.295,0.095,9797.222222222223
-0.295,0.09,9800.0
-0.295,0.07,9802.777777777777
-0.305,0.07,9805.555555555555
-0.305,0.055,9808.333333333334
-0.295,0.07,9811.111111111111
-0.28,0.085,9813.888888888889
-0.275,0.08,9816.666666666666
-0.28,0.075,9819.444444444445
-0.29,0.07,9822.222222222223
-0.305,0.07,9825.0
-0.285,0.075,9827.777777777777
-0.275,0.08,9830.555555555555
-0.275,0.085,9833.333333333334
-0.265,0.07,9836.111111111111
-0.255,0.06,9838.888888888889
-0.265,0.055,9841.666666666666
-0.265,0.06,9844.444444444445
-0.26,0.065,9847.222222222223
-0.245,0.045,9850.0
-0.245,0.04,9852.777777777777
-0.26,0.03,9855.555555555555
-0.27,0.04,9858.333333333334
-0.265,0.06,9861.111111111111
-0.23,0.055,9863.888888888889
-0.17,0.02,9866.666666666666
-0.07,-0.02,9869.444444444445
0.07,-0.07,9872.222222222223
0.23,-0.125,9875.0
0.41,-0.195,9877.777777777777
0.58,-0.255,9880.555555555555
0.75,-0.335,9883.333333333334
0.88,-0.365,9886.111111111111
1.005,-0.345,9888.888888888889
1.105,-0.28,9891.666666666666
1.19,-0.215,9894.444444444445
1.245,-0.195,9897.222222222223
1.2,-0.195,9900.0
1.065,-0.18,9902.777777777777
0.905,-0.155,9905.555555555555
0.76,-0.12,9908.333333333334
0.66,-0.075,9911.111111111111
0.53,-0.03,9913.888888888889
0.375,0.0,9916.666666666666
0.235,0.005,9919.444444444445
0.135,0.015,9922.222222222223
0.075,0.03,9925.0
0.0,0.055,9927.777777777777
-0.085,0.08,9930.555555555555
-0.155,0.095,9933.333333333334
-0.22,0.085,9936.111111111111
-0.26,0.09,9938.888888888889
-0.3,0.11,9941.666666666666
-0.33,0.13,9944.444444444445
-0.355,0.16,9947.222222222223
-0.39,0.155,9950.0
-0.41,0.14,9952.777777777777
-0.445,0.14,9955.555555555555
-0.45,0.13,9958.333333333334
-0.45,0.145,9961.111111111111
-0.445,0.15,9963.888888888889
-0.46,0.15,9966.666666666666
-0.455,0.145,9969.444444444445
-0.465,0.125,9972.222222222223
-0.47,0.125,9975.0
-0.445,0.15,9977.777777777777
-0.435,0.155,9980.555555555555
-0.435,0.15,9983.333333333334
-0.43,0.15,9986.111111111111
-0.445,0.135,9988.888888888889
-0.435,0.135,9991.666666666666
-0.435,0.135,9994.444444444445
-0.415,0.145,9997.222222222223
-0.4,0.15,10000.0
-0.405,0.135,10002.777777777777
-0.42,0.135,10005.555555555555
-0.435,0.145,10008.333333333334
-0.425,0.14,10011.111111111111
-0.42,0.145,10013.888888888889
-0.43,0.14,10016.666666666666
-0.435,0.145,10019.444444444445
-0.45,0.135,10022.222222222223
-0.45,0.145,10025.0
-0.435,0.145,10027.777777777777
-0.425,0.165,10030.555555555555
-0.415,0.165,10033.333333333334
-0.425,0.155,10036.111111111111
-0.445,0.125,10038.888888888889
-0.46,0.13,10041.666666666666
-0.455,0.15,10044.444444444445
-0.43,0.155,10047.222222222223
-0.43,0.16,10050.0
-0.43,0.155,10052.777777777777
-0.435,0.145,10055.555555555555
-0.445,0.155,10058.333333333334
-0.44,0.16,10061.111111111111
-0.425,0.18,10063.888888888889
-0.425,0.165,10066.666666666666
-0.44,0.17,10069.444444444445
-0.435,0.16,10072.222222222223
-0.455,0.165,10075.0
-0.445,0.17,10077.777777777777
-0.435,0.195,10080.555555555555
-0.43,0.195,10083.333333333334
-0.43,0.185,10086.111111111111
-0.42,0.165,10088.888888888889
-0.43,0.16,10091.666666666666
-0.425,0.175,10094.444444444445
-0.425,0.195,10097.222222222223
-0.41,0.185,10100.0
-0.405,0.175,10102.777777777777
-0.4,0.175,10105.555555555555
-0.395,0.17,10108.333333333334
-0.385,0.175,10111.111111111111
-0.355,0.185,10113.888888888889
-0.36,0.185,10116.666666666666
-0.34,0.18,10119.444444444445
-0.34,0.17,10122.222222222223
-0.34,0.165,10125.0
-0.33,0.175,10127.777777777777
-0.31,0.19,10130.555555555555
-0.3,0.175,10133.333333333334
-0.29,0.17,10136.111111111111
-0.285,0.16,10138.888888888889
-0.28,0.17,10141.666666666666
-0.25,0.185,10144.444444444445
-0.235,0.19,10147.222222222223
-0.2,0.195,10150.0
-0.19,0.175,10152.777777777777
-0.19,0.17,10155.555555555555
-0.185,0.165,10158.333333333334
-0.165,0.16,10161.111111111111
-0.155,0.16,10163.888888888889
-0.13,0.16,10166.666666666666
-0.12,0.155,10169.444444444445
-0.125,0.15,10172.222222222223
-0.125,0.155,10175.0
-0.115,0.15,10177.777777777777
-0.115,0.16,10180.555555555555
-0.11,0.145,10183.333333333334
-0.105,0.14,10186.111111111111
-0.115,0.13,10188.888888888889
-0.125,0.13,10191.666666666666
-0.14,0.135,10194.444444444445
-0.135,0.145,10197.222222222223
-0.135,0.14,10200.0
-0.16,0.125,10202.777777777777
-0.175,0.115,10205.555555555555
-0.175,0.11,10208.333333333334
-0.165,0.13,10211.111111111111
-0.17,0.125,10213.888888888889
-0.18,0.125,10216.666666666666
-0.175,0.125,10219.444444444445
-0.195,0.13,10222.222222222223
-0.21,0.115,10225.0
-0.2,0.125,10227.777777777777
-0.195,0.125,10230.555555555555
-0.195,0.125,10233.333333333334
-0.205,0.125,10236.111111111111
-0.21,0.11,10238.888888888889
-0.23,0.11,10241.666666666666
-0.225,0.12,10244.444444444445
-0.22,0.135,10247.222222222223
-0.21,0.125,10250.0
-0.22,0.12,10252.777777777777
-0.23,0.115,10255.555555555555
-0.255,0.11,10258.333333333334
-0.23,0.115,10261.111111111111
-0.23,0.13,10263.888888888889
-0.22,0.115,10266.666666666666
-0.225,0.13,10269.444444444445
-0.23,0.11,10272.222222222223
-0.245,0.1,10275.0
-0.245,0.105,10277.777777777777
-0.245,0.115,10280.555555555555
-0.235,0.12,10283.333333333334
-0.24,0.105,10286.111111111111
-0.24,0.095,10288.888888888889
-0.235,0.085,10291.666666666666
-0.245,0.105,10294.444444444445
-0.23,0.115,10297.222222222223
-0.225,0.12,10300.0
-0.225,0.095,10302.777777777777
-0.24,0.085,10305.555555555555
-0.25,0.08,10308.333333333334
-0.23,0.085,10311.111111111111
-0.23,0.095,10313.888888888889
-0.215,0.095,10316.666666666666
-0.24,0.08,10319.444444444445
-0.245,0.08,10322.222222222223
-0.245,0.085,10325.0
-0.225,0.08,10327.777777777777
-0.225,0.09,10330.555555555555
-0.225,0.075,10333.333333333334
-0.225,0.075,10336.111111111111
-0.235,0.07,10338.888888888889
-0.24,0.075,10341.666666666666
-0.23,0.085,10344.444444444445
-0.23,0.095,10347.222222222223
-0.22,0.09,10350.0
-0.225,0.075,10352.777777777777
-0.23,0.06,10355.555555555555
-0.255,0.065,10358.333333333334
-0.24,0.08,10361.111111111111
-0.24,0.08,10363.888888888889
-0.235,0.085,10366.666666666666
-0.235,0.085,10369.444444444445
-0.245,0.065,10372.222222222223
-0.26,0.07,10375.0
-0.24,0.07,10377.777777777777
-0.225,0.08,10380.555555555555
-0.225,0.075,10383.333333333334
-0.23,0.065,10386.111111111111
-0.26,0.07,10388.888888888889
-0.235,0.065,10391.666666666666
-0.24,0.075,10394.444444444445
-0.235,0.08,10397.222222222223
-0.24,0.075,10400.0
-0.24,0.075,10402.777777777777
-0.225,0.05,10405.555555555555
-0.23,0.065,10408.333333333334
-0.23,0.075,10411.111111111111
-0.215,0.08,10413.888888888889
-0.23,0.095,10416.666666666666
-0.23,0.075,10419.444444444445
-0.24,0.065,10422.222222222223
-0.25,0.06,10425.0
-0.235,0.065,10427.777777777777
-0.235,0.08,10430.555555555555
-0.225,0.09,10433.333333333334
-0.225,0.09,10436.111111111111
-0.23,0.105,10438.888888888889
-0.23,0.13,10441.666666666666
-0.21,0.145,10444.444444444445
-0.215,0.175,10447.222222222223
-0.165,0.16,10450.0
-0.16,0.165,10452.777777777777
-0.13,0.145,10455.555555555555
-0.14,0.145,10458.333333333334
-0.14,0.16,10461.111111111111
-0.16,0.165,10463.888888888889
-0.145,0.145,10466.666666666666
-0.13,0.12,10469.444444444445
-0.115,0.105,10472.222222222223
-0.115,0.095,10475.0
-0.09,0.1,10477.777777777777
-0.075,0.11,10480.555555555555
-0.06,0.1,10483.333333333334
-0.06,0.095,10486.111111111111
-0.055,0.08,10488.888888888889
-0.055,0.065,10491.666666666666
-0.04,0.06,10494.444444444445
-0.025,0.075,10497.222222222223
-0.035,0.07,10500.0
-0.055,0.065,10502.777777777777
-0.07,0.06,10505.555555555555
-0.09,0.06,10508.333333333334
-0.095,0.065,10511.111111111111
-0.1,0.06,10513.888888888889
-0.12,0.05,10516.666666666666
-0.16,0.04,10519.444444444445
-0.225,0.035,10522.222222222223
-0.285,0.025,10525.0
-0.3,0.03,10527.777777777777
-0.3,0.045,10530.555555555555
-0.29,0.05,10533.333333333334
-0.29,0.03,10536.111111111111
-0.3,0.025,10538.888888888889
-0.315,0.025,10541.666666666666
-0.335,0.03,10544.444444444445
-0.32,0.02,10547.222222222223
-0.32,0.03,10550.0
-0.305,0.015,10552.777777777777
-0.31,0.025,10555.555555555555
-0.325,0.015,10558.333333333334
-0.305,0.025,10561.111111111111
-0.3,0.04,10563.888888888889
-0.3,0.035,10566.666666666666
-0.305,0.035,10569.444444444445
-0.31,0.015,10572.222222222223
-0.32,0.01,10575.0
-0.315,0.04,10577.777777777777
-0.3,0.045,10580.555555555555
-0.28,0.035,10583.333333333334
-0.28,0.03,10586.111111111111
-0.29,0.025,10588.888888888889
-0.295,0.03,10591.666666666666
-0.295,0.035,10594.444444444445
-0.285,0.03,10597.222222222223
-0.255,0.02,10600.0
-0.27,0.0,10602.777777777777
-0.275,-0.02,10605.555555555555
-0.29,-0.025,10608.333333333334
-0.275,-0.025,10611.111111111111
-0.27,-0.02,10613.888888888889
-0.275,-0.03,10616.666666666666
-0.265,-0.075,10619.444444444445
-0.23,-0.13,10622.222222222223
-0.155,-0.18,10625.0
-0.015,-0.23,10627.777777777777
0.15,-0.315,10630.555555555555
0.335,-0.395,10633.333333333334
0.52,-0.46,10636.111111111111
0.705,-0.495,10638.888888888889
0.875,-0.47,10641.666666666666
1.035,-0.4,10644.444444444445
1.145,-0.33,10647.222222222223
1.22,-0.3,10650.0
1.235,-0.31,10652.777777777777
1.165,-0.315,10655.555555555555
1.035,-0.285,10658.333333333334
0.935,-0.225,10661.111111111111
0.865,-0.18,10663.888888888889
0.79,-0.16,10666.666666666666
0.69,-0.13,10669.444444444445
0.56,-0.1,10672.222222222223
0.395,-0.07,10675.0
0.265,-0.04,10677.777777777777
0.195,0.0,10680.555555555555
0.145,0.01,10683.333333333334
0.06,0.01,10686.111111111111
-0.045,0.025,10688.888888888889
-0.125,0.035,10691.666666666666
-0.18,0.045,10694.444444444445
-0.23,0.09,10697.222222222223
-0.28,0.095,10700.0
-0.33,0.11,10702.777777777777
-0.38,0.095,10705.555555555555
-0.42,0.095,10708.333333333334
-0.42,0.105,10711.111111111111
-0.435,0.12,10713.888888888889
-0.45,0.115,10716.666666666666
-0.465,0.1,10719.444444444445
-0.48,0.09,10722.222222222223
-0.485,0.09,10725.0
-0.475,0.095,10727.777777777777
-0.46,0.115,10730.555555555555
-0.465,0.11,10733.333333333334
-0.475,0.105,10736.111111111111
-0.475,0.085,10738.888888888889
-0.48,0.09,10741.666666666666
-0.465,0.1,10744.444444444445
-0.445,0.11,10747.222222222223
-0.445,0.11,10750.0
-0.445,0.11,10752.777777777777
-0.455,0.1,10755.555555555555
-0.465,0.1,10758.333333333334
-0.46,0.12,10761.111111111111
-0.445,0.125,10763.888888888889
-0.435,0.12,10766.666666666666
-0.455,0.11,10769.444444444445
-0.46,0.105,10772.222222222223
-0.47,0.11,10775.0
-0.46,0.12,10777.777777777777
-0.445,0.145,10780.555555555555
-0.445,0.135,10783.333333333334
-0.435,0.13,10786.111111111111
-0.445,0.115,10788.888888888889
-0.455,0.115,10791.666666666666
-0.46,0.12,10794.444444444445
-0.445,0.13,10797.222222222223
-0.44,0.13,10800.0
-0.445,0.12,10802.777777777777
-0.445,0.13,10805.555555555555
-0.455,0.125,10808.333333333334
-0.465,0.13,10811.111111111111
-0.46,0.135,10813.888888888889
-0.45,0.14,10816.666666666666
-0.45,0.14,10819.444444444445
-0.465,0.13,10822.222222222223
-0.47,0.14,10825.0
-0.45,0.15,10827.777777777777
-0.46,0.16,10830.555555555555
-0.455,0.16,10833.333333333334
-0.46,0.15,10836.111111111111
-0.46,0.14,10838.888888888889
-0.465,0.15,10841.666666666666
-0.465,0.16,10844.444444444445
-0.445,0.165,10847.222222222223
-0.44,0.17,10850.0
-0.44,0.16,10852.777777777777
-0.445,0.16,10855.555555555555
-0.445,0.155,10858.333333333334
-0.445,0.16,10861.111111111111
-0.425,0.175,10863.888888888889
-0.415,0.16,10866.666666666666
-0.41,0.16,10869.444444444445
-0.41,0.145,10872.222222222223
-0.415,0.16,10875.0
-0.38,0.17,10877.777777777777
-0.36,0.185,10880.555555555555
-0.35,0.175,10883.333333333334
-0.33,0.16,10886.111111111111
-0.32,0.155,10888.888888888889
-0.32,0.16,10891.666666666666
-0.3,0.175,10894.444444444445
-0.275,0.195,10897.222222222223
-0.255,0.17,10900.0
-0.245,0.16,10902.777777777777
-0.24,0.16,10905.555555555555
-0.235,0.15,10908.333333333334
-0.23,0.16,10911.111111111111
-0.215,0.17,10913.888888888889
-0.19,0.155,10916.666666666666
-0.175,0.145,10919.444444444445
-0.175,0.14,10922.222222222223
-0.16,0.135,10925.0
-0.145,0.14,10927.777777777777
-0.13,0.135,10930.555555555555
-0.115,0.135,10933.333333333334
-0.12,0.12,10936.111111111111
-0.125,0.115,10938.888888888889
-0.14,0.12,10941.666666666666
-0.13,0.125,10944.444444444445
-0.135,0.125,10947.222222222223
-0.14,0.115,10950.0
-0.14,0.1,10952.777777777777
-0.155,0.095,10955.555555555555
-0.17,0.1,10958.333333333334
-0.17,0.105,10961.111111111111
-0.165,0.11,10963.888888888889
-0.175,0.12,10966.666666666666
-0.185,0.11,10969.444444444445
-0.2,0.1,10972.222222222223
-0.205,0.09,10975.0
-0.205,0.1,10977.777777777777
-0.205,0.11,10980.555555555555
-0.21,0.115,10983.333333333334
-0.22,0.095,10986.111111111111
-0.24,0.1,10988.888888888889
-0.255,0.11,10991.666666666666
-0.25,0.115,10994.444444444445
-0.24,0.12,10997.222222222223
-0.245,0.115,11000.0
-0.245,0.095,11002.777777777777
-0.245,0.105,11005.555555555555
-0.265,0.105,11008.333333333334
-0.255,0.11,11011.111111111111
-0.25,0.12,11013.888888888889
-0.245,0.11,11016.666666666666
-0.25,0.11,11019.444444444445
-0.255,0.1,11022.222222222223
-0.275,0.11,11025.0
-0.265,0.11,11027.777777777777
-0.27,0.125,11030.555555555555
-0.285,0.11,11033.333333333334
-0.265,0.1,11036.111111111111
-0.27,0.095,11038.888888888889
-0.28,0.095,11041.666666666666
-0.275,0.095,11044.444444444445
-0.275,0.115,11047.222222222223
-0.26,0.095,11050.0
-0.27,0.095,11052.777777777777
-0.275,0.085,11055.555555555555
-0.29,0.085,11058.333333333334
-0.27,0.09,11061.111111111111
-0.275,0.1,11063.888888888889
-0.27,0.085,11066.666666666666
-0.275,0.075,11069.444444444445
-0.28,0.075,11072.222222222223
-0.28,0.06,11075.0
-0.285,0.075,11077.777777777777
-0.27,0.08,11080.555555555555
-0.27,0.085,11083.333333333334
-0.265,0.075,11086.111111111111
-0.275,0.07,11088.888888888889
-0.295,0.07,11091.666666666666
-0.27,0.075,11094.444444444445
-0.26,0.08,11097.222222222223
-0.26,0.075,11100.0
-0.265,0.07,11102.777777777777
-0.275,0.065,11105.555555555555
-0.295,0.07,11108.333333333334
-0.28,0.075,11111.111111111111
-0.26,0.085,11113.888888888889
-0.25,0.075,11116.666666666666
-0.265,0.06,11119.444444444445
-0.27,0.05,11122.222222222223
-0.285,0.055,11125.0
-0.285,0.07,11127.777777777777
-0.275,0.085,11130.555555555555
-0.255,0.085,11133.333333333334
-0.265,0.07,11136.111111111111
-0.275,0.06,11138.888888888889
-0.285,0.065,11141.666666666666
-0.29,0.07,11144.444444444445
-0.28,0.08,11147.222222222223
-0.275,0.08,11150.0
-0.27,0.07,11152.777777777777
-0.265,0.065,11155.555555555555
-0.28,0.065,11158.333333333334
-0.27,0.07,11161.111111111111
-0.26,0.08,11163.888888888889
-0.265,0.075,11166.666666666666
-0.26,0.065,11169.444444444445
-0.25,0.065,11172.222222222223
-0.26,0.07,11175.0
-0.265,0.095,11177.777777777777
-0.255,0.11,11180.555555555555
-0.255,0.13,11183.333333333334
-0.235,0.135,11186.111111111111
-0.22,0.145,11188.888888888889
-0.21,0.16,11191.666666666666
-0.175,0.175,11194.444444444445
-0.15,0.18,11197.222222222223
-0.15,0.17,11200.0
-0.17,0.16,11202.777777777777
-0.175,0.165,11205.555555555555
-0.205,0.155,11208.333333333334
-0.195,0.15,11211.111111111111
-0.17,0.145,11213.888888888889
-0.135,0.125,11216.666666666666
-0.115,0.115,11219.444444444445
-0.12,0.105,11222.222222222223
-0.1,0.115,11225.0
-0.1,0.13,11227.777777777777
-0.08,0.13,11230.555555555555
-0.06,0.095,11233.333333333334
-0.06,0.085,11236.111111111111
-0.07,0.085,11238.888888888889
-0.09,0.085,11241.666666666666
-0.095,0.1,11244.444444444445
-0.09,0.1,11247.222222222223
-0.09,0.1,11250.0
-0.105,0.08,11252.777777777777
-0.13,0.055,11255.555555555555
-0.165,0.045,11258.333333333334
-0.2,0.05,11261.111111111111
-0.24,0.06,11263.888888888889
-0.275,0.07,11266.666666666666
-0.315,0.06,11269.444444444445
-0.33,0.055,11272.222222222223
-0.34,0.05,11275.0
-0.335,0.06,11277.777777777777
-0.325,0.05,11280.555555555555
-0.33,0.05,11283.333333333334
-0.325,0.04,11286.111111111111
-0.345,0.04,11288.888888888889
-0.355,0.025,11291.666666666666
-0.33,0.04,11294.444444444445
-0.325,0.055,11297.222222222223
-0.32,0.06,11300.0
-0.325,0.03,11302.777777777777
-0.315,0.045,11305.555555555555
-0.335,0.03,11308.333333333334
-0.325,0.04,11311.111111111111
-0.315,0.065,11313.888888888889
-0.325,0.065,11316.666666666666
-0.32,0.04,11319.444444444445
-0.32,0.035,11322.222222222223
-0.32,0.045,11325.0
-0.31,0.04,11327.777777777777
-0.295,0.055,11330.555555555555
-0.3,0.05,11333.333333333334
-0.3,0.03,11336.111111111111
-0.295,0.015,11338.888888888889
-0.315,0.02,11341.666666666666
-0.3,0.03,11344.444444444445
-0.285,0.035,11347.222222222223
-0.28,0.02,11350.0
-0.29,0.005,11352.777777777777
-0.31,-0.01,11355.555555555555
-0.3,-0.04,11358.333333333334
-0.255,-0.07,11361.111111111111
-0.16,-0.105,11363.888888888889
-0.03,-0.17,11366.666666666666
0.115,-0.255,11369.444444444445
0.29,-0.345,11372.222222222223
0.47,-0.41,11375.0
0.65,-0.46,11377.777777777777
0.81,-0.46,11380.555555555555
0.945,-0.445,11383.333333333334
1.03,-0.4,11386.111111111111
1.105,-0.345,11388.888888888889
1.17,-0.3,11391.666666666666
1.23,-0.275,11394.444444444445
1.16,-0.24,11397.222222222223
1.04,-0.21,11400.0
0.9,-0.175,11402.777777777777
0.78,-0.155,11405.555555555555
0.645,-0.115,11408.333333333334
0.515,-0.05,11411.111111111111
0.375,-0.005,11413.888888888889
0.255,0.0,11416.666666666666
0.175,0.03,11419.444444444445
0.1,0.035,11422.222222222223
0.01,0.05,11425.0
-0.08,0.065,11427.777777777777
-0.15,0.085,11430.555555555555
-0.215,0.095,11433.333333333334
-0.275,0.1,11436.111111111111
-0.33,0.11,11438.888888888889
-0.38,0.125,11441.666666666666
-0.42,0.15,11444.444444444445
-0.43,0.155,11447.222222222223
-0.44,0.14,11450.0
-0.465,0.125,11452.777777777777
-0.485,0.12,11455.555555555555
-0.5,0.105,11458.333333333334
-0.525,0.125,11461.111111111111
-0.52,0.14,11463.888888888889
-0.51,0.14,11466.666666666666
-0.5,0.14,11469.444444444445
-0.515,0.13,11472.222222222223
-0.525,0.13,11475.0
-0.525,0.125,11477.777777777777
-0.51,0.15,11480.555555555555
-0.5,0.14,11483.333333333334
-0.49,0.15,11486.111111111111
-0.495,0.135,11488.888888888889
