MLII,V1,time_ms
-0.31,0.195,0.0
-0.31,0.195,2.7777777777777777
-0.31,0.195,5.555555555555555
-0.31,0.195,8.333333333333334
-0.31,0.195,11.11111111111111
-0.31,0.195,13.88888888888889
-0.31,0.195,16.666666666666668
-0.31,0.195,19.444444444444443
-0.29,0.195,22.22222222222222
-0.285,0.175,25.0
-0.295,0.175,27.77777777777778
-0.315,0.17,30.555555555555557
-0.305,0.17,33.333333333333336
-0.3,0.185,36.111111111111114
-0.28,0.185,38.888888888888886
-0.275,0.175,41.666666666666664
-0.275,0.17,44.44444444444444
-0.27,0.17,47.22222222222222
-0.26,0.195,50.0
-0.24,0.21,52.77777777777778
-0.225,0.205,55.55555555555556
-0.215,0.205,58.333333333333336
-0.205,0.16,61.111111111111114
-0.22,0.12,63.888888888888886
-0.205,0.115,66.66666666666667
-0.17,0.12,69.44444444444444
-0.15,0.145,72.22222222222223
-0.155,0.145,75.0
-0.14,0.145,77.77777777777777
-0.13,0.125,80.55555555555556
-0.115,0.12,83.33333333333333
-0.075,0.14,86.11111111111111
-0.05,0.135,88.88888888888889
-0.06,0.13,91.66666666666667
-0.05,0.13,94.44444444444444
-0.04,0.125,97.22222222222223
-0.015,0.145,100.0
0.005,0.145,102.77777777777777
0.03,0.15,105.55555555555556
0.045,0.125,108.33333333333333
0.07,0.11,111.11111111111111
0.08,0.12,113.88888888888889
0.105,0.145,116.66666666666667
0.13,0.17,119.44444444444444
0.185,0.17,122.22222222222223
0.225,0.165,125.0
0.255,0.155,127.77777777777777
0.27,0.13,130.55555555555554
0.305,0.12,133.33333333333334
0.345,0.12,136.11111111111111
0.4,0.115,138.88888888888889
0.43,0.105,141.66666666666666
0.46,0.08,144.44444444444446
0.46,0.065,147.22222222222223
0.475,0.085,150.0
0.52,0.09,152.77777777777777
0.555,0.11,155.55555555555554
0.585,0.1,158.33333333333334
0.575,0.095,161.11111111111111
0.575,0.095,163.88888888888889
0.565,0.105,166.66666666666666
0.57,0.125,169.44444444444446
0.56,0.115,172.22222222222223
0.55,0.12,175.0
0.53,0.115,177.77777777777777
0.485,0.125,180.55555555555554
0.48,0.14,183.33333333333334
0.465,0.155,186.11111111111111
0.46,0.15,188.88888888888889
0.42,0.11,191.66666666666666
0.385,0.105,194.44444444444446
0.355,0.085,197.22222222222223
0.305,0.08,200.0
0.285,0.1,202.77777777777777
0.255,0.1,205.55555555555554
0.21,0.115,208.33333333333334
0.165,0.115,211.11111111111111
0.12,0.13,213.88888888888889
0.105,0.15,216.66666666666666
0.085,0.17,219.44444444444446
0.075,0.16,222.22222222222223
0.04,0.135,225.0
0.005,0.115,227.77777777777777
-0.04,0.1,230.55555555555554
-0.045,0.09,233.33333333333334
-0.055,0.1,236.11111111111111
-0.04,0.105,238.88888888888889
-0.07,0.105,241.66666666666666
-0.1,0.105,244.44444444444446
-0.125,0.115,247.22222222222223
-0.135,0.15,250.0
-0.14,0.175,252.77777777777777
-0.155,0.145,255.55555555555554
-0.19,0.12,258.3333333333333
-0.19,0.095,261.1111111111111
-0.195,0.1,263.8888888888889
-0.205,0.135,266.6666666666667
-0.2,0.145,269.44444444444446
-0.215,0.165,272.22222222222223
-0.25,0.15,275.0
-0.285,0.12,277.77777777777777
-0.295,0.105,280.55555555555554
-0.29,0.115,283.3333333333333
-0.285,0.14,286.1111111111111
-0.265,0.145,288.8888888888889
-0.27,0.135,291.6666666666667
-0.285,0.12,294.44444444444446
-0.33,0.13,297.22222222222223
-0.35,0.135,300.0
-0.35,0.165,302.77777777777777
-0.31,0.17,305.55555555555554
-0.3,0.17,308.3333333333333
-0.305,0.165,311.1111111111111
-0.33,0.15,313.8888888888889
-0.35,0.145,316.6666666666667
-0.34,0.14,319.44444444444446
-0.335,0.13,322.22222222222223
-0.335,0.11,325.0
-0.33,0.1,327.77777777777777
-0.34,0.115,330.55555555555554
-0.345,0.12,333.3333333333333
-0.335,0.15,336.1111111111111
-0.335,0.17,338.8888888888889
-0.33,0.2,341.6666666666667
-0.325,0.19,344.44444444444446
-0.34,0.175,347.22222222222223
-0.34,0.165,350.0
-0.335,0.17,352.77777777777777
-0.315,0.165,355.55555555555554
-0.31,0.15,358.3333333333333
-0.315,0.105,361.1111111111111
-0.33,0.11,363.8888888888889
-0.32,0.11,366.6666666666667
-0.315,0.125,369.44444444444446
-0.28,0.12,372.22222222222223
-0.275,0.11,375.0
-0.28,0.095,377.77777777777777
-0.28,0.115,380.55555555555554
-0.275,0.155,383.3333333333333
-0.25,0.195,386.1111111111111
-0.23,0.18,388.8888888888889
-0.23,0.15,391.6666666666667
-0.245,0.115,394.44444444444446
-0.26,0.085,397.22222222222223
-0.25,0.095,400.0
-0.235,0.105,402.77777777777777
-0.215,0.125,405.55555555555554
-0.21,0.1,408.3333333333333
-0.25,0.105,411.1111111111111
-0.285,0.11,413.8888888888889
-0.28,0.135,416.6666666666667
-0.245,0.16,419.44444444444446
-0.235,0.145,422.22222222222223
-0.235,0.125,425.0
-0.26,0.08,427.77777777777777
-0.255,0.075,430.55555555555554
-0.26,0.1,433.3333333333333
-0.245,0.125,436.1111111111111
-0.215,0.125,438.8888888888889
-0.23,0.13,441.6666666666667
-0.245,0.125,444.44444444444446
-0.275,0.13,447.22222222222223
-0.295,0.145,450.0
-0.28,0.16,452.77777777777777
-0.255,0.145,455.55555555555554
-0.25,0.135,458.3333333333333
-0.265,0.11,461.1111111111111
-0.3,0.1,463.8888888888889
-0.29,0.115,466.6666666666667
-0.29,0.135,469.44444444444446
-0.26,0.145,472.22222222222223
-0.265,0.11,475.0
-0.275,0.1,477.77777777777777
-0.28,0.095,480.55555555555554
-0.285,0.09,483.3333333333333
-0.265,0.115,486.1111111111111
-0.24,0.125,488.8888888888889
-0.265,0.14,491.6666666666667
-0.295,0.14,494.44444444444446
-0.33,0.13,497.22222222222223
-0.34,0.13,500.0
-0.295,0.115,502.77777777777777
-0.285,0.105,505.55555555555554
-0.295,0.12,508.3333333333333
-0.33,0.095,511.1111111111111
-0.345,0.105,513.8888888888889
-0.345,0.12,516.6666666666666
-0.32,0.12,519.4444444444445
-0.31,0.105,522.2222222222222
-0.335,0.085,525.0
-0.34,0.075,527.7777777777778
-0.35,0.08,530.5555555555555
-0.34,0.115,533.3333333333334
-0.35,0.155,536.1111111111111
-0.315,0.16,538.8888888888889
-0.335,0.16,541.6666666666666
-0.345,0.13,544.4444444444445
-0.325,0.095,547.2222222222222
-0.32,0.07,550.0
-0.3,0.095,552.7777777777778
-0.305,0.105,555.5555555555555
-0.305,0.105,558.3333333333334
-0.325,0.09,561.1111111111111
-0.355,0.08,563.8888888888889
-0.37,0.1,566.6666666666666
-0.35,0.105,569.4444444444445
-0.345,0.12,572.2222222222222
-0.325,0.115,575.0
-0.355,0.1,577.7777777777778
-0.365,0.09,580.5555555555555
-0.355,0.105,583.3333333333334
-0.365,0.12,586.1111111111111
-0.35,0.14,588.8888888888889
-0.345,0.13,591.6666666666666
-0.34,0.12,594.4444444444445
-0.355,0.11,597.2222222222222
-0.35,0.1,600.0
-0.34,0.085,602.7777777777778
-0.345,0.095,605.5555555555555
-0.345,0.09,608.3333333333334
-0.36,0.09,611.1111111111111
-0.36,0.09,613.8888888888889
-0.355,0.09,616.6666666666666
-0.34,0.095,619.4444444444445
-0.33,0.1,622.2222222222222
-0.34,0.09,625.0
-0.35,0.085,627.7777777777778
-0.37,0.065,630.5555555555555
-0.36,0.1,633.3333333333334
-0.345,0.105,636.1111111111111
-0.36,0.11,638.8888888888889
-0.37,0.115,641.6666666666666
-0.37,0.11,644.4444444444445
-0.37,0.105,647.2222222222222
-0.375,0.11,650.0
-0.36,0.125,652.7777777777778
-0.355,0.115,655.5555555555555
-0.355,0.11,658.3333333333334
-0.365,0.09,661.1111111111111
-0.39,0.095,663.8888888888889
-0.39,0.095,666.6666666666666
-0.38,0.12,669.4444444444445
-0.365,0.125,672.2222222222222
-0.385,0.11,675.0
-0.38,0.105,677.7777777777778
-0.375,0.1,680.5555555555555
-0.375,0.09,683.3333333333334
-0.355,0.09,686.1111111111111
-0.34,0.1,688.8888888888889
-0.335,0.08,691.6666666666666
-0.335,0.06,694.4444444444445
-0.35,0.05,697.2222222222222
-0.365,0.06,700.0
-0.375,0.09,702.7777777777778
-0.365,0.095,705.5555555555555
-0.37,0.1,708.3333333333334
-0.375,0.095,711.1111111111111
-0.395,0.105,713.8888888888889
-0.4,0.12,716.6666666666666
-0.38,0.135,719.4444444444445
-0.35,0.125,722.2222222222222
-0.345,0.105,725.0
-0.345,0.075,727.7777777777778
-0.35,0.065,730.5555555555555
-0.36,0.085,733.3333333333334
-0.355,0.11,736.1111111111111
-0.345,0.115,738.8888888888889
-0.365,0.11,741.6666666666666
-0.395,0.075,744.4444444444445
-0.4,0.05,747.2222222222222
-0.395,0.05,750.0
-0.35,0.065,752.7777777777778
-0.325,0.07,755.5555555555555
-0.335,0.075,758.3333333333334
-0.35,0.075,761.1111111111111
-0.385,0.09,763.8888888888889
-0.37,0.11,766.6666666666666
-0.36,0.135,769.4444444444445
-0.345,0.145,772.2222222222222
-0.33,0.12,775.0
-0.335,0.09,777.7777777777778
-0.34,0.055,780.5555555555555
-0.36,0.065,783.3333333333334
-0.34,0.065,786.1111111111111
-0.335,0.06,788.8888888888889
-0.345,0.075,791.6666666666666
-0.39,0.09,794.4444444444445
-0.4,0.075,797.2222222222222
-0.395,0.08,800.0
-0.36,0.075,802.7777777777778
-0.345,0.095,805.5555555555555
-0.345,0.09,808.3333333333334
-0.345,0.09,811.1111111111111
-0.34,0.1,813.8888888888889
-0.35,0.12,816.6666666666666
-0.315,0.12,819.4444444444445
-0.29,0.09,822.2222222222222
-0.3,0.07,825.0
-0.32,0.055,827.7777777777778
-0.325,0.06,830.5555555555555
-0.305,0.07,833.3333333333334
-0.31,0.1,836.1111111111111
-0.28,0.11,838.8888888888889
-0.265,0.14,841.6666666666666
-0.245,0.175,844.4444444444445
-0.235,0.175,847.2222222222222
-0.185,0.16,850.0
-0.1,0.125,852.7777777777778
-0.005,0.06,855.5555555555555
0.035,0.01,858.3333333333334
0.01,-0.015,861.1111111111111
-0.03,0.0,863.8888888888889
-0.07,0.04,866.6666666666666
-0.09,0.075,869.4444444444445
-0.1,0.095,872.2222222222222
-0.115,0.09,875.0
-0.135,0.065,877.7777777777778
-0.16,0.06,880.5555555555555
-0.185,0.065,883.3333333333334
-0.18,0.065,886.1111111111111
-0.185,0.075,888.8888888888889
-0.225,0.07,891.6666666666666
-0.235,0.04,894.4444444444445
-0.26,0.035,897.2222222222222
-0.29,0.04,900.0
-0.305,0.06,902.7777777777778
-0.315,0.085,905.5555555555555
-0.36,0.085,908.3333333333334
-0.385,0.09,911.1111111111111
-0.385,0.08,913.8888888888889
-0.38,0.095,916.6666666666666
-0.355,0.11,919.4444444444445
-0.335,0.105,922.2222222222222
-0.32,0.09,925.0
-0.32,0.065,927.7777777777778
-0.335,0.045,930.5555555555555
-0.33,0.04,933.3333333333334
-0.335,0.07,936.1111111111111
-0.33,0.075,938.8888888888889
-0.34,0.045,941.6666666666666
-0.37,0.04,944.4444444444445
-0.425,0.005,947.2222222222222
-0.465,0.025,950.0
-0.46,0.055,952.7777777777778
-0.32,0.09,955.5555555555555
-0.035,0.075,958.3333333333334
0.4,0.035,961.1111111111111
0.895,0.015,963.8888888888889
1.335,0.035,966.6666666666666
1.685,0.1,969.4444444444445
1.9,0.165,972.2222222222222
2.01,0.2,975.0
1.98,0.215,977.7777777777778
1.815,0.195,980.5555555555555
1.47,0.16,983.3333333333334
0.94,0.1,986.1111111111111
0.3,0.08,988.8888888888889
-0.34,0.05,991.6666666666666
-0.765,-0.01,994.4444444444445
-0.725,-0.075,997.2222222222222
-0.55,-0.115,1000.0
-0.45,-0.145,1002.7777777777778
-0.445,-0.14,1005.5555555555555
-0.46,-0.105,1008.3333333333334
-0.455,-0.075,1011.1111111111111
-0.435,-0.04,1013.8888888888889
-0.415,0.0,1016.6666666666666
-0.39,0.03,1019.4444444444445
-0.395,0.05,1022.2222222222222
-0.415,0.045,1025.0
-0.435,0.05,1027.7777777777778
-0.45,0.06,1030.5555555555557
-0.44,0.075,1033.3333333333333
-0.415,0.08,1036.111111111111
-0.405,0.07,1038.888888888889
-0.415,0.05,1041.6666666666667
-0.425,0.035,1044.4444444444443
-0.43,0.045,1047.2222222222222
-0.43,0.055,1050.0
-0.435,0.07,1052.7777777777778
-0.425,0.08,1055.5555555555557
-0.42,0.08,1058.3333333333333
-0.42,0.065,1061.111111111111
-0.415,0.085,1063.888888888889
-0.41,0.085,1066.6666666666667
-0.41,0.09,1069.4444444444443
-0.39,0.09,1072.2222222222222
-0.39,0.08,1075.0
-0.415,0.075,1077.7777777777778
-0.43,0.08,1080.5555555555557
-0.455,0.095,1083.3333333333333
-0.41,0.12,1086.111111111111
-0.385,0.145,1088.888888888889
-0.38,0.16,1091.6666666666667
-0.39,0.15,1094.4444444444443
-0.385,0.12,1097.2222222222222
-0.38,0.075,1100.0
-0.385,0.035,1102.7777777777778
-0.355,0.04,1105.5555555555557
-0.355,0.05,1108.3333333333333
-0.35,0.035,1111.111111111111
-0.35,0.05,1113.888888888889
-0.36,0.055,1116.6666666666667
-0.345,0.07,1119.4444444444443
-0.315,0.075,1122.2222222222222
-0.29,0.065,1125.0
-0.29,0.05,1127.7777777777778
-0.32,0.05,1130.5555555555557
-0.3,0.085,1133.3333333333333
-0.275,0.11,1136.111111111111
-0.255,0.11,1138.888888888889
-0.245,0.11,1141.6666666666667
-0.255,0.09,1144.4444444444443
-0.25,0.075,1147.2222222222222
-0.225,0.085,1150.0
-0.215,0.1,1152.7777777777778
-0.22,0.095,1155.5555555555557
-0.19,0.085,1158.3333333333333
-0.16,0.05,1161.111111111111
-0.115,0.035,1163.888888888889
-0.075,0.03,1166.6666666666667
-0.07,0.055,1169.4444444444443
-0.085,0.065,1172.2222222222222
-0.095,0.075,1175.0
-0.095,0.07,1177.7777777777778
-0.07,0.055,1180.5555555555557
-0.02,0.065,1183.3333333333333
0.01,0.07,1186.111111111111
0.035,0.06,1188.888888888889
0.015,0.055,1191.6666666666667
0.015,0.05,1194.4444444444443
0.04,0.06,1197.2222222222222
0.1,0.065,1200.0
0.145,0.07,1202.7777777777778
0.195,0.07,1205.5555555555557
0.235,0.06,1208.3333333333333
0.25,0.025,1211.111111111111
0.27,0.045,1213.888888888889
0.3,0.055,1216.6666666666667
0.355,0.07,1219.4444444444443
0.42,0.07,1222.2222222222222
0.465,0.035,1225.0
0.495,0.0,1227.7777777777778
0.515,-0.015,1230.5555555555557
0.525,0.015,1233.3333333333333
0.555,0.035,1236.111111111111
0.6,0.035,1238.888888888889
0.64,0.04,1241.6666666666667
0.65,0.005,1244.4444444444443
0.625,0.005,1247.2222222222222
0.615,0.02,1250.0
0.605,0.045,1252.7777777777778
0.645,0.05,1255.5555555555557
0.64,0.065,1258.3333333333333
0.6,0.08,1261.111111111111
0.535,0.12,1263.888888888889
0.525,0.165,1266.6666666666667
0.55,0.175,1269.4444444444443
0.565,0.135,1272.2222222222222
0.54,0.08,1275.0
0.52,0.0,1277.7777777777778
0.49,-0.055,1280.5555555555557
0.45,-0.06,1283.3333333333333
0.415,-0.03,1286.111111111111
0.365,0.0,1288.888888888889
0.295,0.03,1291.6666666666667
0.26,0.03,1294.4444444444443
0.245,0.03,1297.2222222222222
0.215,0.035,1300.0
0.165,0.075,1302.7777777777778
0.15,0.075,1305.5555555555557
0.115,0.08,1308.3333333333333
0.085,0.05,1311.111111111111
0.06,0.05,1313.888888888889
0.025,0.07,1316.6666666666667
0.03,0.125,1319.4444444444443
0.03,0.125,1322.2222222222222
0.0,0.115,1325.0
-0.04,0.1,1327.7777777777778
-0.06,0.065,1330.5555555555557
-0.095,0.055,1333.3333333333333
-0.075,0.05,1336.111111111111
-0.07,0.03,1338.888888888889
-0.075,0.005,1341.6666666666667
-0.105,-0.015,1344.4444444444443
-0.13,-0.03,1347.2222222222222
-0.14,0.005,1350.0
-0.15,0.04,1352.7777777777778
-0.135,0.07,1355.5555555555557
-0.17,0.055,1358.3333333333333
-0.195,0.04,1361.111111111111
-0.21,0.05,1363.888888888889
-0.21,0.055,1366.6666666666667
-0.195,0.055,1369.4444444444443
-0.21,0.055,1372.2222222222222
-0.21,0.055,1375.0
-0.225,0.065,1377.7777777777778
-0.245,0.095,1380.5555555555557
-0.26,0.125,1383.3333333333333
-0.25,0.12,1386.111111111111
-0.24,0.105,1388.888888888889
-0.24,0.055,1391.6666666666667
-0.245,0.035,1394.4444444444443
-0.25,0.05,1397.2222222222222
-0.255,0.075,1400.0
-0.25,0.095,1402.7777777777778
-0.23,0.095,1405.5555555555557
-0.225,0.06,1408.3333333333333
-0.225,0.03,1411.111111111111
-0.205,0.01,1413.888888888889
-0.2,0.01,1416.6666666666667
-0.215,0.03,1419.4444444444443
-0.25,0.06,1422.2222222222222
-0.285,0.07,1425.0
-0.275,0.065,1427.7777777777778
-0.255,0.045,1430.5555555555557
-0.245,0.045,1433.3333333333333
-0.22,0.065,1436.111111111111
-0.21,0.09,1438.888888888889
-0.235,0.085,1441.6666666666667
-0.26,0.07,1444.4444444444443
-0.265,0.07,1447.2222222222222
-0.26,0.08,1450.0
-0.23,0.105,1452.7777777777778
-0.185,0.1,1455.5555555555557
-0.16,0.065,1458.3333333333333
-0.19,0.065,1461.111111111111
-0.19,0.06,1463.888888888889
-0.175,0.065,1466.6666666666667
-0.16,0.065,1469.4444444444443
-0.145,0.07,1472.2222222222222
-0.145,0.075,1475.0
-0.155,0.085,1477.7777777777778
-0.16,0.07,1480.5555555555557
-0.15,0.07,1483.3333333333333
-0.14,0.075,1486.111111111111
-0.135,0.08,1488.888888888889
-0.13,0.065,1491.6666666666667
-0.14,0.04,1494.4444444444443
-0.155,0.035,1497.2222222222222
-0.17,0.035,1500.0
-0.16,0.05,1502.7777777777778
-0.155,0.055,1505.5555555555557
-0.165,0.05,1508.3333333333333
-0.17,0.035,1511.111111111111
-0.17,0.015,1513.888888888889
-0.165,0.025,1516.6666666666667
-0.155,0.035,1519.4444444444443
-0.125,0.045,1522.2222222222222
-0.13,0.03,1525.0
-0.17,0.03,1527.7777777777778
-0.205,0.05,1530.5555555555557
-0.22,0.055,1533.3333333333333
-0.21,0.07,1536.111111111111
-0.195,0.075,1538.888888888889
-0.205,0.075,1541.6666666666667
-0.21,0.05,1544.4444444444443
-0.21,0.045,1547.2222222222222
-0.185,0.07,1550.0
-0.175,0.07,1552.7777777777778
-0.18,0.095,1555.5555555555557
-0.195,0.09,1558.3333333333333
-0.2,0.08,1561.111111111111
-0.215,0.07,1563.888888888889
-0.235,0.075,1566.6666666666667
-0.225,0.075,1569.4444444444443
-0.21,0.08,1572.2222222222222
-0.225,0.08,1575.0
-0.245,0.075,1577.7777777777778
-0.245,0.06,1580.5555555555557
-0.25,0.05,1583.3333333333333
-0.255,0.075,1586.111111111111
-0.245,0.1,1588.888888888889
-0.27,0.125,1591.6666666666667
-0.27,0.125,1594.4444444444443
-0.25,0.12,1597.2222222222222
-0.255,0.105,1600.0
-0.245,0.075,1602.7777777777778
-0.215,0.035,1605.5555555555557
-0.215,0.01,1608.3333333333333
-0.245,0.005,1611.111111111111
-0.27,0.005,1613.888888888889
-0.29,0.025,1616.6666666666667
-0.285,0.03,1619.4444444444443
-0.24,0.03,1622.2222222222222
-0.235,0.01,1625.0
-0.255,0.015,1627.7777777777778
-0.275,0.035,1630.5555555555557
-0.32,0.03,1633.3333333333333
-0.305,0.045,1636.111111111111
-0.265,0.045,1638.888888888889
-0.255,0.04,1641.6666666666667
-0.26,0.025,1644.4444444444443
-0.29,0.045,1647.2222222222222
-0.335,0.055,1650.0
-0.31,0.07,1652.7777777777778
-0.265,0.075,1655.5555555555557
-0.27,0.075,1658.3333333333333
-0.305,0.09,1661.111111111111
-0.335,0.08,1663.888888888889
-0.335,0.075,1666.6666666666667
-0.315,0.07,1669.4444444444443
-0.295,0.055,1672.2222222222222
-0.29,0.035,1675.0
-0.3,0.03,1677.7777777777778
-0.31,0.02,1680.5555555555557
-0.31,0.05,1683.3333333333333
-0.3,0.065,1686.111111111111
-0.295,0.07,1688.888888888889
-0.285,0.07,1691.6666666666667
-0.29,0.07,1694.4444444444443
-0.31,0.07,1697.2222222222222
-0.32,0.095,1700.0
-0.3,0.115,1702.7777777777778
-0.285,0.11,1705.5555555555557
-0.295,0.095,1708.3333333333333
-0.3,0.075,1711.111111111111
-0.32,0.07,1713.888888888889
-0.345,0.07,1716.6666666666667
-0.3,0.07,1719.4444444444443
-0.295,0.07,1722.2222222222222
-0.3,0.065,1725.0
-0.305,0.055,1727.7777777777778
-0.305,0.045,1730.5555555555557
-0.315,0.055,1733.3333333333333
-0.31,0.085,1736.111111111111
-0.295,0.095,1738.888888888889
-0.29,0.085,1741.6666666666667
-0.32,0.065,1744.4444444444443
-0.31,0.045,1747.2222222222222
-0.315,0.05,1750.0
-0.285,0.065,1752.7777777777778
-0.27,0.07,1755.5555555555557
-0.265,0.05,1758.3333333333333
-0.275,0.03,1761.111111111111
-0.28,0.035,1763.888888888889
-0.3,0.065,1766.6666666666667
-0.335,0.095,1769.4444444444443
-0.325,0.115,1772.2222222222222
-0.325,0.1,1775.0
-0.325,0.07,1777.7777777777778
-0.33,0.075,1780.5555555555557
-0.34,0.105,1783.3333333333333
-0.31,0.12,1786.111111111111
-0.295,0.11,1788.888888888889
-0.29,0.09,1791.6666666666667
-0.29,0.055,1794.4444444444443
-0.28,0.05,1797.2222222222222
-0.275,0.065,1800.0
-0.27,0.085,1802.7777777777778
-0.26,0.105,1805.5555555555557
-0.27,0.09,1808.3333333333333
-0.295,0.07,1811.111111111111
-0.31,0.075,1813.888888888889
-0.31,0.09,1816.6666666666667
-0.295,0.105,1819.4444444444443
-0.275,0.11,1822.2222222222222
-0.285,0.1,1825.0
-0.315,0.085,1827.7777777777778
-0.315,0.08,1830.5555555555557
-0.31,0.085,1833.3333333333333
-0.295,0.085,1836.111111111111
-0.28,0.075,1838.888888888889
-0.28,0.055,1841.6666666666667
-0.285,0.045,1844.4444444444443
-0.29,0.025,1847.2222222222222
-0.295,0.04,1850.0
-0.285,0.06,1852.7777777777778
-0.285,0.085,1855.5555555555557
-0.26,0.08,1858.3333333333333
-0.275,0.085,1861.111111111111
-0.29,0.09,1863.888888888889
-0.28,0.115,1866.6666666666667
-0.285,0.165,1869.4444444444443
-0.235,0.165,1872.2222222222222
-0.21,0.15,1875.0
-0.185,0.13,1877.7777777777778
-0.175,0.12,1880.5555555555557
-0.15,0.13,1883.3333333333333
-0.11,0.14,1886.111111111111
-0.085,0.15,1888.888888888889
-0.025,0.125,1891.6666666666667
0.025,0.07,1894.4444444444443
0.06,0.04,1897.2222222222222
0.05,0.03,1900.0
0.03,0.035,1902.7777777777778
-0.005,0.06,1905.5555555555557
-0.045,0.085,1908.3333333333333
-0.095,0.09,1911.111111111111
-0.115,0.085,1913.888888888889
-0.11,0.065,1916.6666666666667
-0.11,0.05,1919.4444444444443
-0.09,0.04,1922.2222222222222
-0.1,0.03,1925.0
-0.135,0.035,1927.7777777777778
-0.18,0.05,1930.5555555555557
-0.225,0.065,1933.3333333333333
-0.24,0.085,1936.111111111111
-0.23,0.075,1938.888888888889
-0.255,0.07,1941.6666666666667
-0.285,0.055,1944.4444444444443
-0.31,0.055,1947.2222222222222
-0.31,0.05,1950.0
-0.28,0.065,1952.7777777777778
-0.26,0.065,1955.5555555555557
-0.27,0.07,1958.3333333333333
-0.285,0.07,1961.111111111111
-0.32,0.085,1963.888888888889
-0.32,0.085,1966.6666666666667
-0.3,0.09,1969.4444444444443
-0.26,0.1,1972.2222222222222
-0.265,0.085,1975.0
-0.3,0.08,1977.7777777777778
-0.37,0.065,1980.5555555555557
-0.415,0.055,1983.3333333333333
-0.45,0.055,1986.111111111111
-0.435,0.06,1988.888888888889
-0.345,0.07,1991.6666666666667
-0.13,0.055,1994.4444444444443
0.28,0.03,1997.2222222222222
0.79,0.01,2000.0
1.29,0.03,2002.7777777777778
1.65,0.09,2005.5555555555557
1.865,0.145,2008.3333333333333
1.995,0.185,2011.111111111111
2.03,0.225,2013.888888888889
1.97,0.25,2016.6666666666667
1.805,0.24,2019.4444444444443
1.44,0.185,2022.2222222222222
0.8,0.115,2025.0
0.16,0.035,2027.7777777777778
-0.48,-0.04,2030.5555555555557
-0.74,-0.085,2033.3333333333333
-0.535,-0.13,2036.111111111111
-0.355,-0.16,2038.888888888889
-0.33,-0.17,2041.6666666666667
-0.36,-0.13,2044.4444444444443
-0.39,-0.08,2047.2222222222222
-0.365,-0.015,2050.0
-0.34,0.025,2052.777777777778
-0.295,0.06,2055.5555555555557
-0.32,0.065,2058.3333333333335
-0.365,0.06,2061.1111111111113
-0.42,0.085,2063.8888888888887
-0.425,0.1,2066.6666666666665
-0.41,0.115,2069.4444444444443
-0.395,0.11,2072.222222222222
-0.395,0.1,2075.0
-0.405,0.095,2077.777777777778
-0.415,0.105,2080.5555555555557
-0.42,0.105,2083.3333333333335
-0.41,0.125,2086.1111111111113
-0.395,0.13,2088.8888888888887
-0.405,0.12,2091.6666666666665
-0.405,0.105,2094.4444444444443
-0.415,0.12,2097.222222222222
-0.4,0.135,2100.0
-0.37,0.145,2102.777777777778
-0.36,0.145,2105.5555555555557
-0.355,0.125,2108.3333333333335
-0.365,0.12,2111.1111111111113
-0.39,0.125,2113.8888888888887
-0.39,0.15,2116.6666666666665
-0.375,0.165,2119.4444444444443
-0.335,0.175,2122.222222222222
-0.325,0.14,2125.0
-0.34,0.105,2127.777777777778
-0.365,0.08,2130.5555555555557
-0.37,0.095,2133.3333333333335
-0.34,0.115,2136.1111111111113
-0.315,0.125,2138.8888888888887
-0.3,0.125,2141.6666666666665
-0.31,0.11,2144.4444444444443
-0.305,0.09,2147.222222222222
-0.3,0.095,2150.0
-0.29,0.125,2152.777777777778
-0.265,0.145,2155.5555555555557
-0.255,0.125,2158.3333333333335
-0.26,0.11,2161.1111111111113
-0.26,0.115,2163.8888888888887
-0.255,0.13,2166.6666666666665
-0.275,0.165,2169.4444444444443
-0.255,0.17,2172.222222222222
-0.24,0.17,2175.0
-0.245,0.14,2177.777777777778
-0.22,0.125,2180.5555555555557
-0.2,0.115,2183.3333333333335
-0.16,0.12,2186.1111111111113
-0.15,0.12,2188.8888888888887
-0.15,0.115,2191.6666666666665
-0.145,0.145,2194.4444444444443
-0.135,0.14,2197.222222222222
-0.115,0.135,2200.0
-0.1,0.135,2202.777777777778
-0.08,0.11,2205.5555555555557
-0.045,0.095,2208.3333333333335
-0.025,0.075,2211.1111111111113
-0.01,0.075,2213.8888888888887
0.015,0.075,2216.6666666666665
0.05,0.095,2219.4444444444443
0.095,0.085,2222.222222222222
0.12,0.075,2225.0
0.125,0.055,2227.777777777778
0.13,0.06,2230.5555555555557
0.165,0.075,2233.3333333333335
0.22,0.1,2236.1111111111113
0.275,0.115,2238.8888888888887
0.31,0.105,2241.6666666666665
0.35,0.085,2244.4444444444443
0.375,0.08,2247.222222222222
0.395,0.08,2250.0
0.425,0.095,2252.777777777778
0.48,0.105,2255.5555555555557
0.545,0.095,2258.3333333333335
0.575,0.07,2261.1111111111113
0.57,0.07,2263.8888888888887
0.575,0.07,2266.6666666666665
0.6,0.075,2269.4444444444443
0.64,0.075,2272.222222222222
0.635,0.075,2275.0
0.615,0.06,2277.777777777778
0.615,0.045,2280.5555555555557
0.605,0.03,2283.3333333333335
0.61,0.02,2286.1111111111113
0.6,0.04,2288.8888888888887
0.575,0.055,2291.6666666666665
0.515,0.04,2294.4444444444443
0.495,0.035,2297.222222222222
0.44,0.055,2300.0
0.44,0.08,2302.777777777778
0.445,0.08,2305.5555555555557
0.41,0.095,2308.3333333333335
0.34,0.09,2311.1111111111113
0.265,0.065,2313.8888888888887
0.245,0.065,2316.6666666666665
0.23,0.09,2319.4444444444443
0.215,0.105,2322.222222222222
0.175,0.1,2325.0
0.125,0.11,2327.777777777778
0.055,0.105,2330.5555555555557
0.035,0.085,2333.3333333333335
0.015,0.11,2336.1111111111113
0.01,0.13,2338.8888888888887
-0.015,0.1,2341.6666666666665
-0.04,0.085,2344.4444444444443
-0.045,0.055,2347.222222222222
-0.07,0.06,2350.0
-0.055,0.095,2352.777777777778
-0.06,0.1,2355.5555555555557
-0.09,0.11,2358.3333333333335
-0.125,0.095,2361.1111111111113
-0.165,0.095,2363.8888888888887
-0.21,0.095,2366.6666666666665
-0.2,0.105,2369.4444444444443
-0.2,0.115,2372.222222222222
-0.205,0.115,2375.0
-0.22,0.1,2377.777777777778
-0.255,0.105,2380.5555555555557
-0.255,0.095,2383.3333333333335
-0.27,0.1,2386.1111111111113
-0.265,0.105,2388.8888888888887
-0.255,0.095,2391.6666666666665
-0.25,0.1,2394.4444444444443
-0.275,0.105,2397.222222222222
-0.285,0.13,2400.0
-0.295,0.14,2402.777777777778
-0.29,0.13,2405.5555555555557
-0.275,0.095,2408.3333333333335
-0.28,0.065,2411.1111111111113
-0.3,0.06,2413.8888888888887
-0.31,0.07,2416.6666666666665
-0.315,0.1,2419.4444444444443
-0.32,0.11,2422.222222222222
-0.285,0.11,2425.0
-0.325,0.1,2427.777777777778
-0.34,0.105,2430.5555555555557
-0.355,0.115,2433.3333333333335
-0.35,0.15,2436.1111111111113
-0.34,0.16,2438.8888888888887
-0.335,0.15,2441.6666666666665
-0.335,0.125,2444.4444444444443
-0.345,0.115,2447.222222222222
-0.325,0.115,2450.0
-0.33,0.115,2452.777777777778
-0.345,0.135,2455.5555555555557
-0.345,0.12,2458.3333333333335
-0.36,0.13,2461.1111111111113
-0.33,0.14,2463.8888888888887
-0.32,0.14,2466.6666666666665
-0.33,0.16,2469.4444444444443
-0.325,0.145,2472.222222222222
-0.33,0.105,2475.0
-0.335,0.08,2477.777777777778
-0.315,0.095,2480.5555555555557
-0.31,0.12,2483.3333333333335
-0.3,0.115,2486.1111111111113
-0.27,0.105,2488.8888888888887
-0.27,0.075,2491.6666666666665
-0.275,0.075,2494.4444444444443
-0.29,0.07,2497.222222222222
-0.295,0.105,2500.0
-0.3,0.115,2502.777777777778
-0.28,0.115,2505.5555555555557
-0.295,0.105,2508.3333333333335
-0.285,0.09,2511.1111111111113
-0.295,0.09,2513.8888888888887
-0.28,0.1,2516.6666666666665
-0.26,0.11,2519.4444444444443
-0.27,0.115,2522.222222222222
-0.285,0.11,2525.0
-0.3,0.1,2527.777777777778
-0.29,0.105,2530.5555555555557
-0.29,0.115,2533.3333333333335
-0.29,0.125,2536.1111111111113
-0.275,0.135,2538.8888888888887
-0.3,0.12,2541.6666666666665
-0.305,0.105,2544.4444444444443
-0.29,0.095,2547.222222222222
-0.29,0.1,2550.0
-0.28,0.12,2552.777777777778
-0.28,0.125,2555.5555555555557
-0.27,0.13,2558.3333333333335
-0.295,0.115,2561.1111111111113
-0.305,0.12,2563.8888888888887
-0.32,0.135,2566.6666666666665
-0.32,0.14,2569.4444444444443
-0.3,0.135,2572.222222222222
-0.29,0.12,2575.0
-0.285,0.11,2577.777777777778
-0.3,0.095,2580.5555555555557
-0.305,0.095,2583.3333333333335
-0.305,0.11,2586.1111111111113
-0.3,0.11,2588.8888888888887
-0.315,0.105,2591.6666666666665
-0.32,0.09,2594.4444444444443
-0.315,0.095,2597.222222222222
-0.325,0.105,2600.0
-0.305,0.125,2602.777777777778
-0.27,0.12,2605.5555555555557
-0.275,0.115,2608.3333333333335
-0.29,0.09,2611.1111111111113
-0.32,0.1,2613.8888888888887
-0.32,0.1,2616.6666666666665
-0.285,0.11,2619.4444444444443
-0.26,0.115,2622.222222222222
-0.3,0.12,2625.0
-0.335,0.125,2627.777777777778
-0.355,0.14,2630.5555555555557
-0.34,0.16,2633.3333333333335
-0.31,0.14,2636.1111111111113
-0.295,0.135,2638.8888888888887
-0.295,0.12,2641.6666666666665
-0.31,0.1,2644.4444444444443
-0.33,0.105,2647.222222222222
-0.355,0.11,2650.0
-0.33,0.105,2652.777777777778
-0.325,0.105,2655.5555555555557
-0.315,0.08,2658.3333333333335
-0.33,0.07,2661.1111111111113
-0.34,0.08,2663.8888888888887
-0.34,0.1,2666.6666666666665
-0.3,0.12,2669.4444444444443
-0.275,0.125,2672.222222222222
-0.295,0.1,2675.0
-0.33,0.095,2677.777777777778
-0.365,0.075,2680.5555555555557
-0.36,0.085,2683.3333333333335
-0.33,0.105,2686.1111111111113
-0.315,0.1,2688.8888888888887
-0.31,0.11,2691.6666666666665
-0.315,0.095,2694.4444444444443
-0.335,0.09,2697.222222222222
-0.34,0.115,2700.0
-0.325,0.13,2702.777777777778
-0.32,0.13,2705.5555555555557
-0.31,0.12,2708.3333333333335
-0.32,0.115,2711.1111111111113
-0.305,0.095,2713.8888888888887
-0.31,0.09,2716.6666666666665
-0.31,0.09,2719.4444444444443
-0.315,0.085,2722.222222222222
-0.315,0.075,2725.0
-0.325,0.075,2727.777777777778
-0.33,0.075,2730.5555555555557
-0.345,0.105,2733.3333333333335
-0.32,0.13,2736.1111111111113
-0.3,0.13,2738.8888888888887
-0.3,0.135,2741.6666666666665
-0.305,0.135,2744.4444444444443
-0.32,0.15,2747.222222222222
-0.32,0.165,2750.0
-0.305,0.165,2752.777777777778
-0.31,0.145,2755.5555555555557
-0.34,0.095,2758.3333333333335
-0.365,0.075,2761.1111111111113
-0.365,0.085,2763.8888888888887
-0.34,0.115,2766.6666666666665
-0.325,0.15,2769.4444444444443
-0.325,0.17,2772.222222222222
-0.31,0.095,2775.0
-0.315,0.04,2777.777777777778
-0.305,0.015,2780.5555555555557
-0.29,0.025,2783.3333333333335
-0.285,0.025,2786.1111111111113
-0.285,0.025,2788.8888888888887
-0.31,0.03,2791.6666666666665
-0.32,0.035,2794.4444444444443
-0.3,0.065,2797.222222222222
-0.29,0.09,2800.0
-0.285,0.105,2802.777777777778
-0.33,0.1,2805.5555555555557
-0.35,0.095,2808.3333333333335
-0.355,0.095,2811.1111111111113
-0.34,0.115,2813.8888888888887
-0.32,0.115,2816.6666666666665
-0.32,0.12,2819.4444444444443
-0.315,0.115,2822.222222222222
-0.33,0.115,2825.0
-0.33,0.09,2827.777777777778
-0.325,0.08,2830.5555555555557
-0.295,0.055,2833.3333333333335
-0.29,0.045,2836.1111111111113
-0.295,0.04,2838.8888888888887
-0.28,0.045,2841.6666666666665
-0.33,0.06,2844.4444444444443
-0.33,0.1,2847.222222222222
-0.33,0.115,2850.0
-0.3,0.11,2852.777777777778
-0.29,0.085,2855.5555555555557
-0.29,0.06,2858.3333333333335
-0.295,0.05,2861.1111111111113
-0.315,0.07,2863.8888888888887
-0.325,0.085,2866.6666666666665
-0.285,0.095,2869.4444444444443
-0.28,0.085,2872.222222222222
-0.26,0.095,2875.0
-0.265,0.105,2877.777777777778
-0.25,0.12,2880.5555555555557
-0.205,0.135,2883.3333333333335
-0.165,0.155,2886.1111111111113
-0.14,0.165,2888.8888888888887
-0.135,0.155,2891.6666666666665
-0.14,0.13,2894.4444444444443
-0.105,0.125,2897.222222222222
-0.075,0.13,2900.0
0.01,0.145,2902.777777777778
0.035,0.15,2905.5555555555557
0.035,0.115,2908.3333333333335
0.025,0.075,2911.1111111111113
-0.01,0.04,2913.8888888888887
-0.03,0.045,2916.6666666666665
-0.07,0.05,2919.4444444444443
-0.105,0.055,2922.222222222222
-0.115,0.055,2925.0
-0.125,0.05,2927.777777777778
-0.16,0.065,2930.5555555555557
-0.165,0.085,2933.3333333333335
-0.17,0.105,2936.1111111111113
-0.185,0.105,2938.8888888888887
-0.21,0.105,2941.6666666666665
-0.25,0.11,2944.4444444444443
-0.265,0.095,2947.222222222222
-0.275,0.09,2950.0
-0.275,0.085,2952.777777777778
-0.305,0.07,2955.5555555555557
-0.285,0.065,2958.3333333333335
-0.275,0.075,2961.1111111111113
-0.25,0.075,2963.8888888888887
-0.245,0.075,2966.6666666666665
-0.26,0.075,2969.4444444444443
-0.295,0.075,2972.222222222222
-0.305,0.08,2975.0
-0.325,0.075,2977.777777777778
-0.34,0.09,2980.5555555555557
-0.345,0.1,2983.3333333333335
-0.36,0.115,2986.1111111111113
-0.39,0.095,2988.8888888888887
-0.435,0.06,2991.6666666666665
-0.43,0.025,2994.4444444444443
-0.285,0.02,2997.222222222222
0.02,0.06,3000.0
0.47,0.075,3002.777777777778
1.005,0.1,3005.5555555555557
1.47,0.11,3008.3333333333335
1.77,0.135,3011.1111111111113
1.95,0.17,3013.8888888888887
2.03,0.195,3016.6666666666665
2.01,0.215,3019.4444444444443
1.865,0.215,3022.222222222222
1.535,0.17,3025.0
0.95,0.1,3027.777777777778
0.31,0.05,3030.5555555555557
-0.33,-0.02,3033.3333333333335
-0.75,-0.07,3036.1111111111113
-0.615,-0.13,3038.8888888888887
-0.415,-0.17,3041.6666666666665
-0.355,-0.165,3044.4444444444443
-0.385,-0.125,3047.222222222222
-0.405,-0.045,3050.0
-0.365,0.015,3052.777777777778
-0.33,0.05,3055.5555555555557
-0.335,0.075,3058.3333333333335
-0.35,0.075,3061.1111111111113
-0.39,0.1,3063.8888888888887
-0.41,0.13,3066.6666666666665
-0.41,0.15,3069.4444444444443
-0.415,0.15,3072.222222222222
-0.39,0.125,3075.0
-0.39,0.095,3077.777777777778
-0.38,0.085,3080.5555555555557
-0.385,0.105,3083.3333333333335
-0.38,0.125,3086.1111111111113
-0.395,0.125,3088.8888888888887
-0.415,0.105,3091.6666666666665
-0.435,0.105,3094.4444444444443
-0.425,0.12,3097.222222222222
-0.405,0.145,3100.0
-0.385,0.175,3102.777777777778
-0.39,0.155,3105.5555555555557
-0.395,0.15,3108.3333333333335
-0.4,0.115,3111.1111111111113
-0.405,0.125,3113.8888888888887
-0.39,0.125,3116.6666666666665
-0.375,0.125,3119.4444444444443
-0.385,0.11,3122.222222222222
-0.37,0.11,3125.0
-0.36,0.11,3127.777777777778
-0.355,0.12,3130.5555555555557
-0.335,0.12,3133.3333333333335
-0.315,0.125,3136.1111111111113
-0.33,0.13,3138.8888888888887
-0.36,0.115,3141.6666666666665
-0.355,0.105,3144.4444444444443
-0.35,0.125,3147.222222222222
-0.345,0.135,3150.0
-0.305,0.135,3152.777777777778
-0.295,0.135,3155.5555555555557
-0.26,0.115,3158.3333333333335
-0.295,0.115,3161.1111111111113
-0.3,0.135,3163.8888888888887
-0.29,0.17,3166.6666666666665
-0.265,0.185,3169.4444444444443
-0.255,0.165,3172.222222222222
-0.24,0.12,3175.0
-0.25,0.105,3177.777777777778
-0.25,0.12,3180.5555555555557
-0.235,0.16,3183.3333333333335
-0.22,0.17,3186.1111111111113
-0.185,0.145,3188.8888888888887
-0.165,0.105,3191.6666666666665
-0.15,0.07,3194.4444444444443
-0.155,0.075,3197.222222222222
-0.13,0.105,3200.0
-0.12,0.15,3202.777777777778
-0.105,0.155,3205.5555555555557
-0.095,0.13,3208.3333333333335
-0.06,0.1,3211.1111111111113
-0.04,0.09,3213.8888888888887
0.0,0.11,3216.6666666666665
0.02,0.105,3219.4444444444443
0.03,0.09,3222.222222222222
0.05,0.07,3225.0
0.06,0.06,3227.777777777778
0.095,0.07,3230.5555555555557
0.125,0.085,3233.3333333333335
0.17,0.11,3236.1111111111113
0.2,0.105,3238.8888888888887
0.245,0.09,3241.6666666666665
0.255,0.085,3244.4444444444443
0.285,0.095,3247.222222222222
0.33,0.1,3250.0
0.375,0.095,3252.777777777778
0.4,0.085,3255.5555555555557
0.42,0.075,3258.3333333333335
0.42,0.055,3261.1111111111113
0.455,0.055,3263.8888888888887
0.5,0.07,3266.6666666666665
0.54,0.07,3269.4444444444443
0.56,0.08,3272.222222222222
0.56,0.08,3275.0
0.58,0.085,3277.777777777778
0.58,0.075,3280.5555555555557
0.585,0.07,3283.3333333333335
0.595,0.075,3286.1111111111113
0.585,0.07,3288.8888888888887
0.56,0.055,3291.6666666666665
0.525,0.05,3294.4444444444443
0.49,0.085,3297.222222222222
0.475,0.12,3300.0
0.455,0.125,3302.777777777778
0.435,0.1,3305.5555555555557
0.41,0.06,3308.3333333333335
0.355,0.035,3311.1111111111113
0.285,0.04,3313.8888888888887
0.245,0.08,3316.6666666666665
0.205,0.1,3319.4444444444443
0.175,0.085,3322.222222222222
0.15,0.075,3325.0
0.145,0.075,3327.777777777778
0.12,0.095,3330.5555555555557
0.06,0.125,3333.3333333333335
0.03,0.165,3336.1111111111113
-0.005,0.145,3338.8888888888887
-0.05,0.125,3341.6666666666665
-0.065,0.09,3344.4444444444443
-0.06,0.085,3347.222222222222
-0.065,0.075,3350.0
-0.08,0.085,3352.777777777778
-0.095,0.075,3355.5555555555557
-0.125,0.075,3358.3333333333335
-0.15,0.065,3361.1111111111113
-0.16,0.09,3363.8888888888887
-0.16,0.09,3366.6666666666665
-0.16,0.095,3369.4444444444443
-0.185,0.095,3372.222222222222
-0.22,0.08,3375.0
-0.25,0.085,3377.777777777778
-0.245,0.12,3380.5555555555557
-0.245,0.13,3383.3333333333335
-0.245,0.14,3386.1111111111113
-0.265,0.14,3388.8888888888887
-0.27,0.12,3391.6666666666665
-0.275,0.105,3394.4444444444443
-0.26,0.1,3397.222222222222
-0.255,0.11,3400.0
-0.26,0.105,3402.777777777778
-0.3,0.125,3405.5555555555557
-0.335,0.11,3408.3333333333335
-0.345,0.115,3411.1111111111113
-0.325,0.11,3413.8888888888887
-0.315,0.125,3416.6666666666665
-0.29,0.12,3419.4444444444443
-0.29,0.1,3422.222222222222
-0.31,0.08,3425.0
-0.33,0.075,3427.777777777778
-0.34,0.09,3430.5555555555557
-0.335,0.09,3433.3333333333335
-0.32,0.115,3436.1111111111113
-0.32,0.1,3438.8888888888887
-0.33,0.08,3441.6666666666665
-0.335,0.075,3444.4444444444443
-0.34,0.085,3447.222222222222
-0.32,0.11,3450.0
-0.285,0.12,3452.777777777778
-0.265,0.115,3455.5555555555557
-0.28,0.12,3458.3333333333335
-0.29,0.095,3461.1111111111113
-0.315,0.095,3463.8888888888887
-0.305,0.11,3466.6666666666665
-0.28,0.11,3469.4444444444443
-0.29,0.115,3472.222222222222
-0.3,0.115,3475.0
-0.305,0.11,3477.777777777778
-0.29,0.13,3480.5555555555557
-0.275,0.13,3483.3333333333335
-0.27,0.15,3486.1111111111113
-0.28,0.185,3488.8888888888887
-0.295,0.16,3491.6666666666665
-0.315,0.145,3494.4444444444443
-0.28,0.12,3497.222222222222
-0.24,0.11,3500.0
-0.225,0.11,3502.777777777778
-0.245,0.11,3505.5555555555557
-0.255,0.105,3508.3333333333335
-0.26,0.085,3511.1111111111113
-0.265,0.075,3513.8888888888887
-0.27,0.09,3516.6666666666665
-0.25,0.11,3519.4444444444443
-0.245,0.12,3522.222222222222
-0.25,0.125,3525.0
-0.25,0.11,3527.777777777778
-0.255,0.1,3530.5555555555557
-0.255,0.11,3533.3333333333335
-0.225,0.1,3536.1111111111113
-0.215,0.1,3538.8888888888887
-0.25,0.075,3541.6666666666665
-0.255,0.095,3544.4444444444443
-0.255,0.095,3547.222222222222
-0.245,0.12,3550.0
-0.23,0.11,3552.777777777778
-0.225,0.115,3555.5555555555557
-0.235,0.105,3558.3333333333335
-0.245,0.11,3561.1111111111113
-0.24,0.1,3563.8888888888887
-0.25,0.095,3566.6666666666665
-0.265,0.095,3569.4444444444443
-0.275,0.08,3572.222222222222
-0.29,0.08,3575.0
-0.295,0.075,3577.777777777778
-0.31,0.075,3580.5555555555557
-0.3,0.095,3583.3333333333335
-0.29,0.11,3586.1111111111113
-0.285,0.125,3588.8888888888887
-0.29,0.12,3591.6666666666665
-0.305,0.095,3594.4444444444443
-0.3,0.08,3597.222222222222
-0.29,0.08,3600.0
-0.295,0.075,3602.777777777778
-0.305,0.09,3605.5555555555557
-0.31,0.105,3608.3333333333335
-0.315,0.095,3611.1111111111113
-0.32,0.1,3613.8888888888887
-0.285,0.105,3616.6666666666665
-0.275,0.12,3619.4444444444443
-0.28,0.095,3622.222222222222
-0.295,0.075,3625.0
-0.3,0.055,3627.777777777778
-0.31,0.045,3630.5555555555557
-0.295,0.05,3633.3333333333335
-0.29,0.075,3636.1111111111113
-0.305,0.09,3638.8888888888887
-0.32,0.1,3641.6666666666665
-0.335,0.11,3644.4444444444443
-0.32,0.1,3647.222222222222
-0.31,0.11,3650.0
-0.305,0.095,3652.777777777778
-0.3,0.085,3655.5555555555557
-0.315,0.07,3658.3333333333335
-0.33,0.06,3661.1111111111113
-0.345,0.085,3663.8888888888887
-0.335,0.1,3666.6666666666665
-0.32,0.11,3669.4444444444443
-0.31,0.1,3672.222222222222
-0.325,0.08,3675.0
-0.345,0.08,3677.777777777778
-0.37,0.085,3680.5555555555557
-0.345,0.105,3683.3333333333335
-0.325,0.12,3686.1111111111113
-0.325,0.12,3688.8888888888887
-0.325,0.105,3691.6666666666665
-0.335,0.09,3694.4444444444443
-0.335,0.095,3697.222222222222
-0.315,0.09,3700.0
-0.3,0.095,3702.777777777778
-0.315,0.065,3705.5555555555557
-0.31,0.055,3708.3333333333335
-0.315,0.05,3711.1111111111113
-0.33,0.08,3713.8888888888887
-0.32,0.1,3716.6666666666665
-0.3,0.12,3719.4444444444443
-0.315,0.12,3722.222222222222
-0.325,0.095,3725.0
-0.335,0.075,3727.777777777778
-0.325,0.09,3730.5555555555557
-0.315,0.125,3733.3333333333335
-0.315,0.15,3736.1111111111113
-0.31,0.11,3738.8888888888887
-0.35,0.09,3741.6666666666665
-0.36,0.075,3744.4444444444443
-0.345,0.065,3747.222222222222
-0.32,0.065,3750.0
-0.295,0.08,3752.777777777778
-0.29,0.07,3755.5555555555557
-0.295,0.06,3758.3333333333335
-0.32,0.035,3761.1111111111113
-0.325,0.045,3763.8888888888887
-0.325,0.08,3766.6666666666665
-0.32,0.095,3769.4444444444443
-0.34,0.105,3772.222222222222
-0.33,0.095,3775.0
-0.33,0.075,3777.777777777778
-0.335,0.075,3780.5555555555557
-0.305,0.075,3783.3333333333335
-0.31,0.085,3786.1111111111113
-0.295,0.075,3788.8888888888887
-0.325,0.075,3791.6666666666665
-0.34,0.075,3794.4444444444443
-0.34,0.095,3797.222222222222
-0.315,0.12,3800.0
-0.305,0.14,3802.777777777778
-0.31,0.13,3805.5555555555557
-0.32,0.1,3808.3333333333335
-0.33,0.095,3811.1111111111113
-0.325,0.1,3813.8888888888887
-0.31,0.11,3816.6666666666665
-0.29,0.085,3819.4444444444443
-0.295,0.035,3822.222222222222
-0.31,0.005,3825.0
-0.305,-0.01,3827.777777777778
-0.305,0.015,3830.5555555555557
-0.295,0.05,3833.3333333333335
-0.285,0.075,3836.1111111111113
-0.29,0.07,3838.8888888888887
-0.285,0.07,3841.6666666666665
-0.295,0.06,3844.4444444444443
-0.31,0.06,3847.222222222222
-0.315,0.06,3850.0
-0.315,0.08,3852.777777777778
-0.33,0.055,3855.5555555555557
-0.325,0.065,3858.3333333333335
-0.335,0.05,3861.1111111111113
-0.32,0.06,3863.8888888888887
-0.3,0.075,3866.6666666666665
-0.275,0.095,3869.4444444444443
-0.26,0.08,3872.222222222222
-0.265,0.07,3875.0
-0.295,0.075,3877.777777777778
-0.3,0.095,3880.5555555555557
-0.29,0.13,3883.3333333333335
-0.235,0.17,3886.1111111111113
-0.225,0.165,3888.8888888888887
-0.19,0.15,3891.6666666666665
-0.19,0.14,3894.4444444444443
-0.155,0.13,3897.222222222222
-0.085,0.115,3900.0
-0.02,0.1,3902.777777777778
0.055,0.065,3905.5555555555557
0.07,0.035,3908.3333333333335
0.025,0.015,3911.1111111111113
0.005,0.01,3913.8888888888887
-0.02,0.015,3916.6666666666665
-0.06,0.035,3919.4444444444443
-0.08,0.045,3922.222222222222
-0.085,0.04,3925.0
-0.115,0.04,3927.777777777778
-0.135,0.04,3930.5555555555557
-0.14,0.06,3933.3333333333335
-0.175,0.065,3936.1111111111113
-0.21,0.08,3938.8888888888887
-0.235,0.075,3941.6666666666665
-0.265,0.065,3944.4444444444443
-0.285,0.055,3947.222222222222
-0.295,0.055,3950.0
-0.305,0.075,3952.777777777778
-0.33,0.08,3955.5555555555557
-0.325,0.065,3958.3333333333335
-0.325,0.08,3961.1111111111113
-0.33,0.065,3963.8888888888887
-0.31,0.04,3966.6666666666665
-0.31,0.04,3969.4444444444443
-0.315,0.04,3972.222222222222
-0.345,0.06,3975.0
-0.35,0.065,3977.777777777778
-0.335,0.05,3980.5555555555557
-0.315,0.055,3983.3333333333335
-0.31,0.05,3986.1111111111113
-0.325,0.05,3988.8888888888887
-0.39,0.03,3991.6666666666665
-0.48,0.02,3994.4444444444443
-0.5,0.015,3997.222222222222
-0.445,0.02,4000.0
-0.265,0.035,4002.777777777778
0.02,0.025,4005.5555555555557
0.455,0.03,4008.3333333333335
0.94,0.05,4011.1111111111113
1.42,0.1,4013.8888888888887
1.73,0.125,4016.6666666666665
1.92,0.145,4019.4444444444443
2.01,0.135,4022.222222222222
1.99,0.15,4025.0
1.825,0.18,4027.777777777778
1.48,0.175,4030.5555555555557
0.95,0.15,4033.3333333333335
0.31,0.1,4036.1111111111113
-0.33,0.01,4038.8888888888887
-0.755,-0.085,4041.6666666666665
-0.7,-0.155,4044.4444444444443
-0.51,-0.195,4047.222222222222
-0.42,-0.185,4050.0
-0.41,-0.16,4052.777777777778
-0.415,-0.105,4055.5555555555557
-0.39,-0.08,4058.3333333333335
-0.405,-0.055,4061.1111111111113
-0.405,-0.015,4063.8888888888887
-0.425,0.035,4066.6666666666665
-0.41,0.075,4069.4444444444443
-0.41,0.06,4072.222222222222
-0.41,0.07,4075.0
-0.425,0.055,4077.777777777778
-0.435,0.04,4080.5555555555557
-0.43,0.045,4083.3333333333335
-0.425,0.06,4086.1111111111113
-0.43,0.07,4088.8888888888887
-0.435,0.07,4091.6666666666665
-0.45,0.08,4094.4444444444443
-0.465,0.1,4097.222222222223
-0.445,0.12,4100.0
-0.435,0.095,4102.777777777777
-0.43,0.06,4105.555555555556
-0.45,0.035,4108.333333333333
-0.465,0.045,4111.111111111111
-0.47,0.085,4113.888888888889
-0.455,0.09,4116.666666666667
-0.42,0.095,4119.444444444444
-0.42,0.1,4122.222222222223
-0.41,0.09,4125.0
-0.425,0.065,4127.777777777777
-0.415,0.06,4130.555555555556
-0.395,0.08,4133.333333333333
-0.375,0.07,4136.111111111111
-0.39,0.07,4138.888888888889
-0.405,0.055,4141.666666666667
-0.4,0.06,4144.444444444444
-0.4,0.07,4147.222222222223
-0.395,0.09,4150.0
-0.405,0.11,4152.777777777777
-0.38,0.09,4155.555555555556
-0.35,0.065,4158.333333333333
-0.345,0.06,4161.111111111111
-0.345,0.07,4163.888888888889
-0.32,0.085,4166.666666666667
-0.3,0.085,4169.444444444444
-0.32,0.085,4172.222222222223
-0.34,0.075,4175.0
-0.355,0.07,4177.777777777777
-0.35,0.07,4180.555555555556
-0.33,0.07,4183.333333333333
-0.285,0.095,4186.111111111111
-0.265,0.07,4188.888888888889
-0.28,0.075,4191.666666666667
-0.285,0.08,4194.444444444444
-0.275,0.085,4197.222222222223
-0.245,0.09,4200.0
-0.215,0.095,4202.777777777777
-0.205,0.055,4205.555555555556
-0.2,0.03,4208.333333333333
-0.185,0.015,4211.111111111111
-0.18,0.03,4213.888888888889
-0.16,0.05,4216.666666666667
-0.14,0.05,4219.444444444444
-0.125,0.03,4222.222222222223
-0.115,0.02,4225.0
-0.105,0.02,4227.777777777777
-0.1,0.03,4230.555555555556
-0.08,0.04,4233.333333333333
-0.045,0.065,4236.111111111111
-0.045,0.065,4238.888888888889
-0.03,0.07,4241.666666666667
0.005,0.055,4244.444444444444
0.035,0.05,4247.222222222223
0.09,0.045,4250.0
0.13,0.06,4252.777777777777
0.175,0.065,4255.555555555556
0.18,0.07,4258.333333333333
0.19,0.07,4261.111111111111
0.235,0.055,4263.888888888889
0.265,0.06,4266.666666666667
0.345,0.04,4269.444444444444
0.39,0.01,4272.222222222223
0.395,-0.005,4275.0
0.395,0.0,4277.777777777777
0.415,0.025,4280.555555555556
0.45,0.03,4283.333333333333
0.495,0.025,4286.111111111111
0.53,0.02,4288.888888888889
0.535,0.0,4291.666666666667
0.55,-0.025,4294.444444444444
0.54,-0.015,4297.222222222223
0.545,0.015,4300.0
0.55,0.03,4302.777777777777
0.56,0.01,4305.555555555556
0.545,-0.02,4308.333333333333
0.535,-0.04,4311.111111111111
0.515,-0.035,4313.888888888889
0.49,-0.015,4316.666666666667
0.475,-0.005,4319.444444444444
0.43,-0.005,4322.222222222223
0.395,-0.015,4325.0
0.355,-0.01,4327.777777777777
0.31,0.01,4330.555555555556
0.28,0.035,4333.333333333333
0.255,0.055,4336.111111111111
0.225,0.075,4338.888888888889
0.175,0.05,4341.666666666667
0.15,0.04,4344.444444444444
0.12,0.045,4347.222222222223
0.105,0.035,4350.0
0.1,0.055,4352.777777777777
0.05,0.055,4355.555555555556
0.025,0.045,4358.333333333333
-0.01,0.04,4361.111111111111
-0.02,0.04,4363.888888888889
-0.035,0.045,4366.666666666667
-0.055,0.03,4369.444444444444
-0.08,0.02,4372.222222222223
-0.09,0.0,4375.0
-0.13,-0.005,4377.777777777777
-0.155,0.015,4380.555555555556
-0.185,0.04,4383.333333333333
-0.18,0.06,4386.111111111111
-0.19,0.05,4388.888888888889
-0.2,0.035,4391.666666666667
-0.225,0.025,4394.444444444444
-0.245,0.025,4397.222222222223
-0.24,0.05,4400.0
-0.245,0.045,4402.777777777777
-0.25,0.05,4405.555555555556
-0.28,0.045,4408.333333333333
-0.3,0.045,4411.111111111111
-0.325,0.075,4413.888888888889
-0.33,0.08,4416.666666666667
-0.315,0.07,4419.444444444444
-0.335,0.07,4422.222222222223
-0.35,0.045,4425.0
-0.37,0.04,4427.777777777777
-0.36,0.055,4430.555555555556
-0.35,0.055,4433.333333333333
-0.33,0.06,4436.111111111111
-0.325,0.055,4438.888888888889
-0.33,0.03,4441.666666666667
-0.365,0.025,4444.444444444444
-0.39,0.025,4447.222222222223
-0.395,0.04,4450.0
-0.39,0.055,4452.777777777777
-0.365,0.06,4455.555555555556
-0.37,0.055,4458.333333333333
-0.375,0.055,4461.111111111111
-0.38,0.07,4463.888888888889
-0.365,0.1,4466.666666666667
-0.345,0.09,4469.444444444444
-0.355,0.08,4472.222222222223
-0.365,0.065,4475.0
-0.37,0.07,4477.777777777777
-0.39,0.075,4480.555555555556
-0.37,0.075,4483.333333333333
-0.355,0.09,4486.111111111111
-0.35,0.085,4488.888888888889
-0.36,0.07,4491.666666666667
-0.375,0.05,4494.444444444444
-0.37,0.03,4497.222222222223
-0.37,0.04,4500.0
-0.35,0.06,4502.777777777777
-0.345,0.055,4505.555555555556
-0.345,0.045,4508.333333333333
-0.365,0.055,4511.111111111111
-0.35,0.085,4513.888888888889
-0.345,0.12,4516.666666666667
-0.335,0.12,4519.444444444444
-0.33,0.105,4522.222222222223
-0.335,0.07,4525.0
-0.32,0.055,4527.777777777777
-0.315,0.05,4530.555555555556
-0.305,0.065,4533.333333333333
-0.295,0.075,4536.111111111111
-0.305,0.1,4538.888888888889
-0.31,0.095,4541.666666666667
-0.305,0.08,4544.444444444444
-0.295,0.085,4547.222222222223
-0.29,0.07,4550.0
-0.295,0.05,4552.777777777777
-0.31,0.035,4555.555555555556
-0.325,0.01,4558.333333333333
-0.335,-0.01,4561.111111111111
-0.32,0.02,4563.888888888889
-0.29,0.035,4566.666666666667
-0.295,0.04,4569.444444444444
-0.3,0.04,4572.222222222223
-0.31,0.035,4575.0
-0.32,0.04,4577.777777777777
-0.315,0.06,4580.555555555556
-0.285,0.08,4583.333333333333
-0.26,0.075,4586.111111111111
-0.275,0.06,4588.888888888889
-0.3,0.025,4591.666666666667
-0.315,0.005,4594.444444444444
-0.31,0.02,4597.222222222223
-0.3,0.04,4600.0
-0.29,0.05,4602.777777777777
-0.3,0.045,4605.555555555556
-0.315,0.025,4608.333333333333
-0.315,0.01,4611.111111111111
-0.315,0.025,4613.888888888889
-0.315,0.055,4616.666666666667
-0.31,0.065,4619.444444444444
-0.315,0.055,4622.222222222223
-0.315,0.015,4625.0
-0.34,0.01,4627.777777777777
-0.355,0.02,4630.555555555556
-0.345,0.04,4633.333333333333
-0.33,0.04,4636.111111111111
-0.325,0.035,4638.888888888889
-0.315,0.03,4641.666666666667
-0.35,0.02,4644.444444444444
-0.345,0.015,4647.222222222223
-0.34,0.025,4650.0
-0.335,0.015,4652.777777777777
-0.34,0.015,4655.555555555556
-0.355,0.0,4658.333333333333
-0.375,0.015,4661.111111111111
-0.365,0.05,4663.888888888889
-0.35,0.07,4666.666666666667
-0.335,0.095,4669.444444444444
-0.35,0.085,4672.222222222223
-0.36,0.075,4675.0
-0.37,0.045,4677.777777777777
-0.37,0.04,4680.555555555556
-0.37,0.03,4683.333333333333
-0.355,0.015,4686.111111111111
-0.355,0.005,4688.888888888889
-0.37,0.0,4691.666666666667
-0.385,0.005,4694.444444444444
-0.375,0.015,4697.222222222223
-0.365,0.035,4700.0
-0.34,0.02,4702.777777777777
-0.345,0.015,4705.555555555556
-0.36,0.015,4708.333333333333
-0.37,0.01,4711.111111111111
-0.365,0.025,4713.888888888889
-0.36,0.02,4716.666666666667
-0.365,0.025,4719.444444444444
-0.35,0.02,4722.222222222223
-0.355,0.025,4725.0
-0.38,0.005,4727.777777777777
-0.39,0.02,4730.555555555556
-0.39,0.045,4733.333333333333
-0.365,0.055,4736.111111111111
-0.35,0.055,4738.888888888889
-0.36,0.035,4741.666666666667
-0.4,0.025,4744.444444444444
-0.415,0.03,4747.222222222223
-0.395,0.025,4750.0
-0.385,0.025,4752.777777777777
-0.385,0.015,4755.555555555556
-0.37,0.01,4758.333333333333
-0.385,0.015,4761.111111111111
-0.375,0.005,4763.888888888889
-0.375,0.02,4766.666666666667
-0.365,0.04,4769.444444444444
-0.35,0.04,4772.222222222223
-0.38,0.025,4775.0
-0.39,0.015,4777.777777777777
-0.385,0.01,4780.555555555556
-0.4,0.03,4783.333333333333
-0.365,0.045,4786.111111111111
-0.375,0.035,4788.888888888889
-0.39,0.01,4791.666666666667
-0.41,0.0,4794.444444444444
-0.395,0.005,4797.222222222223
-0.4,0.015,4800.0
-0.4,0.045,4802.777777777777
-0.405,0.05,4805.555555555556
-0.4,0.025,4808.333333333333
-0.385,0.02,4811.111111111111
-0.38,0.005,4813.888888888889
-0.365,0.005,4816.666666666667
-0.39,0.015,4819.444444444444
-0.395,0.025,4822.222222222223
-0.415,0.025,4825.0
-0.43,0.035,4827.777777777777
-0.42,0.05,4830.555555555556
-0.405,0.055,4833.333333333333
-0.39,0.04,4836.111111111111
-0.37,0.035,4838.888888888889
-0.38,0.01,4841.666666666667
-0.38,0.005,4844.444444444444
-0.395,0.005,4847.222222222223
-0.4,0.015,4850.0
-0.395,0.04,4852.777777777777
-0.385,0.035,4855.555555555556
-0.395,0.03,4858.333333333333
-0.405,0.015,4861.111111111111
-0.395,0.02,4863.888888888889
-0.4,0.035,4866.666666666667
-0.385,0.025,4869.444444444444
-0.37,0.03,4872.222222222223
-0.39,0.02,4875.0
-0.395,-0.01,4877.777777777777
-0.395,-0.005,4880.555555555556
-0.39,0.01,4883.333333333333
-0.38,0.035,4886.111111111111
-0.395,0.03,4888.888888888889
-0.42,0.035,4891.666666666667
-0.415,0.025,4894.444444444444
-0.385,0.02,4897.222222222223
-0.355,0.015,4900.0
-0.355,0.01,4902.777777777777
-0.355,0.01,4905.555555555556
-0.365,0.005,4908.333333333333
-0.38,0.005,4911.111111111111
-0.375,0.015,4913.888888888889
-0.375,0.045,4916.666666666667
-0.365,0.055,4919.444444444444
-0.37,0.05,4922.222222222223
-0.37,0.05,4925.0
-0.39,0.06,4927.777777777777
-0.385,0.06,4930.555555555556
-0.365,0.055,4933.333333333333
-0.33,0.075,4936.111111111111
-0.32,0.065,4938.888888888889
-0.3,0.085,4941.666666666667
-0.31,0.065,4944.444444444444
-0.29,0.075,4947.222222222223
-0.255,0.085,4950.0
-0.215,0.075,4952.777777777777
-0.14,0.055,4955.555555555556
-0.08,0.025,4958.333333333333
-0.065,-0.02,4961.111111111111
-0.06,-0.03,4963.888888888889
-0.085,-0.035,4966.666666666667
-0.095,-0.03,4969.444444444444
-0.125,-0.03,4972.222222222223
-0.175,-0.02,4975.0
-0.19,-0.005,4977.777777777777
-0.215,0.02,4980.555555555556
-0.22,0.025,4983.333333333333
-0.2,0.03,4986.111111111111
-0.205,0.015,4988.888888888889
-0.24,-0.01,4991.666666666667
-0.29,-0.02,4994.444444444444
-0.29,-0.015,4997.222222222223
-0.305,-0.02,5000.0
-0.31,-0.01,5002.777777777777
-0.36,0.0,5005.555555555556
-0.415,0.025,5008.333333333333
-0.455,0.035,5011.111111111111
-0.445,0.065,5013.888888888889
-0.435,0.07,5016.666666666667
-0.41,0.06,5019.444444444444
-0.4,0.04,5022.222222222223
-0.41,0.02,5025.0
-0.425,0.005,5027.777777777777
-0.435,0.03,5030.555555555556
-0.41,0.055,5033.333333333333
-0.39,0.04,5036.111111111111
-0.37,0.01,5038.888888888889
-0.385,-0.03,5041.666666666667
-0.405,-0.035,5044.444444444444
-0.43,-0.015,5047.222222222223
-0.47,0.005,5050.0
-0.51,0.01,5052.777777777777
-0.53,-0.01,5055.555555555556
-0.505,-0.025,5058.333333333333
-0.405,-0.03,5061.111111111111
-0.15,-0.025,5063.888888888889
0.285,-0.01,5066.666666666667
0.83,-0.015,5069.444444444444
1.33,-0.005,5072.222222222223
1.675,0.035,5075.0
1.85,0.065,5077.777777777777
1.94,0.11,5080.555555555556
1.955,0.165,5083.333333333333
1.86,0.21,5086.111111111111
1.595,0.185,5088.888888888889
1.1,0.11,5091.666666666667
0.46,0.045,5094.444444444444
-0.18,-0.005,5097.222222222223
-0.82,-0.04,5100.0
-0.83,-0.08,5102.777777777777
-0.65,-0.13,5105.555555555556
-0.54,-0.185,5108.333333333333
-0.54,-0.23,5111.111111111111
-0.545,-0.21,5113.888888888889
-0.53,-0.16,5116.666666666667
-0.5,-0.105,5119.444444444444
-0.505,-0.055,5122.222222222223
-0.5,-0.035,5125.0
-0.53,-0.01,5127.777777777777
-0.51,0.02,5130.555555555556
-0.505,0.05,5133.333333333333
-0.495,0.06,5136.111111111111
-0.48,0.04,5138.888888888889
-0.51,-0.005,5141.666666666667
-0.525,-0.01,5144.444444444444
-0.52,0.01,5147.222222222223
-0.505,0.045,5150.0
-0.485,0.055,5152.777777777777
-0.495,0.03,5155.555555555556
-0.515,0.015,5158.333333333333
-0.53,0.01,5161.111111111111
-0.535,0.04,5163.888888888889
-0.525,0.07,5166.666666666667
-0.5,0.075,5169.444444444444
-0.485,0.075,5172.222222222223
-0.52,0.075,5175.0
-0.505,0.075,5177.777777777777
-0.505,0.085,5180.555555555556
-0.485,0.085,5183.333333333333
-0.475,0.075,5186.111111111111
-0.465,0.035,5188.888888888889
-0.475,0.015,5191.666666666667
-0.485,0.0,5194.444444444444
-0.485,0.015,5197.222222222223
-0.46,0.04,5200.0
-0.46,0.045,5202.777777777777
-0.49,0.035,5205.555555555556
-0.5,0.04,5208.333333333333
-0.5,0.045,5211.111111111111
-0.475,0.045,5213.888888888889
-0.455,0.065,5216.666666666667
-0.43,0.075,5219.444444444444
-0.405,0.07,5222.222222222223
-0.415,0.05,5225.0
-0.445,0.025,5227.777777777777
-0.47,0.01,5230.555555555556
-0.44,0.025,5233.333333333333
-0.395,0.03,5236.111111111111
-0.405,0.035,5238.888888888889
-0.415,0.035,5241.666666666667
-0.43,0.035,5244.444444444444
-0.42,0.03,5247.222222222223
-0.41,0.05,5250.0
-0.36,0.05,5252.777777777777
-0.335,0.07,5255.555555555556
-0.34,0.07,5258.333333333333
-0.34,0.07,5261.111111111111
-0.33,0.055,5263.888888888889
-0.305,0.055,5266.666666666667
-0.27,0.045,5269.444444444444
-0.285,0.025,5272.222222222223
-0.29,0.035,5275.0
-0.29,0.05,5277.777777777777
-0.265,0.05,5280.555555555556
-0.225,0.055,5283.333333333333
-0.175,0.035,5286.111111111111
-0.15,0.005,5288.888888888889
-0.125,-0.015,5291.666666666667
-0.135,-0.045,5294.444444444444
-0.13,-0.025,5297.222222222223
-0.135,0.02,5300.0
-0.11,0.055,5302.777777777777
-0.1,0.05,5305.555555555556
-0.065,0.04,5308.333333333333
-0.05,0.025,5311.111111111111
0.005,0.025,5313.888888888889
0.035,0.04,5316.666666666667
0.09,0.055,5319.444444444444
0.125,0.045,5322.222222222223
0.155,0.03,5325.0
0.17,0.0,5327.777777777777
0.21,-0.005,5330.555555555556
0.26,0.0,5333.333333333333
0.3,0.01,5336.111111111111
0.345,0.0,5338.888888888889
0.375,-0.025,5341.666666666667
0.405,-0.05,5344.444444444444
0.41,-0.04,5347.222222222223
0.435,-0.04,5350.0
0.47,-0.02,5352.777777777777
0.495,-0.02,5355.555555555556
0.495,-0.035,5358.333333333333
0.49,-0.02,5361.111111111111
0.485,0.0,5363.888888888889
0.495,0.04,5366.666666666667
0.52,0.04,5369.444444444444
0.52,0.015,5372.222222222223
0.5,-0.02,5375.0
0.465,-0.035,5377.777777777777
0.415,-0.02,5380.555555555556
0.41,0.02,5383.333333333333
0.4,0.025,5386.111111111111
0.385,0.0,5388.888888888889
0.355,0.0,5391.666666666667
0.29,-0.01,5394.444444444444
0.25,0.01,5397.222222222223
0.245,0.035,5400.0
0.23,0.04,5402.777777777777
0.2,0.02,5405.555555555556
0.15,0.01,5408.333333333333
0.1,0.02,5411.111111111111
0.09,0.035,5413.888888888889
0.06,0.05,5416.666666666667
0.05,0.045,5419.444444444444
0.035,0.01,5422.222222222223
0.01,-0.01,5425.0
-0.04,-0.015,5427.777777777777
-0.08,0.025,5430.555555555556
-0.08,0.055,5433.333333333333
-0.095,0.075,5436.111111111111
-0.105,0.09,5438.888888888889
-0.115,0.07,5441.666666666667
-0.15,0.05,5444.444444444444
-0.175,0.035,5447.222222222223
-0.16,0.025,5450.0
-0.155,0.015,5452.777777777777
-0.165,0.01,5455.555555555556
-0.195,0.005,5458.333333333333
-0.21,0.01,5461.111111111111
-0.23,0.03,5463.888888888889
-0.225,0.035,5466.666666666667
-0.24,0.065,5469.444444444444
-0.255,0.055,5472.222222222223
-0.265,0.04,5475.0
-0.31,0.03,5477.777777777777
-0.32,0.045,5480.555555555556
-0.31,0.08,5483.333333333333
-0.295,0.1,5486.111111111111
-0.3,0.1,5488.888888888889
-0.31,0.09,5491.666666666667
-0.32,0.075,5494.444444444444
-0.33,0.055,5497.222222222223
-0.345,0.075,5500.0
-0.36,0.065,5502.777777777777
-0.345,0.06,5505.555555555556
-0.345,0.05,5508.333333333333
-0.355,0.06,5511.111111111111
-0.35,0.08,5513.888888888889
-0.35,0.1,5516.666666666667
-0.355,0.105,5519.444444444444
-0.34,0.09,5522.222222222223
-0.355,0.085,5525.0
-0.355,0.065,5527.777777777777
-0.36,0.09,5530.555555555556
-0.33,0.115,5533.333333333333
-0.31,0.135,5536.111111111111
-0.32,0.105,5538.888888888889
-0.325,0.065,5541.666666666667
-0.335,0.055,5544.444444444444
-0.35,0.06,5547.222222222223
-0.355,0.08,5550.0
-0.355,0.105,5552.777777777777
-0.33,0.11,5555.555555555556
-0.355,0.095,5558.333333333333
-0.33,0.075,5561.111111111111
-0.335,0.065,5563.888888888889
-0.33,0.06,5566.666666666667
-0.305,0.075,5569.444444444444
-0.28,0.06,5572.222222222223
-0.275,0.03,5575.0
-0.265,0.005,5577.777777777777
-0.27,0.01,5580.555555555556
-0.26,0.025,5583.333333333333
-0.255,0.05,5586.111111111111
-0.255,0.045,5588.888888888889
-0.27,0.035,5591.666666666667
-0.275,0.03,5594.444444444444
-0.265,0.035,5597.222222222223
-0.29,0.04,5600.0
-0.26,0.075,5602.777777777777
-0.245,0.06,5605.555555555556
-0.24,0.05,5608.333333333333
-0.25,0.045,5611.111111111111
-0.255,0.06,5613.888888888889
-0.265,0.095,5616.666666666667
-0.265,0.11,5619.444444444444
-0.275,0.095,5622.222222222223
-0.27,0.09,5625.0
-0.275,0.08,5627.777777777777
-0.27,0.065,5630.555555555556
-0.26,0.07,5633.333333333333
-0.235,0.055,5636.111111111111
-0.245,0.02,5638.888888888889
-0.26,0.005,5641.666666666667
-0.28,-0.005,5644.444444444444
-0.28,0.0,5647.222222222223
-0.27,0.015,5650.0
-0.24,0.035,5652.777777777777
-0.245,0.025,5655.555555555556
-0.275,0.03,5658.333333333333
-0.285,0.025,5661.111111111111
-0.27,0.02,5663.888888888889
-0.265,0.03,5666.666666666667
-0.255,0.03,5669.444444444444
-0.28,0.03,5672.222222222223
-0.285,0.02,5675.0
-0.3,0.005,5677.777777777777
-0.3,0.02,5680.555555555556
-0.3,0.045,5683.333333333333
-0.305,0.075,5686.111111111111
-0.33,0.08,5688.888888888889
-0.315,0.08,5691.666666666667
-0.335,0.055,5694.444444444444
-0.34,0.05,5697.222222222223
-0.31,0.065,5700.0
-0.305,0.075,5702.777777777777
-0.315,0.085,5705.555555555556
-0.34,0.08,5708.333333333333
-0.355,0.075,5711.111111111111
-0.34,0.05,5713.888888888889
-0.32,0.03,5716.666666666667
-0.315,0.06,5719.444444444444
-0.335,0.035,5722.222222222223
-0.35,0.055,5725.0
-0.355,0.055,5727.777777777777
-0.335,0.035,5730.555555555556
-0.315,0.01,5733.333333333333
-0.305,0.0,5736.111111111111
-0.345,-0.005,5738.888888888889
-0.36,0.005,5741.666666666667
-0.375,0.03,5744.444444444444
-0.365,0.045,5747.222222222223
-0.36,0.065,5750.0
-0.35,0.075,5752.777777777777
-0.34,0.055,5755.555555555556
-0.34,0.03,5758.333333333333
-0.35,0.01,5761.111111111111
-0.335,0.015,5763.888888888889
-0.315,0.03,5766.666666666667
-0.32,0.04,5769.444444444444
-0.315,0.025,5772.222222222223
-0.34,0.035,5775.0
-0.39,0.04,5777.777777777777
-0.385,0.065,5780.555555555556
-0.365,0.085,5783.333333333333
-0.365,0.105,5786.111111111111
-0.36,0.1,5788.888888888889
-0.36,0.075,5791.666666666667
-0.37,0.045,5794.444444444444
-0.365,0.045,5797.222222222223
-0.35,0.045,5800.0
-0.355,0.07,5802.777777777777
-0.355,0.055,5805.555555555556
-0.36,0.055,5808.333333333333
-0.395,0.05,5811.111111111111
-0.4,0.05,5813.888888888889
-0.395,0.075,5816.666666666667
-0.385,0.095,5819.444444444444
-0.375,0.1,5822.222222222223
-0.36,0.08,5825.0
-0.39,0.07,5827.777777777777
-0.4,0.055,5830.555555555556
-0.395,0.03,5833.333333333333
-0.335,0.015,5836.111111111111
-0.33,-0.01,5838.888888888889
-0.355,-0.01,5841.666666666667
-0.38,-0.01,5844.444444444444
-0.395,0.02,5847.222222222223
-0.39,0.05,5850.0
-0.37,0.065,5852.777777777777
-0.35,0.065,5855.555555555556
-0.355,0.04,5858.333333333333
-0.35,0.005,5861.111111111111
-0.375,0.01,5863.888888888889
-0.365,0.025,5866.666666666667
-0.35,0.04,5869.444444444444
-0.33,0.04,5872.222222222223
-0.365,0.03,5875.0
-0.365,0.035,5877.777777777777
-0.36,0.035,5880.555555555556
-0.35,0.035,5883.333333333333
-0.335,0.065,5886.111111111111
-0.335,0.045,5888.888888888889
-0.365,0.035,5891.666666666667
-0.395,0.035,5894.444444444444
-0.385,0.035,5897.222222222223
-0.37,0.035,5900.0
-0.365,0.06,5902.777777777777
-0.37,0.065,5905.555555555556
-0.4,0.065,5908.333333333333
-0.41,0.085,5911.111111111111
-0.39,0.095,5913.888888888889
-0.4,0.09,5916.666666666667
-0.375,0.085,5919.444444444444
-0.37,0.07,5922.222222222223
-0.37,0.055,5925.0
-0.395,0.045,5927.777777777777
-0.38,0.055,5930.555555555556
-0.375,0.065,5933.333333333333
-0.36,0.075,5936.111111111111
-0.355,0.055,5938.888888888889
-0.35,0.035,5941.666666666667
-0.34,0.02,5944.444444444444
-0.335,0.045,5947.222222222223
-0.34,0.075,5950.0
-0.32,0.09,5952.777777777777
-0.31,0.08,5955.555555555556
-0.31,0.065,5958.333333333333
-0.31,0.06,5961.111111111111
-0.29,0.085,5963.888888888889
-0.255,0.11,5966.666666666667
-0.215,0.135,5969.444444444444
-0.185,0.125,5972.222222222223
-0.15,0.11,5975.0
-0.115,0.08,5977.777777777777
-0.075,0.05,5980.555555555556
-0.05,0.03,5983.333333333333
-0.06,0.04,5986.111111111111
-0.075,0.02,5988.888888888889
-0.12,0.015,5991.666666666667
-0.14,0.015,5994.444444444444
-0.18,0.02,5997.222222222223
-0.19,0.04,6000.0
-0.18,0.05,6002.777777777777
-0.185,0.055,6005.555555555556
-0.205,0.045,6008.333333333333
-0.23,0.05,6011.111111111111
-0.255,0.065,6013.888888888889
-0.265,0.06,6016.666666666667
-0.28,0.065,6019.444444444444
-0.295,0.035,6022.222222222223
-0.315,0.03,6025.0
-0.35,0.025,6027.777777777777
-0.365,0.05,6030.555555555556
-0.365,0.075,6033.333333333333
-0.35,0.09,6036.111111111111
-0.355,0.065,6038.888888888889
-0.38,0.05,6041.666666666667
-0.4,0.03,6044.444444444444
-0.4,0.045,6047.222222222223
-0.38,0.05,6050.0
-0.36,0.06,6052.777777777777
-0.355,0.05,6055.555555555556
-0.365,0.035,6058.333333333333
-0.38,0.025,6061.111111111111
-0.375,0.05,6063.888888888889
-0.39,0.055,6066.666666666667
-0.375,0.08,6069.444444444444
-0.395,0.07,6072.222222222223
-0.45,0.05,6075.0
-0.51,0.055,6077.777777777777
-0.48,0.05,6080.555555555556
-0.34,0.075,6083.333333333333
-0.06,0.09,6086.111111111111
0.31,0.055,6088.888888888889
0.77,0.025,6091.666666666667
1.21,0.01,6094.444444444444
1.575,0.065,6097.222222222223
1.81,0.155,6100.0
1.935,0.235,6102.777777777777
1.965,0.275,6105.555555555556
1.92,0.28,6108.333333333333
1.71,0.235,6111.111111111111
1.33,0.165,6113.888888888889
0.775,0.12,6116.666666666667
0.135,0.085,6119.444444444444
-0.495,0.0,6122.222222222223
-0.79,-0.06,6125.0
-0.72,-0.11,6127.777777777777
-0.53,-0.145,6130.555555555556
-0.44,-0.135,6133.333333333333
-0.44,-0.115,6136.111111111111
-0.45,-0.095,6138.888888888889
-0.44,-0.08,6141.666666666667
-0.42,-0.055,6144.444444444444
-0.42,0.0,6147.222222222223
-0.43,0.055,6150.0
-0.43,0.09,6152.777777777777
-0.455,0.09,6155.555555555556
-0.445,0.065,6158.333333333333
-0.46,0.055,6161.111111111111
-0.46,0.05,6163.888888888889
-0.47,0.08,6166.666666666667
-0.465,0.115,6169.444444444444
-0.445,0.115,6172.222222222223
-0.445,0.1,6175.0
-0.445,0.1,6177.777777777777
-0.465,0.1,6180.555555555556
-0.46,0.11,6183.333333333333
-0.445,0.125,6186.111111111111
-0.44,0.11,6188.888888888889
-0.465,0.095,6191.666666666667
-0.455,0.085,6194.444444444444
-0.445,0.075,6197.222222222223
-0.43,0.075,6200.0
-0.425,0.08,6202.777777777777
-0.42,0.095,6205.555555555556
-0.41,0.08,6208.333333333333
-0.415,0.065,6211.111111111111
-0.425,0.07,6213.888888888889
-0.415,0.08,6216.666666666667
-0.395,0.1,6219.444444444444
-0.4,0.1,6222.222222222223
-0.41,0.09,6225.0
-0.435,0.085,6227.777777777777
-0.435,0.085,6230.555555555556
-0.4,0.095,6233.333333333333
-0.385,0.105,6236.111111111111
-0.385,0.1,6238.888888888889
-0.395,0.095,6241.666666666667
-0.39,0.1,6244.444444444444
-0.39,0.105,6247.222222222223
-0.36,0.11,6250.0
-0.35,0.12,6252.777777777777
-0.36,0.09,6255.555555555556
-0.385,0.095,6258.333333333333
-0.37,0.08,6261.111111111111
-0.34,0.115,6263.888888888889
-0.325,0.115,6266.666666666667
-0.305,0.12,6269.444444444444
-0.305,0.125,6272.222222222223
-0.295,0.125,6275.0
-0.29,0.1,6277.777777777777
-0.29,0.105,6280.555555555556
-0.275,0.105,6283.333333333333
-0.25,0.12,6286.111111111111
-0.235,0.135,6288.888888888889
-0.245,0.125,6291.666666666667
-0.24,0.11,6294.444444444444
-0.24,0.105,6297.222222222223
-0.2,0.095,6300.0
-0.16,0.095,6302.777777777777
-0.14,0.095,6305.555555555556
-0.135,0.08,6308.333333333333
-0.13,0.075,6311.111111111111
-0.11,0.075,6313.888888888889
-0.09,0.08,6316.666666666667
-0.055,0.085,6319.444444444444
-0.04,0.09,6322.222222222223
-0.04,0.08,6325.0
-0.03,0.085,6327.777777777777
-0.005,0.07,6330.555555555556
0.05,0.07,6333.333333333333
0.085,0.07,6336.111111111111
0.095,0.065,6338.888888888889
0.14,0.065,6341.666666666667
0.14,0.065,6344.444444444444
0.165,0.08,6347.222222222223
0.21,0.105,6350.0
0.27,0.11,6352.777777777777
0.315,0.095,6355.555555555556
0.335,0.085,6358.333333333333
0.33,0.08,6361.111111111111
0.375,0.085,6363.888888888889
0.41,0.105,6366.666666666667
0.45,0.115,6369.444444444444
0.48,0.105,6372.222222222223
0.485,0.09,6375.0
0.51,0.095,6377.777777777777
0.55,0.085,6380.555555555556
0.565,0.07,6383.333333333333
0.59,0.07,6386.111111111111
0.595,0.04,6388.888888888889
0.565,0.025,6391.666666666667
0.555,0.045,6394.444444444444
0.54,0.07,6397.222222222223
0.54,0.09,6400.0
0.535,0.105,6402.777777777777
0.515,0.09,6405.555555555556
0.48,0.07,6408.333333333333
0.445,0.06,6411.111111111111
0.435,0.045,6413.888888888889
0.405,0.07,6416.666666666667
0.375,0.085,6419.444444444444
0.33,0.085,6422.222222222223
0.3,0.075,6425.0
0.24,0.055,6427.777777777777
0.21,0.075,6430.555555555556
0.17,0.08,6433.333333333333
0.17,0.09,6436.111111111111
0.145,0.08,6438.888888888889
0.1,0.07,6441.666666666667
0.04,0.055,6444.444444444444
0.02,0.07,6447.222222222223
0.005,0.085,6450.0
-0.01,0.1,6452.777777777777
-0.035,0.095,6455.555555555556
-0.06,0.09,6458.333333333333
-0.105,0.105,6461.111111111111
-0.13,0.125,6463.888888888889
-0.13,0.12,6466.666666666667
-0.12,0.12,6469.444444444444
-0.12,0.085,6472.222222222223
-0.155,0.065,6475.0
-0.185,0.05,6477.777777777777
-0.195,0.07,6480.555555555556
-0.205,0.075,6483.333333333333
-0.2,0.08,6486.111111111111
-0.225,0.08,6488.888888888889
-0.24,0.075,6491.666666666667
-0.265,0.065,6494.444444444444
-0.285,0.08,6497.222222222223
-0.28,0.085,6500.0
-0.285,0.095,6502.777777777777
-0.27,0.085,6505.555555555556
-0.295,0.08,6508.333333333333
-0.315,0.075,6511.111111111111
-0.33,0.08,6513.888888888889
-0.335,0.1,6516.666666666667
-0.335,0.115,6519.444444444444
-0.345,0.11,6522.222222222223
-0.36,0.1,6525.0
-0.375,0.09,6527.777777777777
-0.375,0.095,6530.555555555556
-0.365,0.115,6533.333333333333
-0.36,0.14,6536.111111111111
-0.345,0.15,6538.888888888889
-0.345,0.13,6541.666666666667
-0.365,0.095,6544.444444444444
-0.37,0.085,6547.222222222223
-0.38,0.1,6550.0
-0.355,0.115,6552.777777777777
-0.325,0.1,6555.555555555556
-0.33,0.095,6558.333333333333
-0.355,0.08,6561.111111111111
-0.365,0.085,6563.888888888889
-0.375,0.095,6566.666666666667
-0.355,0.095,6569.444444444444
-0.35,0.095,6572.222222222223
-0.355,0.085,6575.0
-0.36,0.08,6577.777777777777
-0.345,0.08,6580.555555555556
-0.335,0.09,6583.333333333333
-0.31,0.09,6586.111111111111
-0.325,0.09,6588.888888888889
-0.33,0.065,6591.666666666667
-0.35,0.05,6594.444444444444
-0.34,0.06,6597.222222222223
-0.345,0.08,6600.0
-0.345,0.095,6602.777777777777
-0.345,0.11,6605.555555555556
-0.335,0.095,6608.333333333333
-0.35,0.085,6611.111111111111
-0.36,0.1,6613.888888888889
-0.36,0.115,6616.666666666667
-0.335,0.135,6619.444444444444
-0.33,0.135,6622.222222222223
-0.335,0.125,6625.0
-0.335,0.115,6627.777777777777
-0.33,0.13,6630.555555555556
-0.295,0.145,6633.333333333333
-0.28,0.155,6636.111111111111
-0.3,0.125,6638.888888888889
-0.33,0.09,6641.666666666667
-0.35,0.085,6644.444444444444
-0.33,0.09,6647.222222222223
-0.315,0.125,6650.0
-0.295,0.135,6652.777777777777
-0.315,0.135,6655.555555555556
-0.31,0.115,6658.333333333333
-0.305,0.075,6661.111111111111
-0.295,0.085,6663.888888888889
-0.28,0.085,6666.666666666667
-0.265,0.11,6669.444444444444
-0.255,0.12,6672.222222222223
-0.275,0.1,6675.0
-0.295,0.11,6677.777777777777
-0.325,0.105,6680.555555555556
-0.32,0.11,6683.333333333333
-0.275,0.105,6686.111111111111
-0.265,0.08,6688.888888888889
-0.275,0.05,6691.666666666667
-0.3,0.04,6694.444444444444
-0.315,0.05,6697.222222222223
-0.315,0.08,6700.0
-0.285,0.085,6702.777777777777
-0.26,0.085,6705.555555555556
-0.28,0.08,6708.333333333333
-0.3,0.06,6711.111111111111
-0.325,0.085,6713.888888888889
-0.33,0.095,6716.666666666667
-0.315,0.125,6719.444444444444
-0.325,0.125,6722.222222222223
-0.335,0.115,6725.0
-0.34,0.115,6727.777777777777
-0.35,0.125,6730.555555555556
-0.32,0.12,6733.333333333333
-0.31,0.115,6736.111111111111
-0.305,0.095,6738.888888888889
-0.31,0.09,6741.666666666667
-0.345,0.09,6744.444444444444
-0.325,0.09,6747.222222222223
-0.315,0.085,6750.0
-0.3,0.075,6752.777777777777
-0.305,0.075,6755.555555555556
-0.33,0.055,6758.333333333333
-0.355,0.05,6761.111111111111
-0.33,0.045,6763.888888888889
-0.305,0.07,6766.666666666667
-0.31,0.09,6769.444444444444
-0.315,0.09,6772.222222222223
-0.32,0.09,6775.0
-0.34,0.07,6777.777777777777
-0.355,0.08,6780.555555555556
-0.34,0.095,6783.333333333333
-0.325,0.085,6786.111111111111
-0.315,0.09,6788.888888888889
-0.315,0.065,6791.666666666667
-0.335,0.08,6794.444444444444
-0.335,0.08,6797.222222222223
-0.32,0.09,6800.0
-0.29,0.095,6802.777777777777
-0.25,0.065,6805.555555555556
-0.28,0.035,6808.333333333333
-0.325,0.035,6811.111111111111
-0.33,0.045,6813.888888888889
-0.33,0.07,6816.666666666667
-0.32,0.075,6819.444444444444
-0.315,0.07,6822.222222222223
-0.29,0.055,6825.0
-0.255,0.06,6827.777777777777
-0.25,0.055,6830.555555555556
-0.245,0.055,6833.333333333333
-0.275,0.065,6836.111111111111
-0.27,0.065,6838.888888888889
-0.255,0.045,6841.666666666667
-0.245,0.04,6844.444444444444
-0.21,0.035,6847.222222222223
-0.205,0.07,6850.0
-0.18,0.06,6852.777777777777
-0.165,0.05,6855.555555555556
-0.195,0.05,6858.333333333333
-0.23,0.055,6861.111111111111
-0.255,0.065,6863.888888888889
-0.26,0.07,6866.666666666667
-0.27,0.09,6869.444444444444
-0.26,0.08,6872.222222222223
-0.25,0.065,6875.0
-0.235,0.05,6877.777777777777
-0.225,0.055,6880.555555555556
-0.185,0.05,6883.333333333333
-0.16,0.055,6886.111111111111
-0.125,0.06,6888.888888888889
-0.13,0.035,6891.666666666667
-0.155,0.03,6894.444444444444
-0.18,0.025,6897.222222222223
-0.19,0.055,6900.0
-0.17,0.095,6902.777777777777
-0.155,0.095,6905.555555555556
-0.15,0.07,6908.333333333333
-0.13,0.04,6911.111111111111
-0.115,0.015,6913.888888888889
-0.11,0.01,6916.666666666667
-0.11,0.01,6919.444444444444
-0.125,0.015,6922.222222222223
-0.12,0.005,6925.0
-0.145,0.005,6927.777777777777
-0.145,0.005,6930.555555555556
-0.12,0.015,6933.333333333333
-0.12,0.04,6936.111111111111
-0.1,0.035,6938.888888888889
-0.095,0.015,6941.666666666667
-0.11,0.02,6944.444444444444
-0.135,0.015,6947.222222222223
-0.125,0.035,6950.0
-0.1,0.035,6952.777777777777
-0.095,0.025,6955.555555555556
-0.125,0.02,6958.333333333333
-0.15,0.03,6961.111111111111
-0.155,0.05,6963.888888888889
-0.13,0.05,6966.666666666667
-0.11,0.07,6969.444444444444
-0.1,0.04,6972.222222222223
-0.12,0.025,6975.0
-0.12,0.02,6977.777777777777
-0.12,0.03,6980.555555555556
-0.09,0.04,6983.333333333333
-0.05,0.055,6986.111111111111
-0.04,0.065,6988.888888888889
-0.03,0.05,6991.666666666667
-0.015,0.05,6994.444444444444
-0.015,0.045,6997.222222222223
-0.02,0.08,7000.0
-0.005,0.1,7002.777777777777
0.025,0.105,7005.555555555556
0.05,0.09,7008.333333333333
0.045,0.09,7011.111111111111
0.1,0.095,7013.888888888889
0.17,0.08,7016.666666666667
0.21,0.075,7019.444444444444
0.215,0.05,7022.222222222223
0.2,0.03,7025.0
0.155,0.035,7027.777777777777
0.165,0.045,7030.555555555556
0.195,0.07,7033.333333333333
0.2,0.075,7036.111111111111
0.165,0.07,7038.888888888889
0.115,0.075,7041.666666666667
0.09,0.065,7044.444444444444
0.075,0.075,7047.222222222223
0.065,0.075,7050.0
0.05,0.085,7052.777777777777
0.0,0.085,7055.555555555556
-0.045,0.105,7058.333333333333
-0.095,0.105,7061.111111111111
-0.09,0.075,7063.888888888889
-0.055,0.08,7066.666666666667
-0.03,0.075,7069.444444444444
-0.05,0.08,7072.222222222223
-0.07,0.075,7075.0
-0.115,0.065,7077.777777777777
-0.155,0.075,7080.555555555556
-0.2,0.095,7083.333333333333
-0.225,0.115,7086.111111111111
-0.22,0.125,7088.888888888889
-0.175,0.1,7091.666666666667
-0.155,0.1,7094.444444444444
-0.15,0.1,7097.222222222223
-0.15,0.12,7100.0
-0.145,0.13,7102.777777777777
-0.165,0.115,7105.555555555556
-0.2,0.105,7108.333333333333
-0.22,0.09,7111.111111111111
-0.235,0.09,7113.888888888889
-0.25,0.08,7116.666666666667
-0.185,0.085,7119.444444444444
-0.02,0.07,7122.222222222223
0.24,0.045,7125.0
0.605,0.025,7127.777777777777
1.09,0.015,7130.555555555556
1.545,0.06,7133.333333333333
1.875,0.125,7136.111111111111
2.03,0.185,7138.888888888889
2.075,0.23,7141.666666666667
2.025,0.28,7144.444444444444
1.91,0.37,7147.222222222223
1.66,0.395,7150.0
1.2,0.365,7152.777777777777
0.56,0.285,7155.555555555556
-0.08,0.17,7158.333333333333
-0.51,0.06,7161.111111111111
-0.47,-0.01,7163.888888888889
-0.26,-0.075,7166.666666666667
-0.15,-0.115,7169.444444444444
-0.17,-0.135,7172.222222222223
-0.21,-0.12,7175.0
-0.19,-0.075,7177.777777777777
-0.17,-0.015,7180.555555555556
-0.13,0.035,7183.333333333333
-0.14,0.07,7186.111111111111
-0.12,0.06,7188.888888888889
-0.13,0.05,7191.666666666667
-0.15,0.05,7194.444444444444
-0.175,0.06,7197.222222222223
-0.165,0.08,7200.0
-0.155,0.115,7202.777777777777
-0.16,0.105,7205.555555555556
-0.19,0.1,7208.333333333333
-0.215,0.09,7211.111111111111
-0.215,0.11,7213.888888888889
-0.22,0.135,7216.666666666667
-0.22,0.17,7219.444444444444
-0.24,0.175,7222.222222222223
-0.25,0.165,7225.0
-0.25,0.155,7227.777777777777
-0.23,0.15,7230.555555555556
-0.22,0.15,7233.333333333333
-0.185,0.155,7236.111111111111
-0.165,0.14,7238.888888888889
-0.175,0.13,7241.666666666667
-0.17,0.11,7244.444444444444
-0.15,0.125,7247.222222222223
-0.145,0.145,7250.0
-0.145,0.14,7252.777777777777
-0.19,0.12,7255.555555555556
-0.22,0.115,7258.333333333333
-0.225,0.095,7261.111111111111
-0.22,0.09,7263.888888888889
-0.165,0.1,7266.666666666667
-0.13,0.095,7269.444444444444
-0.145,0.08,7272.222222222223
-0.175,0.08,7275.0
-0.185,0.085,7277.777777777777
-0.17,0.1,7280.555555555556
-0.14,0.11,7283.333333333333
-0.105,0.105,7286.111111111111
-0.11,0.11,7288.888888888889
-0.125,0.09,7291.666666666667
-0.145,0.09,7294.444444444444
-0.155,0.095,7297.222222222223
-0.095,0.115,7300.0
-0.04,0.12,7302.777777777777
0.01,0.12,7305.555555555556
0.04,0.105,7308.333333333333
0.03,0.085,7311.111111111111
0.0,0.075,7313.888888888889
-0.02,0.085,7316.666666666667
-0.04,0.11,7319.444444444444
-0.07,0.12,7322.222222222223
-0.07,0.115,7325.0
-0.06,0.1,7327.777777777777
-0.005,0.105,7330.555555555556
0.025,0.11,7333.333333333333
0.03,0.115,7336.111111111111
0.055,0.115,7338.888888888889
0.065,0.105,7341.666666666667
0.05,0.105,7344.444444444444
0.07,0.11,7347.222222222223
0.115,0.13,7350.0
0.14,0.15,7352.777777777777
0.16,0.14,7355.555555555556
0.185,0.125,7358.333333333333
0.205,0.1,7361.111111111111
0.255,0.11,7363.888888888889
0.295,0.11,7366.666666666667
0.325,0.1,7369.444444444444
0.355,0.095,7372.222222222223
0.35,0.08,7375.0
0.365,0.085,7377.777777777777
0.41,0.095,7380.555555555556
0.455,0.09,7383.333333333333
0.48,0.105,7386.111111111111
0.5,0.08,7388.888888888889
0.515,0.08,7391.666666666667
0.54,0.06,7394.444444444444
0.57,0.075,7397.222222222223
0.58,0.075,7400.0
0.625,0.105,7402.777777777777
0.635,0.085,7405.555555555556
0.65,0.075,7408.333333333333
0.665,0.065,7411.111111111111
0.69,0.06,7413.888888888889
0.71,0.065,7416.666666666667
0.71,0.085,7419.444444444444
0.71,0.075,7422.222222222223
0.69,0.07,7425.0
0.66,0.06,7427.777777777777
0.635,0.07,7430.555555555556
0.615,0.095,7433.333333333333
0.59,0.105,7436.111111111111
0.565,0.105,7438.888888888889
0.525,0.085,7441.666666666667
0.495,0.09,7444.444444444444
0.465,0.09,7447.222222222223
0.44,0.09,7450.0
0.45,0.095,7452.777777777777
0.435,0.085,7455.555555555556
0.38,0.085,7458.333333333333
0.32,0.085,7461.111111111111
0.315,0.09,7463.888888888889
0.28,0.105,7466.666666666667
0.25,0.11,7469.444444444444
0.21,0.105,7472.222222222223
0.175,0.095,7475.0
0.135,0.105,7477.777777777777
0.125,0.11,7480.555555555556
0.135,0.115,7483.333333333333
0.13,0.115,7486.111111111111
0.1,0.1,7488.888888888889
0.06,0.1,7491.666666666667
0.045,0.085,7494.444444444444
0.045,0.105,7497.222222222223
0.01,0.135,7500.0
-0.025,0.16,7502.777777777777
-0.075,0.165,7505.555555555556
-0.11,0.16,7508.333333333333
-0.13,0.135,7511.111111111111
-0.14,0.125,7513.888888888889
-0.11,0.13,7516.666666666667
-0.08,0.135,7519.444444444444
-0.08,0.12,7522.222222222223
-0.115,0.105,7525.0
-0.155,0.11,7527.777777777777
-0.175,0.115,7530.555555555556
-0.155,0.135,7533.333333333333
-0.11,0.15,7536.111111111111
-0.105,0.135,7538.888888888889
-0.13,0.12,7541.666666666667
-0.16,0.12,7544.444444444444
-0.19,0.125,7547.222222222223
-0.16,0.135,7550.0
-0.15,0.155,7552.777777777777
-0.165,0.155,7555.555555555556
-0.18,0.15,7558.333333333333
-0.19,0.15,7561.111111111111
-0.17,0.15,7563.888888888889
-0.155,0.15,7566.666666666667
-0.155,0.13,7569.444444444444
-0.145,0.135,7572.222222222223
-0.145,0.135,7575.0
-0.155,0.125,7577.777777777777
-0.165,0.13,7580.555555555556
-0.17,0.13,7583.333333333333
-0.14,0.145,7586.111111111111
-0.155,0.13,7588.888888888889
-0.18,0.13,7591.666666666667
-0.21,0.14,7594.444444444444
-0.205,0.15,7597.222222222223
-0.18,0.165,7600.0
-0.145,0.155,7602.777777777777
-0.15,0.15,7605.555555555556
-0.16,0.135,7608.333333333333
-0.2,0.125,7611.111111111111
-0.21,0.14,7613.888888888889
-0.21,0.16,7616.666666666667
-0.16,0.175,7619.444444444444
-0.14,0.175,7622.222222222223
-0.14,0.165,7625.0
-0.155,0.145,7627.777777777777
-0.145,0.14,7630.555555555556
-0.135,0.16,7633.333333333333
-0.12,0.165,7636.111111111111
-0.115,0.145,7638.888888888889
-0.135,0.14,7641.666666666667
-0.15,0.13,7644.444444444444
-0.16,0.14,7647.222222222223
-0.16,0.15,7650.0
-0.155,0.155,7652.777777777777
-0.155,0.14,7655.555555555556
-0.18,0.145,7658.333333333333
-0.195,0.115,7661.111111111111
-0.18,0.115,7663.888888888889
-0.17,0.125,7666.666666666667
-0.14,0.155,7669.444444444444
-0.15,0.14,7672.222222222223
-0.15,0.115,7675.0
-0.17,0.105,7677.777777777777
-0.185,0.115,7680.555555555556
-0.175,0.125,7683.333333333333
-0.17,0.135,7686.111111111111
-0.165,0.125,7688.888888888889
-0.18,0.12,7691.666666666667
-0.215,0.12,7694.444444444444
-0.21,0.12,7697.222222222223
-0.18,0.13,7700.0
-0.175,0.135,7702.777777777777
-0.185,0.135,7705.555555555556
-0.205,0.125,7708.333333333333
-0.19,0.12,7711.111111111111
-0.18,0.12,7713.888888888889
-0.175,0.105,7716.666666666667
-0.21,0.13,7719.444444444444
-0.225,0.125,7722.222222222223
-0.24,0.115,7725.0
-0.25,0.1,7727.777777777777
-0.255,0.1,7730.555555555556
-0.23,0.11,7733.333333333333
-0.225,0.125,7736.111111111111
-0.24,0.11,7738.888888888889
-0.255,0.105,7741.666666666667
-0.255,0.085,7744.444444444444
-0.255,0.115,7747.222222222223
-0.245,0.135,7750.0
-0.25,0.15,7752.777777777777
-0.265,0.145,7755.555555555556
-0.255,0.13,7758.333333333333
-0.295,0.105,7761.111111111111
-0.285,0.085,7763.888888888889
-0.27,0.085,7766.666666666667
-0.26,0.09,7769.444444444444
-0.275,0.095,7772.222222222223
-0.295,0.075,7775.0
-0.32,0.08,7777.777777777777
-0.315,0.08,7780.555555555556
-0.295,0.095,7783.333333333333
-0.28,0.105,7786.111111111111
-0.305,0.09,7788.888888888889
-0.355,0.095,7791.666666666667
-0.4,0.09,7794.444444444444
-0.385,0.115,7797.222222222223
-0.32,0.125,7800.0
-0.27,0.135,7802.777777777777
-0.26,0.13,7805.555555555556
-0.275,0.125,7808.333333333333
-0.31,0.11,7811.111111111111
-0.325,0.12,7813.888888888889
-0.315,0.135,7816.666666666667
-0.285,0.145,7819.444444444444
-0.285,0.12,7822.222222222223
-0.32,0.1,7825.0
-0.355,0.095,7827.777777777777
-0.355,0.115,7830.555555555556
-0.33,0.12,7833.333333333333
-0.31,0.135,7836.111111111111
-0.285,0.13,7838.888888888889
-0.285,0.105,7841.666666666667
-0.295,0.105,7844.444444444444
-0.305,0.11,7847.222222222223
-0.305,0.13,7850.0
-0.295,0.13,7852.777777777777
-0.315,0.105,7855.555555555556
-0.34,0.06,7858.333333333333
-0.37,0.05,7861.111111111111
-0.4,0.06,7863.888888888889
-0.39,0.09,7866.666666666667
-0.375,0.11,7869.444444444444
-0.345,0.1,7872.222222222223
-0.34,0.08,7875.0
-0.355,0.065,7877.777777777777
-0.335,0.055,7880.555555555556
-0.32,0.07,7883.333333333333
-0.305,0.09,7886.111111111111
-0.33,0.08,7888.888888888889
-0.385,0.09,7891.666666666667
-0.395,0.08,7894.444444444444
-0.37,0.095,7897.222222222223
-0.32,0.1,7900.0
-0.275,0.1,7902.777777777777
-0.265,0.1,7905.555555555556
-0.285,0.095,7908.333333333333
-0.32,0.085,7911.111111111111
-0.335,0.075,7913.888888888889
-0.34,0.09,7916.666666666667
-0.335,0.085,7919.444444444444
-0.345,0.08,7922.222222222223
-0.36,0.09,7925.0
-0.37,0.085,7927.777777777777
-0.365,0.09,7930.555555555556
-0.375,0.095,7933.333333333333
-0.39,0.115,7936.111111111111
-0.385,0.11,7938.888888888889
-0.39,0.09,7941.666666666667
-0.4,0.075,7944.444444444444
-0.405,0.085,7947.222222222223
-0.385,0.11,7950.0
-0.36,0.12,7952.777777777777
-0.325,0.11,7955.555555555556
-0.305,0.1,7958.333333333333
-0.315,0.1,7961.111111111111
-0.295,0.1,7963.888888888889
-0.27,0.11,7966.666666666667
-0.255,0.14,7969.444444444444
-0.21,0.16,7972.222222222223
-0.185,0.175,7975.0
-0.18,0.18,7977.777777777777
-0.135,0.165,7980.555555555556
-0.09,0.15,7983.333333333333
-0.01,0.115,7986.111111111111
0.04,0.085,7988.888888888889
0.075,0.065,7991.666666666667
0.05,0.025,7994.444444444444
0.005,0.01,7997.222222222223
-0.04,0.01,8000.0
-0.055,0.015,8002.777777777777
-0.105,0.015,8005.555555555556
-0.165,0.02,8008.333333333333
-0.225,0.04,8011.111111111111
-0.205,0.06,8013.888888888889
-0.165,0.065,8016.666666666667
-0.145,0.065,8019.444444444444
-0.19,0.07,8022.222222222223
-0.28,0.09,8025.0
-0.365,0.08,8027.777777777777
-0.415,0.095,8030.555555555556
-0.395,0.11,8033.333333333333
-0.375,0.125,8036.111111111111
-0.415,0.11,8038.888888888889
-0.46,0.095,8041.666666666667
-0.48,0.09,8044.444444444444
-0.46,0.095,8047.222222222223
-0.445,0.115,8050.0
-0.435,0.125,8052.777777777777
-0.45,0.13,8055.555555555556
-0.42,0.12,8058.333333333333
-0.42,0.095,8061.111111111111
-0.43,0.1,8063.888888888889
-0.495,0.095,8066.666666666667
-0.505,0.12,8069.444444444444
-0.495,0.115,8072.222222222223
-0.495,0.11,8075.0
-0.565,0.1,8077.777777777777
-0.625,0.11,8080.555555555556
-0.615,0.135,8083.333333333333
-0.495,0.17,8086.111111111111
-0.25,0.175,8088.888888888889
0.125,0.15,8091.666666666667
0.58,0.11,8094.444444444444
1.07,0.095,8097.222222222223
1.46,0.11,8100.0
1.705,0.17,8102.777777777777
1.845,0.19,8105.555555555556
1.9,0.215,8108.333333333333
1.83,0.255,8111.111111111111
1.625,0.32,8113.888888888889
1.175,0.355,8116.666666666667
0.535,0.325,8119.444444444444
-0.105,0.265,8122.222222222223
-0.745,0.17,8125.0
-1.035,0.04,8127.777777777777
-0.795,-0.075,8130.555555555556
-0.595,-0.165,8133.333333333333
-0.57,-0.205,8136.111111111111
-0.605,-0.175,8138.888888888889
-0.62,-0.11,8141.666666666667
-0.59,-0.03,8144.444444444444
-0.565,0.04,8147.222222222223
-0.55,0.085,8150.0
-0.55,0.115,8152.777777777777
-0.54,0.1,8155.555555555556
-0.54,0.05,8158.333333333333
-0.53,0.025,8161.111111111111
-0.525,0.025,8163.888888888889
-0.53,0.015,8166.666666666667
-0.55,0.035,8169.444444444444
-0.58,0.055,8172.222222222223
-0.58,0.09,8175.0
-0.61,0.095,8177.777777777777
-0.625,0.1,8180.555555555556
-0.64,0.1,8183.333333333333
-0.645,0.09,8186.111111111111
-0.665,0.08,8188.888888888889
-0.705,0.095,8191.666666666667
-0.725,0.12,8194.444444444445
-0.71,0.125,8197.222222222223
-0.67,0.135,8200.0
-0.645,0.125,8202.777777777777
-0.615,0.1,8205.555555555555
-0.59,0.07,8208.333333333334
-0.555,0.035,8211.111111111111
-0.55,0.015,8213.888888888889
-0.58,0.025,8216.666666666666
-0.6,0.04,8219.444444444445
-0.635,0.06,8222.222222222223
-0.635,0.07,8225.0
-0.64,0.07,8227.777777777777
-0.625,0.085,8230.555555555555
-0.62,0.095,8233.333333333334
-0.61,0.11,8236.111111111111
-0.61,0.09,8238.888888888889
-0.61,0.075,8241.666666666666
-0.595,0.065,8244.444444444445
-0.575,0.075,8247.222222222223
-0.54,0.08,8250.0
-0.53,0.09,8252.777777777777
-0.53,0.075,8255.555555555555
-0.525,0.055,8258.333333333334
-0.525,0.06,8261.111111111111
-0.5,0.05,8263.888888888889
-0.49,0.055,8266.666666666666
-0.495,0.065,8269.444444444445
-0.485,0.075,8272.222222222223
-0.465,0.06,8275.0
-0.475,0.055,8277.777777777777
-0.455,0.055,8280.555555555555
-0.435,0.07,8283.333333333334
-0.38,0.085,8286.111111111111
-0.34,0.065,8288.888888888889
-0.355,0.055,8291.666666666666
-0.41,0.035,8294.444444444445
-0.42,0.055,8297.222222222223
-0.395,0.085,8300.0
-0.34,0.105,8302.777777777777
-0.295,0.1,8305.555555555555
-0.265,0.065,8308.333333333334
-0.25,0.04,8311.111111111111
-0.225,0.045,8313.888888888889
-0.21,0.07,8316.666666666666
-0.2,0.09,8319.444444444445
-0.18,0.1,8322.222222222223
-0.145,0.1,8325.0
-0.11,0.085,8327.777777777777
-0.035,0.04,8330.555555555555
0.015,-0.01,8333.333333333334
0.045,-0.025,8336.111111111111
0.075,-0.03,8338.888888888889
0.105,-0.02,8341.666666666666
0.14,-0.035,8344.444444444445
0.17,-0.02,8347.222222222223
0.2,-0.03,8350.0
0.23,-0.045,8352.777777777777
0.265,-0.075,8355.555555555555
0.295,-0.095,8358.333333333334
0.315,-0.095,8361.111111111111
0.345,-0.075,8363.888888888889
0.375,-0.065,8366.666666666666
0.405,-0.05,8369.444444444445
0.41,-0.06,8372.222222222223
0.38,-0.065,8375.0
0.355,-0.075,8377.777777777777
0.325,-0.065,8380.555555555555
0.305,-0.03,8383.333333333334
0.265,-0.005,8386.111111111111
0.225,-0.005,8388.888888888889
0.195,-0.01,8391.666666666666
0.17,-0.005,8394.444444444445
0.15,-0.015,8397.222222222223
0.125,0.005,8400.0
0.08,0.015,8402.777777777777
0.04,0.02,8405.555555555555
0.01,0.0,8408.333333333334
-0.01,-0.005,8411.111111111111
-0.04,-0.015,8413.888888888889
-0.09,0.01,8416.666666666666
-0.13,0.05,8419.444444444445
-0.145,0.055,8422.222222222223
-0.2,0.03,8425.0
-0.245,0.01,8427.777777777777
-0.27,0.02,8430.555555555555
-0.275,0.035,8433.333333333334
-0.3,0.055,8436.111111111111
-0.31,0.03,8438.888888888889
-0.33,0.0,8441.666666666666
-0.35,0.0,8444.444444444445
-0.37,0.02,8447.222222222223
-0.39,0.02,8450.0
-0.4,0.03,8452.777777777777
-0.425,0.005,8455.555555555555
-0.46,0.005,8458.333333333334
-0.475,-0.005,8461.111111111111
-0.47,0.015,8463.888888888889
-0.465,0.03,8466.666666666666
-0.47,0.035,8469.444444444445
-0.47,0.015,8472.222222222223
-0.485,-0.005,8475.0
-0.52,-0.005,8477.777777777777
-0.545,0.02,8480.555555555555
-0.56,0.04,8483.333333333334
-0.56,0.06,8486.111111111111
-0.565,0.055,8488.888888888889
-0.57,0.03,8491.666666666666
-0.565,0.025,8494.444444444445
-0.565,0.045,8497.222222222223
-0.56,0.065,8500.0
-0.55,0.065,8502.777777777777
-0.53,0.045,8505.555555555555
-0.525,0.01,8508.333333333334
-0.55,-0.01,8511.111111111111
-0.555,0.02,8513.888888888889
-0.56,0.05,8516.666666666666
-0.53,0.065,8519.444444444445
-0.525,0.055,8522.222222222223
-0.515,0.045,8525.0
-0.52,0.03,8527.777777777777
-0.515,0.025,8530.555555555555
-0.51,0.045,8533.333333333334
-0.52,0.06,8536.111111111111
-0.515,0.055,8538.888888888889
-0.5,0.045,8541.666666666666
-0.5,0.015,8544.444444444445
-0.48,0.04,8547.222222222223
-0.465,0.06,8550.0
-0.455,0.06,8552.777777777777
-0.475,0.07,8555.555555555555
-0.49,0.07,8558.333333333334
-0.495,0.055,8561.111111111111
-0.495,0.05,8563.888888888889
-0.485,0.06,8566.666666666666
-0.465,0.05,8569.444444444445
-0.43,0.045,8572.222222222223
-0.42,0.025,8575.0
-0.41,0.02,8577.777777777777
-0.425,0.03,8580.555555555555
-0.45,0.055,8583.333333333334
-0.46,0.095,8586.111111111111
-0.45,0.095,8588.888888888889
-0.43,0.06,8591.666666666666
-0.43,0.03,8594.444444444445
-0.415,0.025,8597.222222222223
-0.41,0.035,8600.0
-0.425,0.055,8602.777777777777
-0.44,0.04,8605.555555555555
-0.465,0.035,8608.333333333334
-0.47,0.01,8611.111111111111
-0.465,0.015,8613.888888888889
-0.44,0.025,8616.666666666666
-0.4,0.03,8619.444444444445
-0.375,0.035,8622.222222222223
-0.4,0.03,8625.0
-0.44,0.015,8627.777777777777
-0.46,0.01,8630.555555555555
-0.46,0.015,8633.333333333334
-0.445,0.02,8636.111111111111
-0.46,0.03,8638.888888888889
-0.43,0.02,8641.666666666666
-0.455,0.02,8644.444444444445
-0.465,0.025,8647.222222222223
-0.455,0.025,8650.0
-0.43,0.01,8652.777777777777
-0.41,0.0,8655.555555555555
-0.435,0.0,8658.333333333334
-0.475,0.005,8661.111111111111
-0.495,0.03,8663.888888888889
-0.47,0.045,8666.666666666666
-0.445,0.06,8669.444444444445
-0.435,0.075,8672.222222222223
-0.44,0.06,8675.0
-0.45,0.03,8677.777777777777
-0.475,-0.005,8680.555555555555
-0.485,-0.02,8683.333333333334
-0.47,-0.02,8686.111111111111
-0.505,-0.03,8688.888888888889
-0.51,-0.02,8691.666666666666
-0.535,-0.02,8694.444444444445
-0.545,0.0,8697.222222222223
-0.53,0.035,8700.0
-0.515,0.055,8702.777777777777
-0.5,0.045,8705.555555555555
-0.49,0.05,8708.333333333334
-0.485,0.03,8711.111111111111
-0.485,0.025,8713.888888888889
-0.485,0.01,8716.666666666666
-0.49,0.035,8719.444444444445
-0.49,0.03,8722.222222222223
-0.515,0.04,8725.0
-0.505,0.025,8727.777777777777
-0.5,0.01,8730.555555555555
-0.48,0.0,8733.333333333334
-0.465,0.0,8736.111111111111
-0.475,0.0,8738.888888888889
-0.47,-0.02,8741.666666666666
-0.475,-0.025,8744.444444444445
-0.47,-0.015,8747.222222222223
-0.475,0.0,8750.0
-0.48,0.045,8752.777777777777
-0.455,0.04,8755.555555555555
-0.485,0.045,8758.333333333334
-0.525,0.05,8761.111111111111
-0.535,0.055,8763.888888888889
-0.515,0.01,8766.666666666666
-0.51,0.01,8769.444444444445
-0.485,0.0,8772.222222222223
-0.495,0.015,8775.0
-0.495,0.015,8777.777777777777
-0.485,0.02,8780.555555555555
-0.495,0.005,8783.333333333334
-0.48,0.02,8786.111111111111
-0.485,0.0,8788.888888888889
-0.495,0.01,8791.666666666666
-0.51,0.02,8794.444444444445
-0.505,0.02,8797.222222222223
-0.46,0.03,8800.0
-0.445,0.03,8802.777777777777
-0.44,0.01,8805.555555555555
-0.455,0.01,8808.333333333334
-0.495,0.015,8811.111111111111
-0.49,0.02,8813.888888888889
-0.485,0.025,8816.666666666666
-0.445,-0.015,8819.444444444445
-0.425,-0.035,8822.222222222223
-0.435,-0.025,8825.0
-0.45,-0.025,8827.777777777777
-0.45,0.0,8830.555555555555
-0.395,0.01,8833.333333333334
-0.36,0.005,8836.111111111111
-0.35,-0.005,8838.888888888889
-0.345,-0.015,8841.666666666666
-0.375,0.0,8844.444444444445
-0.355,0.025,8847.222222222223
-0.35,0.07,8850.0
-0.34,0.11,8852.777777777777
-0.325,0.13,8855.555555555555
-0.27,0.135,8858.333333333334
-0.22,0.13,8861.111111111111
-0.15,0.12,8863.888888888889
-0.1,0.06,8866.666666666666
-0.08,0.02,8869.444444444445
-0.085,-0.025,8872.222222222223
-0.11,-0.04,8875.0
-0.17,-0.05,8877.777777777777
-0.185,-0.03,8880.555555555555
-0.205,0.0,8883.333333333334
-0.22,0.04,8886.111111111111
-0.225,0.03,8888.888888888889
-0.275,0.005,8891.666666666666
-0.32,-0.01,8894.444444444445
-0.36,-0.01,8897.222222222223
-0.38,0.01,8900.0
-0.39,0.015,8902.777777777777
-0.385,0.02,8905.555555555555
-0.38,-0.01,8908.333333333334
-0.41,-0.025,8911.111111111111
-0.455,-0.03,8913.888888888889
-0.48,-0.005,8916.666666666666
-0.47,0.015,8919.444444444445
-0.475,0.02,8922.222222222223
-0.465,-0.005,8925.0
-0.49,-0.02,8927.777777777777
-0.495,-0.01,8930.555555555555
-0.485,0.015,8933.333333333334
-0.465,0.02,8936.111111111111
-0.45,0.015,8938.888888888889
-0.445,-0.005,8941.666666666666
-0.475,-0.02,8944.444444444445
-0.49,-0.02,8947.222222222223
-0.5,0.01,8950.0
-0.54,0.015,8952.777777777777
-0.58,0.005,8955.555555555555
-0.595,-0.035,8958.333333333334
-0.52,-0.04,8961.111111111111
-0.33,-0.025,8963.888888888889
0.01,-0.01,8966.666666666666
0.505,-0.01,8969.444444444445
1.03,-0.02,8972.222222222223
1.47,0.005,8975.0
1.72,0.05,8977.777777777777
1.855,0.105,8980.555555555555
1.915,0.185,8983.333333333334
1.885,0.25,8986.111111111111
1.735,0.28,8988.888888888889
1.35,0.23,8991.666666666666
0.71,0.135,8994.444444444445
0.07,0.055,8997.222222222223
-0.57,0.015,9000.0
-1.05,-0.035,9002.777777777777
-0.88,-0.115,9005.555555555555
-0.675,-0.2,9008.333333333334
-0.625,-0.275,9011.111111111111
-0.635,-0.26,9013.888888888889
-0.625,-0.22,9016.666666666666
-0.59,-0.155,9019.444444444445
-0.575,-0.095,9022.222222222223
-0.56,-0.065,9025.0
-0.565,-0.045,9027.777777777777
-0.575,-0.025,9030.555555555555
-0.56,0.01,9033.333333333334
-0.575,0.03,9036.111111111111
-0.57,0.035,9038.888888888889
-0.58,0.03,9041.666666666666
-0.585,0.01,9044.444444444445
-0.575,0.035,9047.222222222223
-0.555,0.035,9050.0
-0.56,0.065,9052.777777777777
-0.57,0.07,9055.555555555555
-0.595,0.06,9058.333333333334
-0.62,0.035,9061.111111111111
-0.605,0.055,9063.888888888889
-0.6,0.05,9066.666666666666
-0.575,0.075,9069.444444444445
-0.565,0.07,9072.222222222223
-0.555,0.065,9075.0
-0.57,0.07,9077.777777777777
-0.575,0.07,9080.555555555555
-0.555,0.07,9083.333333333334
-0.54,0.075,9086.111111111111
-0.525,0.045,9088.888888888889
-0.53,0.04,9091.666666666666
-0.55,0.025,9094.444444444445
-0.55,0.045,9097.222222222223
-0.535,0.07,9100.0
-0.535,0.075,9102.777777777777
-0.525,0.08,9105.555555555555
-0.505,0.075,9108.333333333334
-0.53,0.045,9111.111111111111
-0.545,0.05,9113.888888888889
-0.53,0.075,9116.666666666666
-0.515,0.115,9119.444444444445
-0.49,0.125,9122.222222222223
-0.48,0.1,9125.0
-0.475,0.07,9127.777777777777
-0.475,0.045,9130.555555555555
-0.465,0.06,9133.333333333334
-0.445,0.045,9136.111111111111
-0.405,0.015,9138.888888888889
-0.385,-0.015,9141.666666666666
-0.385,-0.05,9144.444444444445
-0.41,-0.03,9147.222222222223
-0.425,0.01,9150.0
-0.415,0.035,9152.777777777777
-0.415,0.06,9155.555555555555
-0.39,0.07,9158.333333333334
-0.365,0.07,9161.111111111111
-0.35,0.09,9163.888888888889
-0.32,0.095,9166.666666666666
-0.29,0.095,9169.444444444445
-0.275,0.09,9172.222222222223
-0.285,0.085,9175.0
-0.31,0.085,9177.777777777777
-0.285,0.085,9180.555555555555
-0.255,0.1,9183.333333333334
-0.195,0.09,9186.111111111111
-0.155,0.05,9188.888888888889
-0.12,-0.01,9191.666666666666
-0.125,-0.05,9194.444444444445
-0.1,-0.05,9197.222222222223
-0.065,-0.025,9200.0
0.005,0.0,9202.777777777777
0.055,0.015,9205.555555555555
0.08,-0.01,9208.333333333334
0.105,-0.04,9211.111111111111
0.1,-0.05,9213.888888888889
0.095,-0.03,9216.666666666666
0.115,-0.01,9219.444444444445
0.195,0.0,9222.222222222223
0.23,-0.005,9225.0
0.285,-0.02,9227.777777777777
0.305,-0.005,9230.555555555555
0.345,0.005,9233.333333333334
0.39,0.03,9236.111111111111
0.43,0.015,9238.888888888889
0.445,0.025,9241.666666666666
0.44,0.025,9244.444444444445
0.455,0.025,9247.222222222223
0.465,0.03,9250.0
0.475,0.015,9252.777777777777
0.48,0.005,9255.555555555555
0.45,-0.005,9258.333333333334
0.43,-0.025,9261.111111111111
0.39,-0.005,9263.888888888889
0.37,0.015,9266.666666666666
0.355,0.055,9269.444444444445
0.34,0.065,9272.222222222223
0.31,0.06,9275.0
0.275,0.045,9277.777777777777
0.25,0.065,9280.555555555555
0.225,0.075,9283.333333333334
0.22,0.075,9286.111111111111
0.185,0.045,9288.888888888889
0.135,0.005,9291.666666666666
0.085,0.0,9294.444444444445
0.065,0.02,9297.222222222223
0.04,0.04,9300.0
0.025,0.065,9302.777777777777
-0.03,0.06,9305.555555555555
-0.09,0.04,9308.333333333334
-0.135,0.025,9311.111111111111
-0.135,0.02,9313.888888888889
-0.155,0.03,9316.666666666666
-0.155,0.04,9319.444444444445
-0.175,0.045,9322.222222222223
-0.22,0.04,9325.0
-0.25,0.025,9327.777777777777
-0.27,0.035,9330.555555555555
-0.255,0.035,9333.333333333334
-0.255,0.055,9336.111111111111
-0.27,0.045,9338.888888888889
-0.29,0.045,9341.666666666666
-0.305,0.045,9344.444444444445
-0.335,0.05,9347.222222222223
-0.325,0.055,9350.0
-0.33,0.07,9352.777777777777
-0.36,0.08,9355.555555555555
-0.38,0.08,9358.333333333334
-0.37,0.065,9361.111111111111
-0.355,0.055,9363.888888888889
-0.35,0.05,9366.666666666666
-0.36,0.07,9369.444444444445
-0.38,0.065,9372.222222222223
-0.41,0.05,9375.0
-0.44,0.05,9377.777777777777
-0.435,0.05,9380.555555555555
-0.445,0.08,9383.333333333334
-0.47,0.115,9386.111111111111
-0.49,0.115,9388.888888888889
-0.515,0.095,9391.666666666666
-0.51,0.08,9394.444444444445
-0.495,0.07,9397.222222222223
-0.475,0.09,9400.0
-0.46,0.09,9402.777777777777
-0.445,0.08,9405.555555555555
-0.45,0.045,9408.333333333334
-0.465,0.03,9411.111111111111
-0.495,0.065,9413.888888888889
-0.475,0.085,9416.666666666666
-0.46,0.1,9419.444444444445
-0.445,0.095,9422.222222222223
-0.435,0.085,9425.0
-0.455,0.065,9427.777777777777
-0.445,0.065,9430.555555555555
-0.44,0.06,9433.333333333334
-0.405,0.065,9436.111111111111
-0.415,0.055,9438.888888888889
-0.415,0.06,9441.666666666666
-0.435,0.035,9444.444444444445
-0.45,0.07,9447.222222222223
-0.43,0.09,9450.0
-0.4,0.11,9452.777777777777
-0.4,0.095,9455.555555555555
-0.405,0.085,9458.333333333334
-0.42,0.075,9461.111111111111
-0.42,0.115,9463.888888888889
-0.415,0.125,9466.666666666666
-0.405,0.11,9469.444444444445
-0.39,0.08,9472.222222222223
-0.4,0.075,9475.0
-0.39,0.065,9477.777777777777
-0.375,0.08,9480.555555555555
-0.365,0.08,9483.333333333334
-0.345,0.06,9486.111111111111
-0.34,0.035,9488.888888888889
-0.355,0.035,9491.666666666666
-0.385,0.055,9494.444444444445
-0.38,0.085,9497.222222222223
-0.375,0.1,9500.0
-0.37,0.11,9502.777777777777
-0.355,0.065,9505.555555555555
-0.345,0.045,9508.333333333334
-0.38,0.03,9511.111111111111
-0.39,0.03,9513.888888888889
-0.375,0.045,9516.666666666666
-0.36,0.055,9519.444444444445
-0.355,0.075,9522.222222222223
-0.365,0.075,9525.0
-0.365,0.065,9527.777777777777
-0.355,0.055,9530.555555555555
-0.34,0.055,9533.333333333334
-0.35,0.05,9536.111111111111
-0.37,0.06,9538.888888888889
-0.385,0.05,9541.666666666666
-0.425,0.055,9544.444444444445
-0.405,0.065,9547.222222222223
-0.42,0.095,9550.0
-0.395,0.105,9552.777777777777
-0.39,0.1,9555.555555555555
-0.39,0.1,9558.333333333334
-0.395,0.095,9561.111111111111
-0.41,0.105,9563.888888888889
-0.39,0.115,9566.666666666666
-0.37,0.085,9569.444444444445
-0.38,0.045,9572.222222222223
-0.41,0.025,9575.0
-0.44,0.01,9577.777777777777
-0.455,0.035,9580.555555555555
-0.435,0.065,9583.333333333334
-0.41,0.075,9586.111111111111
-0.41,0.07,9588.888888888889
-0.41,0.055,9591.666666666666
-0.435,0.04,9594.444444444445
-0.455,0.05,9597.222222222223
-0.47,0.06,9600.0
-0.445,0.07,9602.777777777777
-0.42,0.065,9605.555555555555
-0.405,0.045,9608.333333333334
-0.425,0.045,9611.111111111111
-0.445,0.06,9613.888888888889
-0.445,0.06,9616.666666666666
-0.44,0.07,9619.444444444445
-0.425,0.07,9622.222222222223
-0.445,0.06,9625.0
-0.445,0.04,9627.777777777777
-0.43,0.055,9630.555555555555
-0.425,0.055,9633.333333333334
-0.425,0.08,9636.111111111111
-0.44,0.09,9638.888888888889
-0.455,0.065,9641.666666666666
-0.465,0.055,9644.444444444445
-0.48,0.065,9647.222222222223
-0.49,0.085,9650.0
-0.465,0.11,9652.777777777777
-0.45,0.095,9655.555555555555
-0.45,0.06,9658.333333333334
-0.465,0.04,9661.111111111111
-0.455,0.055,9663.888888888889
-0.44,0.085,9666.666666666666
-0.41,0.075,9669.444444444445
-0.435,0.03,9672.222222222223
-0.455,-0.005,9675.0
-0.455,-0.01,9677.777777777777
-0.46,0.015,9680.555555555555
-0.46,0.055,9683.333333333334
-0.455,0.075,9686.111111111111
-0.475,0.06,9688.888888888889
-0.475,0.04,9691.666666666666
-0.495,0.01,9694.444444444445
-0.495,0.02,9697.222222222223
-0.48,0.035,9700.0
-0.46,0.055,9702.777777777777
-0.44,0.045,9705.555555555555
-0.44,0.035,9708.333333333334
-0.465,0.045,9711.111111111111
-0.47,0.055,9713.888888888889
-0.475,0.085,9716.666666666666
-0.45,0.085,9719.444444444445
-0.455,0.065,9722.222222222223
-0.445,0.045,9725.0
-0.46,0.03,9727.777777777777
-0.47,0.03,9730.555555555555
-0.495,0.055,9733.333333333334
-0.475,0.075,9736.111111111111
-0.445,0.085,9738.888888888889
-0.435,0.075,9741.666666666666
-0.465,0.05,9744.444444444445
-0.47,0.065,9747.222222222223
-0.445,0.08,9750.0
-0.44,0.085,9752.777777777777
-0.46,0.085,9755.555555555555
-0.48,0.095,9758.333333333334
-0.475,0.075,9761.111111111111
-0.465,0.08,9763.888888888889
-0.44,0.07,9766.666666666666
-0.395,0.095,9769.444444444445
-0.39,0.1,9772.222222222223
-0.38,0.105,9775.0
-0.375,0.095,9777.777777777777
-0.34,0.11,9780.555555555555
-0.315,0.14,9783.333333333334
-0.265,0.165,9786.111111111111
-0.245,0.175,9788.888888888889
-0.2,0.17,9791.666666666666
-0.15,0.12,9794.444444444445
-0.115,0.095,9797.222222222223
-0.1,0.1,9800.0
-0.1,0.105,9802.777777777777
-0.1,0.115,9805.555555555555
-0.095,0.095,9808.333333333334
-0.1,0.07,9811.111111111111
-0.145,0.06,9813.888888888889
-0.15,0.065,9816.666666666666
-0.15,0.06,9819.444444444445
-0.185,0.055,9822.222222222223
-0.255,0.055,9825.0
-0.335,0.06,9827.777777777777
-0.37,0.095,9830.555555555555
-0.37,0.125,9833.333333333334
-0.36,0.11,9836.111111111111
-0.355,0.105,9838.888888888889
-0.385,0.09,9841.666666666666
-0.435,0.07,9844.444444444445
-0.46,0.075,9847.222222222223
-0.48,0.065,9850.0
-0.48,0.075,9852.777777777777
-0.45,0.055,9855.555555555555
-0.44,0.045,9858.333333333334
-0.435,0.025,9861.111111111111
-0.46,0.025,9863.888888888889
-0.46,0.03,9866.666666666666
-0.45,0.045,9869.444444444445
-0.45,0.065,9872.222222222223
-0.475,0.065,9875.0
-0.495,0.065,9877.777777777777
-0.51,0.07,9880.555555555555
-0.51,0.07,9883.333333333334
-0.52,0.06,9886.111111111111
-0.565,0.055,9888.888888888889
-0.605,0.045,9891.666666666666
-0.615,0.035,9894.444444444445
-0.54,0.02,9897.222222222223
-0.34,0.01,9900.0
-0.03,0.005,9902.777777777777
0.44,-0.025,9905.555555555555
0.95,-0.07,9908.333333333334
1.35,-0.045,9911.111111111111
1.63,0.025,9913.888888888889
1.79,0.115,9916.666666666666
1.87,0.18,9919.444444444445
1.845,0.23,9922.222222222223
1.75,0.285,9925.0
1.5,0.28,9927.777777777777
1.05,0.25,9930.555555555555
0.41,0.21,9933.333333333334
-0.23,0.16,9936.111111111111
-0.785,0.09,9938.888888888889
-0.855,-0.03,9941.666666666666
-0.71,-0.155,9944.444444444445
-0.585,-0.22,9947.222222222223
-0.59,-0.22,9950.0
-0.585,-0.18,9952.777777777777
-0.57,-0.145,9955.555555555555
-0.545,-0.1,9958.333333333334
-0.53,-0.05,9961.111111111111
-0.535,-0.01,9963.888888888889
-0.545,0.025,9966.666666666666
-0.55,0.05,9969.444444444445
-0.565,0.07,9972.222222222223
-0.59,0.055,9975.0
-0.59,0.065,9977.777777777777
-0.595,0.07,9980.555555555555
-0.59,0.075,9983.333333333334
-0.58,0.085,9986.111111111111
-0.57,0.085,9988.888888888889
-0.575,0.075,9991.666666666666
-0.57,0.105,9994.444444444445
-0.57,0.11,9997.222222222223
-0.555,0.105,10000.0
-0.535,0.1,10002.777777777777
-0.51,0.08,10005.555555555555
-0.52,0.05,10008.333333333334
-0.535,0.055,10011.111111111111
-0.56,0.06,10013.888888888889
-0.57,0.095,10016.666666666666
-0.57,0.105,10019.444444444445
-0.56,0.095,10022.222222222223
-0.555,0.08,10025.0
-0.545,0.07,10027.777777777777
-0.555,0.07,10030.555555555555
-0.52,0.065,10033.333333333334
-0.505,0.065,10036.111111111111
-0.505,0.05,10038.888888888889
-0.52,0.065,10041.666666666666
-0.535,0.055,10044.444444444445
-0.52,0.07,10047.222222222223
-0.51,0.08,10050.0
-0.49,0.09,10052.777777777777
-0.485,0.09,10055.555555555555
-0.495,0.09,10058.333333333334
-0.48,0.1,10061.111111111111
-0.47,0.11,10063.888888888889
-0.445,0.1,10066.666666666666
-0.42,0.085,10069.444444444445
-0.415,0.07,10072.222222222223
-0.435,0.06,10075.0
-0.445,0.05,10077.777777777777
-0.45,0.06,10080.555555555555
-0.425,0.09,10083.333333333334
-0.405,0.105,10086.111111111111
-0.41,0.085,10088.888888888889
-0.405,0.06,10091.666666666666
-0.41,0.035,10094.444444444445
-0.38,0.04,10097.222222222223
-0.375,0.05,10100.0
-0.35,0.08,10102.777777777777
-0.345,0.075,10105.555555555555
-0.35,0.075,10108.333333333334
-0.365,0.065,10111.111111111111
-0.375,0.085,10113.888888888889
-0.33,0.1,10116.666666666666
-0.29,0.1,10119.444444444445
-0.26,0.07,10122.222222222223
-0.25,0.05,10125.0
-0.25,0.045,10127.777777777777
-0.235,0.045,10130.555555555555
-0.195,0.065,10133.333333333334
-0.18,0.08,10136.111111111111
-0.145,0.075,10138.888888888889
-0.13,0.065,10141.666666666666
-0.11,0.055,10144.444444444445
-0.1,0.06,10147.222222222223
-0.07,0.08,10150.0
-0.04,0.075,10152.777777777777
-0.005,0.09,10155.555555555555
0.02,0.075,10158.333333333334
0.03,0.07,10161.111111111111
0.05,0.08,10163.888888888889
0.075,0.115,10166.666666666666
0.11,0.135,10169.444444444445
0.16,0.125,10172.222222222223
0.205,0.085,10175.0
0.23,0.035,10177.777777777777
0.245,0.01,10180.555555555555
0.275,0.015,10183.333333333334
0.325,0.03,10186.111111111111
0.335,0.015,10188.888888888889
0.375,-0.02,10191.666666666666
0.39,-0.03,10194.444444444445
0.425,-0.035,10197.222222222223
0.455,-0.005,10200.0
0.49,0.0,10202.777777777777
0.49,-0.01,10205.555555555555
0.445,-0.01,10208.333333333334
0.365,-0.015,10211.111111111111
0.335,0.02,10213.888888888889
0.35,0.06,10216.666666666666
0.37,0.06,10219.444444444445
0.37,0.06,10222.222222222223
0.34,0.05,10225.0
0.315,0.05,10227.777777777777
0.3,0.07,10230.555555555555
0.275,0.095,10233.333333333334
0.25,0.115,10236.111111111111
0.215,0.1,10238.888888888889
0.17,0.1,10241.666666666666
0.12,0.08,10244.444444444445
0.085,0.095,10247.222222222223
0.075,0.125,10250.0
0.055,0.16,10252.777777777777
0.035,0.14,10255.555555555555
-0.005,0.095,10258.333333333334
-0.045,0.03,10261.111111111111
-0.075,-0.005,10263.888888888889
-0.085,0.015,10266.666666666666
-0.105,0.065,10269.444444444445
-0.145,0.105,10272.222222222223
-0.175,0.14,10275.0
-0.195,0.135,10277.777777777777
-0.205,0.11,10280.555555555555
-0.21,0.05,10283.333333333334
-0.2,0.015,10286.111111111111
-0.215,-0.015,10288.888888888889
-0.235,-0.005,10291.666666666666
-0.275,-0.01,10294.444444444445
-0.315,-0.01,10297.222222222223
-0.34,0.025,10300.0
-0.35,0.055,10302.777777777777
-0.38,0.06,10305.555555555555
-0.4,0.05,10308.333333333334
-0.42,0.05,10311.111111111111
-0.43,0.055,10313.888888888889
-0.42,0.075,10316.666666666666
-0.405,0.1,10319.444444444445
-0.435,0.095,10322.222222222223
-0.465,0.09,10325.0
-0.5,0.095,10327.777777777777
-0.495,0.11,10330.555555555555
-0.465,0.14,10333.333333333334
-0.475,0.16,10336.111111111111
-0.465,0.14,10338.888888888889
-0.47,0.1,10341.666666666666
-0.495,0.075,10344.444444444445
-0.505,0.075,10347.222222222223
-0.505,0.115,10350.0
-0.5,0.15,10352.777777777777
-0.505,0.145,10355.555555555555
-0.51,0.125,10358.333333333334
-0.52,0.105,10361.111111111111
-0.505,0.085,10363.888888888889
-0.5,0.075,10366.666666666666
-0.495,0.08,10369.444444444445
-0.495,0.1,10372.222222222223
-0.49,0.11,10375.0
-0.52,0.11,10377.777777777777
-0.515,0.105,10380.555555555555
-0.53,0.08,10383.333333333334
-0.51,0.08,10386.111111111111
-0.51,0.085,10388.888888888889
-0.51,0.09,10391.666666666666
-0.52,0.08,10394.444444444445
-0.51,0.105,10397.222222222223
-0.475,0.13,10400.0
-0.465,0.16,10402.777777777777
-0.475,0.12,10405.555555555555
-0.47,0.07,10408.333333333334
-0.47,0.03,10411.111111111111
-0.495,0.015,10413.888888888889
-0.51,0.05,10416.666666666666
-0.51,0.08,10419.444444444445
-0.51,0.09,10422.222222222223
-0.53,0.085,10425.0
-0.515,0.06,10427.777777777777
-0.5,0.08,10430.555555555555
-0.495,0.11,10433.333333333334
-0.5,0.135,10436.111111111111
-0.495,0.15,10438.888888888889
-0.485,0.14,10441.666666666666
-0.48,0.13,10444.444444444445
-0.495,0.095,10447.222222222223
-0.485,0.075,10450.0
-0.48,0.08,10452.777777777777
-0.46,0.08,10455.555555555555
-0.465,0.08,10458.333333333334
-0.44,0.09,10461.111111111111
-0.41,0.075,10463.888888888889
-0.39,0.05,10466.666666666666
-0.41,0.05,10469.444444444445
-0.47,0.04,10472.222222222223
-0.555,0.055,10475.0
-0.615,0.085,10477.777777777777
-0.635,0.11,10480.555555555555
-0.605,0.13,10483.333333333334
-0.58,0.14,10486.111111111111
-0.57,0.14,10488.888888888889
-0.555,0.125,10491.666666666666
-0.565,0.115,10494.444444444445
-0.56,0.12,10497.222222222223
-0.525,0.135,10500.0
-0.465,0.15,10502.777777777777
-0.415,0.135,10505.555555555555
-0.415,0.105,10508.333333333334
-0.505,0.07,10511.111111111111
-0.6,0.05,10513.888888888889
-0.615,0.09,10516.666666666666
-0.54,0.115,10519.444444444445
-0.455,0.105,10522.222222222223
-0.38,0.05,10525.0
-0.41,-0.005,10527.777777777777
-0.48,0.005,10530.555555555555
-0.525,0.05,10533.333333333334
-0.485,0.095,10536.111111111111
-0.455,0.075,10538.888888888889
-0.545,0.055,10541.666666666666
-0.67,0.085,10544.444444444445
-0.71,0.14,10547.222222222223
-0.665,0.14,10550.0
-0.655,0.105,10552.777777777777
-0.73,0.1,10555.555555555555
-0.81,0.135,10558.333333333334
-0.78,0.175,10561.111111111111
-0.67,0.185,10563.888888888889
-0.64,0.17,10566.666666666666
-0.66,0.15,10569.444444444445
-0.695,0.155,10572.222222222223
-0.74,0.15,10575.0
-0.73,0.165,10577.777777777777
-0.7,0.185,10580.555555555555
-0.675,0.185,10583.333333333334
-0.67,0.17,10586.111111111111
-0.66,0.13,10588.888888888889
-0.66,0.09,10591.666666666666
-0.67,0.08,10594.444444444445
-0.67,0.105,10597.222222222223
-0.675,0.12,10600.0
-0.67,0.11,10602.777777777777
-0.65,0.085,10605.555555555555
-0.635,0.085,10608.333333333334
-0.655,0.085,10611.111111111111
-0.675,0.095,10613.888888888889
-0.665,0.1,10616.666666666666
-0.65,0.105,10619.444444444445
-0.635,0.065,10622.222222222223
-0.66,0.05,10625.0
-0.685,0.035,10627.777777777777
-0.685,0.035,10630.555555555555
-0.67,0.055,10633.333333333334
-0.665,0.08,10636.111111111111
-0.665,0.09,10638.888888888889
-0.675,0.095,10641.666666666666
-0.69,0.08,10644.444444444445
-0.695,0.07,10647.222222222223
-0.68,0.09,10650.0
-0.67,0.095,10652.777777777777
-0.65,0.1,10655.555555555555
-0.665,0.09,10658.333333333334
-0.685,0.075,10661.111111111111
-0.685,0.07,10663.888888888889
-0.665,0.085,10666.666666666666
-0.64,0.11,10669.444444444445
-0.665,0.105,10672.222222222223
-0.7,0.105,10675.0
-0.74,0.085,10677.777777777777
-0.715,0.08,10680.555555555555
-0.68,0.095,10683.333333333334
-0.66,0.105,10686.111111111111
-0.645,0.1,10688.888888888889
-0.655,0.075,10691.666666666666
-0.67,0.075,10694.444444444445
-0.68,0.065,10697.222222222223
-0.675,0.095,10700.0
-0.68,0.115,10702.777777777777
-0.68,0.12,10705.555555555555
-0.675,0.095,10708.333333333334
-0.685,0.085,10711.111111111111
-0.67,0.075,10713.888888888889
-0.695,0.095,10716.666666666666
-0.69,0.11,10719.444444444445
-0.675,0.11,10722.222222222223
-0.66,0.085,10725.0
-0.685,0.085,10727.777777777777
-0.685,0.095,10730.555555555555
-0.675,0.095,10733.333333333334
-0.665,0.11,10736.111111111111
-0.66,0.105,10738.888888888889
-0.665,0.095,10741.666666666666
-0.675,0.095,10744.444444444445
-0.675,0.09,10747.222222222223
-0.67,0.095,10750.0
-0.65,0.125,10752.777777777777
-0.635,0.12,10755.555555555555
-0.64,0.1,10758.333333333334
-0.645,0.1,10761.111111111111
-0.66,0.11,10763.888888888889
-0.65,0.12,10766.666666666666
-0.625,0.12,10769.444444444445
-0.61,0.135,10772.222222222223
-0.61,0.145,10775.0
-0.585,0.15,10777.777777777777
-0.58,0.17,10780.555555555555
-0.545,0.2,10783.333333333334
-0.515,0.215,10786.111111111111
-0.475,0.205,10788.888888888889
-0.43,0.2,10791.666666666666
-0.39,0.19,10794.444444444445
-0.345,0.185,10797.222222222223
-0.325,0.17,10800.0
-0.315,0.2,10802.777777777777
-0.31,0.195,10805.555555555555
-0.325,0.185,10808.333333333334
-0.35,0.145,10811.111111111111
-0.365,0.125,10813.888888888889
-0.365,0.12,10816.666666666666
-0.345,0.11,10819.444444444445
-0.37,0.11,10822.222222222223
-0.42,0.095,10825.0
-0.48,0.08,10827.777777777777
-0.51,0.085,10830.555555555555
-0.51,0.1,10833.333333333334
-0.515,0.115,10836.111111111111
-0.54,0.105,10838.888888888889
-0.56,0.085,10841.666666666666
-0.575,0.08,10844.444444444445
-0.58,0.075,10847.222222222223
-0.575,0.08,10850.0
-0.6,0.1,10852.777777777777
-0.605,0.08,10855.555555555555
-0.645,0.075,10858.333333333334
-0.665,0.085,10861.111111111111
-0.68,0.105,10863.888888888889
-0.655,0.125,10866.666666666666
-0.64,0.125,10869.444444444445
-0.635,0.12,10872.222222222223
-0.615,0.105,10875.0
-0.62,0.09,10877.777777777777
-0.63,0.085,10880.555555555555
-0.63,0.09,10883.333333333334
-0.65,0.07,10886.111111111111
-0.685,0.03,10888.888888888889
-0.73,0.02,10891.666666666666
-0.695,0.02,10894.444444444445
-0.565,0.03,10897.222222222223
-0.3,0.04,10900.0
0.085,0.045,10902.777777777777
0.575,0.025,10905.555555555555
1.055,0.035,10908.333333333334
1.41,0.075,10911.111111111111
1.67,0.125,10913.888888888889
1.84,0.175,10916.666666666666
1.93,0.195,10919.444444444445
1.905,0.195,10922.222222222223
1.75,0.205,10925.0
1.395,0.19,10927.777777777777
0.83,0.16,10930.555555555555
0.19,0.14,10933.333333333334
-0.45,0.135,10936.111111111111
-0.975,0.09,10938.888888888889
-1.025,0.015,10941.666666666666
-0.9,-0.075,10944.444444444445
-0.79,-0.145,10947.222222222223
-0.77,-0.19,10950.0
-0.75,-0.195,10952.777777777777
-0.755,-0.19,10955.555555555555
-0.745,-0.165,10958.333333333334
-0.745,-0.105,10961.111111111111
-0.715,-0.04,10963.888888888889
-0.69,0.005,10966.666666666666
-0.66,0.05,10969.444444444445
-0.685,0.05,10972.222222222223
-0.69,0.065,10975.0
-0.675,0.045,10977.777777777777
-0.67,0.04,10980.555555555555
-0.66,0.065,10983.333333333334
-0.675,0.105,10986.111111111111
-0.66,0.12,10988.888888888889
-0.67,0.12,10991.666666666666
-0.715,0.09,10994.444444444445
-0.74,0.09,10997.222222222223
-0.725,0.105,11000.0
-0.68,0.11,11002.777777777777
-0.63,0.085,11005.555555555555
-0.615,0.05,11008.333333333334
-0.65,0.045,11011.111111111111
-0.655,0.055,11013.888888888889
-0.68,0.085,11016.666666666666
-0.69,0.095,11019.444444444445
-0.655,0.09,11022.222222222223
-0.66,0.07,11025.0
-0.675,0.055,11027.777777777777
-0.67,0.07,11030.555555555555
-0.65,0.085,11033.333333333334
-0.62,0.09,11036.111111111111
-0.615,0.095,11038.888888888889
-0.635,0.09,11041.666666666666
-0.65,0.08,11044.444444444445
-0.63,0.08,11047.222222222223
-0.61,0.09,11050.0
-0.57,0.1,11052.777777777777
-0.56,0.1,11055.555555555555
-0.585,0.09,11058.333333333334
-0.6,0.06,11061.111111111111
-0.575,0.05,11063.888888888889
-0.545,0.04,11066.666666666666
-0.52,0.055,11069.444444444445
-0.515,0.045,11072.222222222223
-0.545,0.04,11075.0
-0.525,0.03,11077.777777777777
-0.515,0.04,11080.555555555555
-0.505,0.055,11083.333333333334
-0.475,0.08,11086.111111111111
-0.45,0.075,11088.888888888889
-0.455,0.055,11091.666666666666
-0.475,0.04,11094.444444444445
-0.49,0.05,11097.222222222223
-0.475,0.06,11100.0
-0.43,0.065,11102.777777777777
-0.405,0.045,11105.555555555555
-0.4,0.055,11108.333333333334
-0.39,0.04,11111.111111111111
-0.405,0.045,11113.888888888889
-0.37,0.07,11116.666666666666
-0.35,0.095,11119.444444444445
-0.325,0.08,11122.222222222223
-0.33,0.08,11125.0
-0.33,0.065,11127.777777777777
-0.33,0.07,11130.555555555555
-0.29,0.075,11133.333333333334
-0.26,0.075,11136.111111111111
-0.225,0.065,11138.888888888889
-0.225,0.05,11141.666666666666
-0.21,0.035,11144.444444444445
-0.195,0.055,11147.222222222223
-0.165,0.065,11150.0
-0.125,0.07,11152.777777777777
-0.09,0.07,11155.555555555555
-0.085,0.06,11158.333333333334
-0.1,0.035,11161.111111111111
-0.07,0.035,11163.888888888889
-0.01,0.055,11166.666666666666
0.05,0.075,11169.444444444445
0.09,0.06,11172.222222222223
0.085,0.05,11175.0
0.1,0.015,11177.777777777777
0.12,0.025,11180.555555555555
0.175,0.025,11183.333333333334
0.2,0.03,11186.111111111111
0.23,0.03,11188.888888888889
0.255,0.02,11191.666666666666
0.255,0.015,11194.444444444445
0.265,0.005,11197.222222222223
0.275,0.025,11200.0
0.315,0.045,11202.777777777777
0.32,0.05,11205.555555555555
0.325,0.06,11208.333333333334
0.31,0.035,11211.111111111111
0.31,0.035,11213.888888888889
0.29,0.04,11216.666666666666
0.32,0.05,11219.444444444445
0.32,0.04,11222.222222222223
0.31,0.05,11225.0
0.28,0.04,11227.777777777777
0.23,0.06,11230.555555555555
0.17,0.065,11233.333333333334
0.135,0.085,11236.111111111111
0.135,0.09,11238.888888888889
0.155,0.07,11241.666666666666
0.145,0.025,11244.444444444445
0.115,0.005,11247.222222222223
0.05,0.02,11250.0
-0.025,0.045,11252.777777777777
-0.115,0.07,11255.555555555555
-0.155,0.105,11258.333333333334
-0.175,0.11,11261.111111111111
-0.19,0.125,11263.888888888889
-0.2,0.135,11266.666666666666
-0.195,0.14,11269.444444444445
-0.21,0.13,11272.222222222223
-0.25,0.12,11275.0
-0.27,0.085,11277.777777777777
-0.3,0.075,11280.555555555555
-0.305,0.09,11283.333333333334
-0.31,0.105,11286.111111111111
-0.305,0.105,11288.888888888889
-0.33,0.1,11291.666666666666
-0.365,0.09,11294.444444444445
-0.38,0.105,11297.222222222223
-0.37,0.13,11300.0
-0.365,0.135,11302.777777777777
-0.36,0.145,11305.555555555555
-0.395,0.12,11308.333333333334
-0.425,0.115,11311.111111111111
-0.445,0.125,11313.888888888889
-0.445,0.125,11316.666666666666
-0.43,0.14,11319.444444444445
-0.45,0.13,11322.222222222223
-0.455,0.115,11325.0
-0.455,0.105,11327.777777777777
-0.47,0.115,11330.555555555555
-0.465,0.14,11333.333333333334
-0.465,0.16,11336.111111111111
-0.45,0.14,11338.888888888889
-0.46,0.105,11341.666666666666
-0.475,0.105,11344.444444444445
-0.48,0.12,11347.222222222223
-0.465,0.125,11350.0
-0.445,0.12,11352.777777777777
-0.44,0.125,11355.555555555555
-0.46,0.11,11358.333333333334
-0.495,0.125,11361.111111111111
-0.495,0.12,11363.888888888889
-0.475,0.125,11366.666666666666
-0.455,0.115,11369.444444444445
-0.445,0.1,11372.222222222223
-0.44,0.075,11375.0
-0.455,0.065,11377.777777777777
-0.47,0.085,11380.555555555555
-0.47,0.085,11383.333333333334
-0.445,0.1,11386.111111111111
-0.415,0.085,11388.888888888889
-0.42,0.05,11391.666666666666
-0.44,0.045,11394.444444444445
-0.455,0.05,11397.222222222223
-0.43,0.06,11400.0
-0.415,0.06,11402.777777777777
-0.415,0.055,11405.555555555555
-0.42,0.05,11408.333333333334
-0.425,0.05,11411.111111111111
-0.415,0.045,11413.888888888889
-0.38,0.065,11416.666666666666
-0.365,0.08,11419.444444444445
-0.37,0.08,11422.222222222223
-0.355,0.055,11425.0
-0.37,0.05,11427.777777777777
-0.365,0.05,11430.555555555555
-0.355,0.07,11433.333333333334
-0.345,0.08,11436.111111111111
-0.335,0.05,11438.888888888889
-0.34,0.025,11441.666666666666
-0.34,0.02,11444.444444444445
-0.345,0.03,11447.222222222223
-0.335,0.05,11450.0
-0.32,0.06,11452.777777777777
-0.31,0.05,11455.555555555555
-0.32,0.045,11458.333333333334
-0.35,0.045,11461.111111111111
-0.37,0.05,11463.888888888889
-0.355,0.08,11466.666666666666
-0.335,0.095,11469.444444444445
-0.325,0.065,11472.222222222223
-0.345,0.04,11475.0
-0.35,0.015,11477.777777777777
-0.36,0.02,11480.555555555555
-0.365,0.035,11483.333333333334
-0.37,0.05,11486.111111111111
-0.39,0.03,11488.888888888889
-0.37,0.025,11491.666666666666
-0.365,0.015,11494.444444444445
-0.365,0.015,11497.222222222223
-0.37,0.005,11500.0
-0.365,0.02,11502.777777777777
-0.37,0.025,11505.555555555555
-0.365,0.015,11508.333333333334
-0.375,0.0,11511.111111111111
-0.395,-0.025,11513.888888888889
-0.39,-0.015,11516.666666666666
-0.37,0.005,11519.444444444445
-0.365,0.0,11522.222222222223
-0.375,0.0,11525.0
