MLII,V1,time_ms
-2.045,-1.245,0.0
-2.045,-1.245,2.7777777777777777
-2.045,-1.245,5.555555555555555
-2.045,-1.245,8.333333333333334
-2.045,-1.245,11.11111111111111
-2.09,-1.245,13.88888888888889
-2.14,-1.245,16.666666666666668
-2.205,-1.345,19.444444444444443
-2.27,-1.445,22.22222222222222
-2.34,-1.575,25.0
-2.405,-1.72,27.77777777777778
-2.465,-1.83,30.555555555555557
-2.545,-1.83,33.333333333333336
-2.58,-1.715,36.111111111111114
-2.555,-1.515,38.888888888888886
-2.435,-1.31,41.666666666666664
-2.22,-1.095,44.44444444444444
-1.94,-0.91,47.22222222222222
-1.64,-0.78,50.0
-1.425,-0.69,52.77777777777778
-1.215,-0.605,55.55555555555556
-1.05,-0.48,58.333333333333336
-0.935,-0.355,61.111111111111114
-0.84,-0.21,63.888888888888886
-0.78,-0.095,66.66666666666667
-0.72,-0.015,69.44444444444444
-0.69,0.045,72.22222222222223
-0.64,0.105,75.0
-0.595,0.15,77.77777777777777
-0.57,0.215,80.55555555555556
-0.54,0.29,83.33333333333333
-0.5,0.34,86.11111111111111
-0.48,0.38,88.88888888888889
-0.45,0.415,91.66666666666667
-0.395,0.44,94.44444444444444
-0.325,0.48,97.22222222222223
-0.25,0.515,100.0
-0.2,0.55,102.77777777777777
-0.165,0.57,105.55555555555556
-0.14,0.6,108.33333333333333
-0.115,0.64,111.11111111111111
-0.08,0.695,113.88888888888889
-0.035,0.715,116.66666666666667
0.005,0.75,119.44444444444444
0.045,0.745,122.22222222222223
0.09,0.745,125.0
0.14,0.745,127.77777777777777
0.18,0.76,130.55555555555554
0.235,0.75,133.33333333333334
0.27,0.77,136.11111111111111
0.3,0.77,138.88888888888889
0.295,0.77,141.66666666666666
0.3,0.775,144.44444444444446
0.3,0.795,147.22222222222223
0.32,0.815,150.0
0.34,0.82,152.77777777777777
0.345,0.82,155.55555555555554
0.355,0.82,158.33333333333334
0.375,0.835,161.11111111111111
0.4,0.85,163.88888888888889
0.43,0.87,166.66666666666666
0.46,0.855,169.44444444444446
0.475,0.865,172.22222222222223
0.48,0.865,175.0
0.495,0.865,177.77777777777777
0.525,0.9,180.55555555555554
0.56,0.915,183.33333333333334
0.6,0.94,186.11111111111111
0.635,0.945,188.88888888888889
0.65,0.935,191.66666666666666
0.68,0.96,194.44444444444446
0.71,0.985,197.22222222222223
0.755,0.995,200.0
0.785,0.995,202.77777777777777
0.81,1.01,205.55555555555554
0.82,1.015,208.33333333333334
0.84,1.035,211.11111111111111
0.87,1.055,213.88888888888889
0.92,1.07,216.66666666666666
0.965,1.075,219.44444444444446
0.98,1.09,222.22222222222223
1.0,1.095,225.0
1.03,1.1,227.77777777777777
1.07,1.13,230.55555555555554
1.095,1.145,233.33333333333334
1.105,1.135,236.11111111111111
1.1,1.14,238.88888888888889
1.1,1.135,241.66666666666666
1.115,1.135,244.44444444444446
1.13,1.15,247.22222222222223
1.145,1.16,250.0
1.155,1.15,252.77777777777777
1.15,1.13,255.55555555555554
1.14,1.13,258.3333333333333
1.13,1.11,261.1111111111111
1.125,1.115,263.8888888888889
1.13,1.105,266.6666666666667
1.11,1.095,269.44444444444446
1.085,1.08,272.22222222222223
1.045,1.05,275.0
1.015,1.03,277.77777777777777
0.985,1.02,280.55555555555554
0.955,1.01,283.3333333333333
0.92,0.98,286.1111111111111
0.88,0.94,288.8888888888889
0.84,0.915,291.6666666666667
0.785,0.895,294.44444444444446
0.745,0.885,297.22222222222223
0.72,0.865,300.0
0.685,0.815,302.77777777777777
0.635,0.79,305.55555555555554
0.575,0.745,308.3333333333333
0.515,0.715,311.1111111111111
0.47,0.71,313.8888888888889
0.425,0.695,316.6666666666667
0.365,0.67,319.44444444444446
0.305,0.65,322.22222222222223
0.25,0.625,325.0
0.19,0.59,327.77777777777777
0.16,0.595,330.55555555555554
0.14,0.58,333.3333333333333
0.095,0.56,336.1111111111111
0.05,0.54,338.8888888888889
0.005,0.52,341.6666666666667
-0.05,0.52,344.44444444444446
-0.085,0.515,347.22222222222223
-0.11,0.525,350.0
-0.13,0.51,352.77777777777777
-0.15,0.505,355.55555555555554
-0.19,0.485,358.3333333333333
-0.225,0.475,361.1111111111111
-0.235,0.475,363.8888888888889
-0.23,0.495,366.6666666666667
-0.25,0.49,369.44444444444446
-0.26,0.47,372.22222222222223
-0.28,0.46,375.0
-0.315,0.47,377.77777777777777
-0.305,0.475,380.55555555555554
-0.31,0.47,383.3333333333333
-0.32,0.465,386.1111111111111
-0.345,0.45,388.8888888888889
-0.365,0.44,391.6666666666667
-0.375,0.44,394.44444444444446
-0.37,0.46,397.22222222222223
-0.36,0.465,400.0
-0.365,0.46,402.77777777777777
-0.38,0.455,405.55555555555554
-0.375,0.445,408.3333333333333
-0.39,0.445,411.1111111111111
-0.39,0.445,413.8888888888889
-0.375,0.46,416.6666666666667
-0.385,0.455,419.44444444444446
-0.39,0.44,422.22222222222223
-0.41,0.44,425.0
-0.395,0.43,427.77777777777777
-0.4,0.445,430.55555555555554
-0.38,0.45,433.3333333333333
-0.38,0.44,436.1111111111111
-0.375,0.445,438.8888888888889
-0.39,0.435,441.6666666666667
-0.395,0.43,444.44444444444446
-0.405,0.44,447.22222222222223
-0.38,0.455,450.0
-0.375,0.445,452.77777777777777
-0.38,0.445,455.55555555555554
-0.39,0.43,458.3333333333333
-0.415,0.43,461.1111111111111
-0.41,0.44,463.8888888888889
-0.385,0.44,466.6666666666667
-0.39,0.44,469.44444444444446
-0.395,0.43,472.22222222222223
-0.39,0.405,475.0
-0.385,0.405,477.77777777777777
-0.37,0.425,480.55555555555554
-0.36,0.43,483.3333333333333
-0.35,0.425,486.1111111111111
-0.35,0.41,488.8888888888889
-0.345,0.41,491.6666666666667
-0.35,0.41,494.44444444444446
-0.33,0.41,497.22222222222223
-0.325,0.415,500.0
-0.33,0.395,502.77777777777777
-0.335,0.39,505.55555555555554
-0.34,0.375,508.3333333333333
-0.35,0.38,511.1111111111111
-0.345,0.38,513.8888888888889
-0.35,0.39,516.6666666666666
-0.335,0.395,519.4444444444445
-0.34,0.385,522.2222222222222
-0.335,0.365,525.0
-0.355,0.35,527.7777777777778
-0.335,0.365,530.5555555555555
-0.315,0.36,533.3333333333334
-0.32,0.365,536.1111111111111
-0.335,0.36,538.8888888888889
-0.365,0.355,541.6666666666666
-0.375,0.335,544.4444444444445
-0.36,0.34,547.2222222222222
-0.34,0.345,550.0
-0.325,0.35,552.7777777777778
-0.335,0.335,555.5555555555555
-0.34,0.32,558.3333333333334
-0.36,0.32,561.1111111111111
-0.38,0.33,563.8888888888889
-0.37,0.34,566.6666666666666
-0.36,0.33,569.4444444444445
-0.355,0.33,572.2222222222222
-0.375,0.31,575.0
-0.375,0.31,577.7777777777778
-0.36,0.32,580.5555555555555
-0.355,0.32,583.3333333333334
-0.35,0.33,586.1111111111111
-0.35,0.31,588.8888888888889
-0.365,0.3,591.6666666666666
-0.365,0.3,594.4444444444445
-0.355,0.305,597.2222222222222
-0.345,0.305,600.0
-0.355,0.305,602.7777777777778
-0.35,0.3,605.5555555555555
-0.37,0.29,608.3333333333334
-0.365,0.295,611.1111111111111
-0.35,0.305,613.8888888888889
-0.35,0.31,616.6666666666666
-0.35,0.295,619.4444444444445
-0.365,0.29,622.2222222222222
-0.36,0.28,625.0
-0.365,0.285,627.7777777777778
-0.355,0.285,630.5555555555555
-0.345,0.31,633.3333333333334
-0.345,0.305,636.1111111111111
-0.345,0.28,638.8888888888889
-0.36,0.28,641.6666666666666
-0.36,0.275,644.4444444444445
-0.335,0.27,647.2222222222222
-0.34,0.28,650.0
-0.34,0.28,652.7777777777778
-0.345,0.27,655.5555555555555
-0.36,0.255,658.3333333333334
-0.37,0.255,661.1111111111111
-0.355,0.275,663.8888888888889
-0.34,0.28,666.6666666666666
-0.34,0.265,669.4444444444445
-0.35,0.255,672.2222222222222
-0.365,0.245,675.0
-0.365,0.255,677.7777777777778
-0.355,0.265,680.5555555555555
-0.34,0.275,683.3333333333334
-0.325,0.255,686.1111111111111
-0.325,0.24,688.8888888888889
-0.335,0.235,691.6666666666666
-0.36,0.245,694.4444444444445
-0.335,0.265,697.2222222222222
-0.31,0.29,700.0
-0.3,0.33,702.7777777777778
-0.3,0.335,705.5555555555555
-0.285,0.325,708.3333333333334
-0.28,0.34,711.1111111111111
-0.245,0.345,713.8888888888889
-0.215,0.335,716.6666666666666
-0.19,0.295,719.4444444444445
-0.16,0.15,722.2222222222222
-0.125,-0.165,725.0
-0.055,-0.545,727.7777777777778
0.085,-0.61,730.5555555555555
0.325,-0.315,733.3333333333334
0.805,-0.05,736.1111111111111
1.4,0.01,738.8888888888889
1.8,-0.04,741.6666666666666
1.89,-0.05,744.4444444444445
1.815,-0.03,747.2222222222222
1.73,-0.025,750.0
1.665,-0.05,752.7777777777778
1.62,-0.08,755.5555555555555
1.54,-0.12,758.3333333333334
1.44,-0.15,761.1111111111111
1.33,-0.165,763.8888888888889
1.26,-0.185,766.6666666666666
1.165,-0.215,769.4444444444445
1.1,-0.245,772.2222222222222
1.005,-0.28,775.0
0.895,-0.295,777.7777777777778
0.79,-0.3,780.5555555555555
0.675,-0.315,783.3333333333334
0.53,-0.35,786.1111111111111
0.39,-0.405,788.8888888888889
0.21,-0.45,791.6666666666666
0.02,-0.53,794.4444444444445
-0.175,-0.585,797.2222222222222
-0.39,-0.63,800.0
-0.61,-0.68,802.7777777777778
-0.865,-0.715,805.5555555555555
-1.105,-0.755,808.3333333333334
-1.31,-0.825,811.1111111111111
-1.5,-0.925,813.8888888888889
-1.65,-1.05,816.6666666666666
-1.805,-1.24,819.4444444444445
-1.945,-1.4,822.2222222222222
-2.045,-1.495,825.0
-2.12,-1.565,827.7777777777778
-2.17,-1.655,830.5555555555555
-2.195,-1.745,833.3333333333334
-2.26,-1.845,836.1111111111111
-2.345,-1.95,838.8888888888889
-2.43,-2.03,841.6666666666666
-2.5,-2.135,844.4444444444445
-2.53,-2.245,847.2222222222222
-2.565,-2.335,850.0
-2.63,-2.335,852.7777777777778
-2.675,-2.225,855.5555555555555
-2.69,-2.055,858.3333333333334
-2.6,-1.855,861.1111111111111
-2.395,-1.66,863.8888888888889
-2.165,-1.46,866.6666666666666
-1.94,-1.29,869.4444444444445
-1.75,-1.115,872.2222222222222
-1.58,-1.01,875.0
-1.455,-0.865,877.7777777777778
-1.34,-0.725,880.5555555555555
-1.26,-0.595,883.3333333333334
-1.185,-0.49,886.1111111111111
-1.135,-0.41,888.8888888888889
-1.09,-0.35,891.6666666666666
-1.065,-0.26,894.4444444444445
-1.01,-0.17,897.2222222222222
-0.98,-0.105,900.0
-0.975,-0.07,902.7777777777778
-0.97,-0.03,905.5555555555555
-0.965,-0.005,908.3333333333334
-0.95,0.035,911.1111111111111
-0.875,0.085,913.8888888888889
-0.81,0.13,916.6666666666666
-0.75,0.16,919.4444444444445
-0.69,0.185,922.2222222222222
-0.65,0.21,925.0
-0.605,0.255,927.7777777777778
-0.555,0.3,930.5555555555555
-0.465,0.315,933.3333333333334
-0.405,0.345,936.1111111111111
-0.34,0.355,938.8888888888889
-0.275,0.36,941.6666666666666
-0.215,0.375,944.4444444444445
-0.17,0.4,947.2222222222222
-0.095,0.41,950.0
-0.035,0.415,952.7777777777778
0.0,0.415,955.5555555555555
0.045,0.425,958.3333333333334
0.05,0.43,961.1111111111111
0.05,0.45,963.8888888888889
0.075,0.46,966.6666666666666
0.085,0.46,969.4444444444445
0.105,0.455,972.2222222222222
0.105,0.465,975.0
0.12,0.47,977.7777777777778
0.145,0.5,980.5555555555555
0.185,0.51,983.3333333333334
0.215,0.52,986.1111111111111
0.235,0.53,988.8888888888889
0.255,0.51,991.6666666666666
0.265,0.535,994.4444444444445
0.3,0.555,997.2222222222222
0.335,0.565,1000.0
0.36,0.585,1002.7777777777778
0.365,0.59,1005.5555555555555
0.37,0.595,1008.3333333333334
0.4,0.605,1011.1111111111111
0.435,0.615,1013.8888888888889
0.49,0.64,1016.6666666666666
0.525,0.65,1019.4444444444445
0.56,0.645,1022.2222222222222
0.585,0.655,1025.0
0.6,0.665,1027.7777777777778
0.635,0.7,1030.5555555555557
0.685,0.705,1033.3333333333333
0.72,0.735,1036.111111111111
0.75,0.72,1038.888888888889
0.775,0.73,1041.6666666666667
0.81,0.75,1044.4444444444443
0.845,0.755,1047.2222222222222
0.88,0.77,1050.0
0.91,0.775,1052.7777777777778
0.94,0.755,1055.5555555555557
0.96,0.755,1058.3333333333333
0.95,0.77,1061.111111111111
0.97,0.79,1063.888888888889
0.995,0.815,1066.6666666666667
1.015,0.805,1069.4444444444443
1.01,0.79,1072.2222222222222
1.01,0.785,1075.0
1.01,0.795,1077.7777777777778
1.015,0.8,1080.5555555555557
1.035,0.795,1083.3333333333333
1.035,0.785,1086.111111111111
1.01,0.765,1088.888888888889
0.99,0.755,1091.6666666666667
0.965,0.725,1094.4444444444443
0.95,0.73,1097.2222222222222
0.955,0.71,1100.0
0.925,0.695,1102.7777777777778
0.875,0.655,1105.5555555555557
0.865,0.63,1108.3333333333333
0.83,0.61,1111.111111111111
0.8,0.605,1113.888888888889
0.79,0.575,1116.6666666666667
0.75,0.54,1119.4444444444443
0.72,0.51,1122.2222222222222
0.67,0.485,1125.0
0.62,0.445,1127.7777777777778
0.585,0.44,1130.5555555555557
0.54,0.405,1133.3333333333333
0.495,0.37,1136.111111111111
0.45,0.32,1138.888888888889
0.385,0.285,1141.6666666666667
0.32,0.275,1144.4444444444443
0.29,0.265,1147.2222222222222
0.25,0.245,1150.0
0.225,0.225,1152.7777777777778
0.175,0.19,1155.5555555555557
0.12,0.165,1158.3333333333333
0.065,0.15,1161.111111111111
0.04,0.14,1163.888888888889
0.01,0.16,1166.6666666666667
-0.02,0.155,1169.4444444444443
-0.055,0.125,1172.2222222222222
-0.09,0.115,1175.0
-0.135,0.1,1177.7777777777778
-0.15,0.105,1180.5555555555557
-0.165,0.11,1183.3333333333333
-0.185,0.1,1186.111111111111
-0.21,0.085,1188.888888888889
-0.22,0.065,1191.6666666666667
-0.24,0.065,1194.4444444444443
-0.26,0.075,1197.2222222222222
-0.26,0.085,1200.0
-0.28,0.08,1202.7777777777778
-0.295,0.045,1205.5555555555557
-0.31,0.04,1208.3333333333333
-0.33,0.06,1211.111111111111
-0.32,0.075,1213.888888888889
-0.33,0.075,1216.6666666666667
-0.32,0.07,1219.4444444444443
-0.335,0.06,1222.2222222222222
-0.345,0.055,1225.0
-0.35,0.06,1227.7777777777778
-0.35,0.045,1230.5555555555557
-0.335,0.055,1233.3333333333333
-0.345,0.065,1236.111111111111
-0.36,0.07,1238.888888888889
-0.375,0.065,1241.6666666666667
-0.39,0.06,1244.4444444444443
-0.39,0.065,1247.2222222222222
-0.37,0.085,1250.0
-0.37,0.105,1252.7777777777778
-0.385,0.09,1255.5555555555557
-0.395,0.075,1258.3333333333333
-0.39,0.07,1261.111111111111
-0.385,0.075,1263.888888888889
-0.375,0.09,1266.6666666666667
-0.365,0.085,1269.4444444444443
-0.37,0.075,1272.2222222222222
-0.385,0.06,1275.0
-0.395,0.065,1277.7777777777778
-0.4,0.095,1280.5555555555557
-0.385,0.115,1283.3333333333333
-0.365,0.105,1286.111111111111
-0.37,0.09,1288.888888888889
-0.39,0.07,1291.6666666666667
-0.4,0.075,1294.4444444444443
-0.385,0.095,1297.2222222222222
-0.345,0.095,1300.0
-0.32,0.095,1302.7777777777778
-0.31,0.085,1305.5555555555557
-0.335,0.07,1308.3333333333333
-0.345,0.075,1311.111111111111
-0.355,0.08,1313.888888888889
-0.345,0.085,1316.6666666666667
-0.33,0.085,1319.4444444444443
-0.325,0.075,1322.2222222222222
-0.34,0.055,1325.0
-0.345,0.055,1327.7777777777778
-0.33,0.065,1330.5555555555557
-0.325,0.065,1333.3333333333333
-0.325,0.07,1336.111111111111
-0.345,0.05,1338.888888888889
-0.355,0.04,1341.6666666666667
-0.355,0.045,1344.4444444444443
-0.35,0.035,1347.2222222222222
-0.345,0.035,1350.0
-0.34,0.04,1352.7777777777778
-0.36,0.045,1355.5555555555557
-0.355,0.045,1358.3333333333333
-0.36,0.03,1361.111111111111
-0.35,0.035,1363.888888888889
-0.35,0.045,1366.6666666666667
-0.35,0.03,1369.4444444444443
-0.375,0.025,1372.2222222222222
-0.375,0.015,1375.0
-0.385,0.01,1377.7777777777778
-0.38,0.02,1380.5555555555557
-0.365,0.04,1383.3333333333333
-0.35,0.05,1386.111111111111
-0.36,0.055,1388.888888888889
-0.38,0.055,1391.6666666666667
-0.375,0.075,1394.4444444444443
-0.345,0.11,1397.2222222222222
-0.325,0.145,1400.0
-0.305,0.185,1402.7777777777778
-0.295,0.175,1405.5555555555557
-0.295,0.17,1408.3333333333333
-0.285,0.175,1411.111111111111
-0.255,0.21,1413.888888888889
-0.21,0.23,1416.6666666666667
-0.17,0.24,1419.4444444444443
-0.13,0.22,1422.2222222222222
-0.12,0.2,1425.0
-0.115,0.185,1427.7777777777778
-0.095,0.165,1430.5555555555557
-0.075,0.105,1433.3333333333333
-0.06,0.06,1436.111111111111
-0.025,0.04,1438.888888888889
-0.015,0.03,1441.6666666666667
-0.015,0.03,1444.4444444444443
-0.02,0.015,1447.2222222222222
-0.03,0.005,1450.0
-0.05,-0.02,1452.7777777777778
-0.06,-0.05,1455.5555555555557
-0.08,-0.065,1458.3333333333333
-0.1,-0.065,1461.111111111111
-0.08,-0.025,1463.888888888889
-0.065,-0.02,1466.6666666666667
-0.075,-0.03,1469.4444444444443
-0.09,-0.05,1472.2222222222222
-0.11,-0.065,1475.0
-0.115,-0.075,1477.7777777777778
-0.11,-0.07,1480.5555555555557
-0.12,-0.055,1483.3333333333333
-0.15,-0.055,1486.111111111111
-0.185,-0.065,1488.888888888889
-0.215,-0.07,1491.6666666666667
-0.25,-0.065,1494.4444444444443
-0.265,-0.055,1497.2222222222222
-0.27,-0.04,1500.0
-0.295,-0.04,1502.7777777777778
-0.325,-0.06,1505.5555555555557
-0.345,-0.075,1508.3333333333333
-0.37,-0.07,1511.111111111111
-0.375,-0.07,1513.888888888889
-0.38,-0.07,1516.6666666666667
-0.385,-0.09,1519.4444444444443
-0.39,-0.11,1522.2222222222222
-0.41,-0.12,1525.0
-0.435,-0.13,1527.7777777777778
-0.425,-0.105,1530.5555555555557
-0.445,-0.105,1533.3333333333333
-0.44,-0.11,1536.111111111111
-0.445,-0.13,1538.888888888889
-0.44,-0.18,1541.6666666666667
-0.425,-0.215,1544.4444444444443
-0.4,-0.3,1547.2222222222222
-0.37,-0.54,1550.0
-0.33,-0.955,1552.7777777777778
-0.255,-1.205,1555.5555555555557
-0.075,-1.045,1558.3333333333333
0.335,-0.73,1561.111111111111
0.95,-0.525,1563.888888888889
1.515,-0.485,1566.6666666666667
1.74,-0.47,1569.4444444444443
1.64,-0.46,1572.2222222222222
1.47,-0.45,1575.0
1.365,-0.435,1577.7777777777778
1.32,-0.435,1580.5555555555557
1.295,-0.435,1583.3333333333333
1.21,-0.455,1586.111111111111
1.135,-0.48,1588.888888888889
1.035,-0.505,1591.6666666666667
0.93,-0.515,1594.4444444444443
0.875,-0.515,1597.2222222222222
0.8,-0.54,1600.0
0.72,-0.56,1602.7777777777778
0.625,-0.595,1605.5555555555557
0.5,-0.63,1608.3333333333333
0.385,-0.645,1611.111111111111
0.29,-0.66,1613.888888888889
0.17,-0.705,1616.6666666666667
0.055,-0.75,1619.4444444444443
-0.095,-0.83,1622.2222222222222
-0.25,-0.93,1625.0
-0.395,-1.0,1627.7777777777778
-0.52,-1.04,1630.5555555555557
-0.65,-1.085,1633.3333333333333
-0.795,-1.125,1636.111111111111
-0.97,-1.21,1638.888888888889
-1.155,-1.34,1641.6666666666667
-1.35,-1.47,1644.4444444444443
-1.49,-1.63,1647.2222222222222
-1.575,-1.74,1650.0
-1.62,-1.85,1652.7777777777778
-1.66,-1.935,1655.5555555555557
-1.72,-2.005,1658.3333333333333
-1.755,-2.085,1661.111111111111
-1.805,-2.175,1663.888888888889
-1.905,-2.26,1666.6666666666667
-2.01,-2.345,1669.4444444444443
-2.125,-2.46,1672.2222222222222
-2.215,-2.545,1675.0
-2.29,-2.63,1677.7777777777778
-2.375,-2.645,1680.5555555555557
-2.425,-2.545,1683.3333333333333
-2.475,-2.385,1686.111111111111
-2.445,-2.235,1688.888888888889
-2.35,-2.08,1691.6666666666667
-2.205,-1.905,1694.4444444444443
-2.03,-1.735,1697.2222222222222
-1.85,-1.57,1700.0
-1.675,-1.41,1702.7777777777778
-1.505,-1.265,1705.5555555555557
-1.4,-1.125,1708.3333333333333
-1.345,-0.98,1711.111111111111
-1.28,-0.86,1713.888888888889
-1.23,-0.755,1716.6666666666667
-1.18,-0.66,1719.4444444444443
-1.14,-0.57,1722.2222222222222
-1.1,-0.49,1725.0
-1.075,-0.4,1727.7777777777778
-1.045,-0.335,1730.5555555555557
-1.03,-0.275,1733.3333333333333
-1.01,-0.215,1736.111111111111
-0.985,-0.165,1738.888888888889
-0.94,-0.135,1741.6666666666667
-0.885,-0.08,1744.4444444444443
-0.81,-0.04,1747.2222222222222
-0.745,0.005,1750.0
-0.66,0.055,1752.7777777777778
-0.615,0.07,1755.5555555555557
-0.585,0.09,1758.3333333333333
-0.525,0.12,1761.111111111111
-0.44,0.15,1763.888888888889
-0.365,0.185,1766.6666666666667
-0.275,0.195,1769.4444444444443
-0.215,0.21,1772.2222222222222
-0.15,0.21,1775.0
-0.105,0.225,1777.7777777777778
-0.045,0.23,1780.5555555555557
0.015,0.255,1783.3333333333333
0.05,0.26,1786.111111111111
0.065,0.26,1788.888888888889
0.085,0.26,1791.6666666666667
0.1,0.265,1794.4444444444443
0.125,0.28,1797.2222222222222
0.15,0.3,1800.0
0.17,0.3,1802.7777777777778
0.175,0.31,1805.5555555555557
0.185,0.295,1808.3333333333333
0.205,0.325,1811.111111111111
0.22,0.335,1813.888888888889
0.255,0.34,1816.6666666666667
0.27,0.355,1819.4444444444443
0.285,0.35,1822.2222222222222
0.305,0.34,1825.0
0.31,0.355,1827.7777777777778
0.34,0.37,1830.5555555555557
0.365,0.39,1833.3333333333333
0.385,0.415,1836.111111111111
0.415,0.415,1838.888888888889
0.435,0.41,1841.6666666666667
0.445,0.43,1844.4444444444443
0.485,0.45,1847.2222222222222
0.515,0.46,1850.0
0.555,0.48,1852.7777777777778
0.565,0.485,1855.5555555555557
0.595,0.47,1858.3333333333333
0.61,0.49,1861.111111111111
0.645,0.505,1863.888888888889
0.675,0.52,1866.6666666666667
0.71,0.54,1869.4444444444443
0.73,0.53,1872.2222222222222
0.755,0.545,1875.0
0.775,0.575,1877.7777777777778
0.81,0.585,1880.5555555555557
0.83,0.605,1883.3333333333333
0.85,0.61,1886.111111111111
0.87,0.61,1888.888888888889
0.88,0.615,1891.6666666666667
0.905,0.625,1894.4444444444443
0.915,0.65,1897.2222222222222
0.935,0.65,1900.0
0.95,0.65,1902.7777777777778
0.94,0.645,1905.5555555555557
0.95,0.635,1908.3333333333333
0.94,0.63,1911.111111111111
0.955,0.64,1913.888888888889
0.96,0.635,1916.6666666666667
0.95,0.665,1919.4444444444443
0.945,0.645,1922.2222222222222
0.93,0.625,1925.0
0.925,0.615,1927.7777777777778
0.92,0.615,1930.5555555555557
0.91,0.595,1933.3333333333333
0.88,0.59,1936.111111111111
0.865,0.56,1938.888888888889
0.83,0.535,1941.6666666666667
0.805,0.52,1944.4444444444443
0.785,0.5,1947.2222222222222
0.77,0.485,1950.0
0.745,0.455,1952.7777777777778
0.715,0.435,1955.5555555555557
0.68,0.4,1958.3333333333333
0.65,0.375,1961.111111111111
0.62,0.36,1963.888888888889
0.595,0.34,1966.6666666666667
0.555,0.29,1969.4444444444443
0.525,0.255,1972.2222222222222
0.485,0.205,1975.0
0.42,0.19,1977.7777777777778
0.395,0.17,1980.5555555555557
0.365,0.17,1983.3333333333333
0.33,0.155,1986.111111111111
0.29,0.115,1988.888888888889
0.235,0.07,1991.6666666666667
0.195,0.05,1994.4444444444443
0.17,0.045,1997.2222222222222
0.155,0.045,2000.0
0.1,0.025,2002.7777777777778
0.06,-0.005,2005.5555555555557
0.025,-0.015,2008.3333333333333
-0.025,-0.015,2011.111111111111
-0.04,-0.02,2013.888888888889
-0.075,-0.03,2016.6666666666667
-0.1,-0.045,2019.4444444444443
-0.135,-0.06,2022.2222222222222
-0.165,-0.07,2025.0
-0.21,-0.065,2027.7777777777778
-0.21,-0.06,2030.5555555555557
-0.21,-0.065,2033.3333333333333
-0.23,-0.065,2036.111111111111
-0.25,-0.085,2038.888888888889
-0.265,-0.09,2041.6666666666667
-0.295,-0.09,2044.4444444444443
-0.295,-0.085,2047.2222222222222
-0.29,-0.08,2050.0
-0.305,-0.085,2052.777777777778
-0.31,-0.1,2055.5555555555557
-0.315,-0.095,2058.3333333333335
-0.325,-0.095,2061.1111111111113
-0.34,-0.085,2063.8888888888887
-0.345,-0.065,2066.6666666666665
-0.35,-0.075,2069.4444444444443
-0.355,-0.085,2072.222222222222
-0.355,-0.1,2075.0
-0.365,-0.085,2077.777777777778
-0.36,-0.09,2080.5555555555557
-0.345,-0.08,2083.3333333333335
-0.36,-0.085,2086.1111111111113
-0.37,-0.09,2088.8888888888887
-0.375,-0.095,2091.6666666666665
-0.385,-0.09,2094.4444444444443
-0.375,-0.08,2097.222222222222
-0.365,-0.07,2100.0
-0.38,-0.055,2102.777777777778
-0.38,-0.065,2105.5555555555557
-0.375,-0.045,2108.3333333333335
-0.375,-0.01,2111.1111111111113
-0.37,0.03,2113.8888888888887
-0.355,0.055,2116.6666666666665
-0.34,0.065,2119.4444444444443
-0.33,0.065,2122.222222222222
-0.32,0.06,2125.0
-0.31,0.09,2127.777777777778
-0.27,0.11,2130.5555555555557
-0.23,0.13,2133.3333333333335
-0.18,0.145,2136.1111111111113
-0.15,0.135,2138.8888888888887
-0.12,0.145,2141.6666666666665
-0.11,0.15,2144.4444444444443
-0.085,0.135,2147.222222222222
-0.06,0.125,2150.0
-0.05,0.065,2152.777777777778
-0.035,0.02,2155.5555555555557
-0.025,-0.005,2158.3333333333335
-0.015,-0.02,2161.1111111111113
0.005,-0.025,2163.8888888888887
0.005,-0.035,2166.6666666666665
-0.025,-0.06,2169.4444444444443
-0.055,-0.09,2172.222222222222
-0.085,-0.095,2175.0
-0.1,-0.1,2177.777777777778
-0.1,-0.11,2180.5555555555557
-0.095,-0.11,2183.3333333333335
-0.08,-0.125,2186.1111111111113
-0.075,-0.135,2188.8888888888887
-0.085,-0.14,2191.6666666666665
-0.1,-0.14,2194.4444444444443
-0.075,-0.135,2197.222222222222
-0.08,-0.14,2200.0
-0.095,-0.145,2202.777777777778
-0.11,-0.145,2205.5555555555557
-0.13,-0.17,2208.3333333333335
-0.155,-0.175,2211.1111111111113
-0.165,-0.155,2213.8888888888887
-0.2,-0.145,2216.6666666666665
-0.225,-0.145,2219.4444444444443
-0.245,-0.14,2222.222222222222
-0.255,-0.13,2225.0
-0.29,-0.14,2227.777777777778
-0.305,-0.145,2230.5555555555557
-0.33,-0.15,2233.3333333333335
-0.33,-0.16,2236.1111111111113
-0.36,-0.175,2238.8888888888887
-0.385,-0.175,2241.6666666666665
-0.405,-0.17,2244.4444444444443
-0.42,-0.165,2247.222222222222
-0.425,-0.18,2250.0
-0.45,-0.19,2252.777777777778
-0.44,-0.19,2255.5555555555557
-0.48,-0.205,2258.3333333333335
-0.475,-0.2,2261.1111111111113
-0.47,-0.2,2263.8888888888887
-0.47,-0.2,2266.6666666666665
-0.48,-0.2,2269.4444444444443
-0.495,-0.205,2272.222222222222
-0.495,-0.22,2275.0
-0.505,-0.21,2277.777777777778
-0.495,-0.215,2280.5555555555557
-0.485,-0.2,2283.3333333333335
-0.49,-0.205,2286.1111111111113
-0.49,-0.22,2288.8888888888887
-0.495,-0.24,2291.6666666666665
-0.51,-0.23,2294.4444444444443
-0.515,-0.225,2297.222222222222
-0.5,-0.225,2300.0
-0.505,-0.22,2302.777777777778
-0.51,-0.23,2305.5555555555557
-0.51,-0.23,2308.3333333333335
-0.515,-0.225,2311.1111111111113
-0.51,-0.225,2313.8888888888887
-0.495,-0.22,2316.6666666666665
-0.505,-0.225,2319.4444444444443
-0.505,-0.215,2322.222222222222
-0.51,-0.245,2325.0
-0.515,-0.225,2327.777777777778
-0.51,-0.22,2330.5555555555557
-0.5,-0.22,2333.3333333333335
-0.505,-0.215,2336.1111111111113
-0.52,-0.235,2338.8888888888887
-0.52,-0.245,2341.6666666666665
-0.535,-0.25,2344.4444444444443
-0.53,-0.225,2347.222222222222
-0.515,-0.23,2350.0
-0.51,-0.23,2352.777777777778
-0.505,-0.23,2355.5555555555557
-0.515,-0.24,2358.3333333333335
-0.52,-0.23,2361.1111111111113
-0.53,-0.22,2363.8888888888887
-0.505,-0.215,2366.6666666666665
-0.5,-0.215,2369.4444444444443
-0.5,-0.24,2372.222222222222
-0.505,-0.25,2375.0
-0.52,-0.24,2377.777777777778
-0.515,-0.235,2380.5555555555557
-0.5,-0.22,2383.3333333333335
-0.495,-0.24,2386.1111111111113
-0.5,-0.245,2388.8888888888887
-0.515,-0.25,2391.6666666666665
-0.51,-0.235,2394.4444444444443
-0.515,-0.22,2397.222222222222
-0.5,-0.22,2400.0
-0.48,-0.225,2402.777777777778
-0.475,-0.235,2405.5555555555557
-0.485,-0.26,2408.3333333333335
-0.485,-0.265,2411.1111111111113
-0.475,-0.27,2413.8888888888887
-0.45,-0.27,2416.6666666666665
-0.44,-0.285,2419.4444444444443
-0.425,-0.325,2422.222222222222
-0.42,-0.46,2425.0
-0.4,-0.75,2427.777777777778
-0.35,-1.115,2430.5555555555557
-0.24,-1.2,2433.3333333333335
-0.01,-0.985,2436.1111111111113
0.415,-0.77,2438.8888888888887
0.97,-0.675,2441.6666666666665
1.465,-0.63,2444.4444444444443
1.66,-0.605,2447.222222222222
1.59,-0.565,2450.0
1.47,-0.535,2452.777777777778
1.375,-0.555,2455.5555555555557
1.315,-0.555,2458.3333333333335
1.26,-0.56,2461.1111111111113
1.185,-0.565,2463.8888888888887
1.11,-0.6,2466.6666666666665
1.015,-0.62,2469.4444444444443
0.935,-0.625,2472.222222222222
0.84,-0.655,2475.0
0.755,-0.665,2477.777777777778
0.695,-0.68,2480.5555555555557
0.62,-0.705,2483.3333333333335
0.515,-0.74,2486.1111111111113
0.395,-0.76,2488.8888888888887
0.265,-0.775,2491.6666666666665
0.13,-0.795,2494.4444444444443
0.0,-0.815,2497.222222222222
-0.13,-0.865,2500.0
-0.29,-0.95,2502.777777777778
-0.48,-1.03,2505.5555555555557
-0.69,-1.1,2508.3333333333335
-0.9,-1.14,2511.1111111111113
-1.09,-1.17,2513.8888888888887
-1.28,-1.225,2516.6666666666665
-1.46,-1.29,2519.4444444444443
-1.64,-1.4,2522.222222222222
-1.83,-1.515,2525.0
-1.99,-1.64,2527.777777777778
-2.08,-1.74,2530.5555555555557
-2.13,-1.81,2533.3333333333335
-2.17,-1.855,2536.1111111111113
-2.185,-1.93,2538.8888888888887
-2.215,-2.01,2541.6666666666665
-2.25,-2.08,2544.4444444444443
-2.305,-2.13,2547.222222222222
-2.38,-2.18,2550.0
-2.47,-2.255,2552.777777777778
-2.535,-2.365,2555.5555555555557
-2.585,-2.475,2558.3333333333335
-2.63,-2.51,2561.1111111111113
-2.665,-2.45,2563.8888888888887
-2.65,-2.31,2566.6666666666665
-2.59,-2.15,2569.4444444444443
-2.485,-2.01,2572.222222222222
-2.34,-1.88,2575.0
-2.23,-1.71,2577.777777777778
-2.05,-1.555,2580.5555555555557
-1.875,-1.41,2583.3333333333335
-1.7,-1.295,2586.1111111111113
-1.545,-1.19,2588.8888888888887
-1.435,-1.075,2591.6666666666665
-1.38,-0.97,2594.4444444444443
-1.295,-0.87,2597.222222222222
-1.225,-0.78,2600.0
-1.145,-0.685,2602.777777777778
-1.105,-0.63,2605.5555555555557
-1.06,-0.58,2608.3333333333335
-1.015,-0.515,2611.1111111111113
-0.965,-0.445,2613.8888888888887
-0.935,-0.385,2616.6666666666665
-0.915,-0.33,2619.4444444444443
-0.905,-0.3,2622.222222222222
-0.885,-0.275,2625.0
-0.835,-0.225,2627.777777777778
-0.75,-0.175,2630.5555555555557
-0.675,-0.135,2633.3333333333335
-0.62,-0.09,2636.1111111111113
-0.57,-0.075,2638.8888888888887
-0.53,-0.05,2641.6666666666665
-0.47,-0.025,2644.4444444444443
-0.405,0.02,2647.222222222222
-0.335,0.06,2650.0
-0.27,0.08,2652.777777777778
-0.22,0.085,2655.5555555555557
-0.16,0.09,2658.3333333333335
-0.095,0.12,2661.1111111111113
-0.025,0.135,2663.8888888888887
0.02,0.145,2666.6666666666665
0.09,0.15,2669.4444444444443
0.135,0.14,2672.222222222222
0.155,0.14,2675.0
0.175,0.15,2677.777777777778
0.2,0.185,2680.5555555555557
0.22,0.205,2683.3333333333335
0.235,0.205,2686.1111111111113
0.235,0.2,2688.8888888888887
0.245,0.205,2691.6666666666665
0.265,0.215,2694.4444444444443
0.305,0.24,2697.222222222222
0.33,0.255,2700.0
0.35,0.255,2702.777777777778
0.34,0.265,2705.5555555555557
0.355,0.255,2708.3333333333335
0.36,0.27,2711.1111111111113
0.39,0.28,2713.8888888888887
0.42,0.305,2716.6666666666665
0.425,0.31,2719.4444444444443
0.44,0.3,2722.222222222222
0.44,0.31,2725.0
0.46,0.335,2727.777777777778
0.49,0.34,2730.5555555555557
0.525,0.35,2733.3333333333335
0.535,0.365,2736.1111111111113
0.55,0.375,2738.8888888888887
0.57,0.375,2741.6666666666665
0.585,0.375,2744.4444444444443
0.6,0.41,2747.222222222222
0.63,0.43,2750.0
0.65,0.435,2752.777777777778
0.675,0.43,2755.5555555555557
0.705,0.435,2758.3333333333335
0.73,0.45,2761.1111111111113
0.765,0.475,2763.8888888888887
0.8,0.5,2766.6666666666665
0.805,0.505,2769.4444444444443
0.795,0.51,2772.222222222222
0.815,0.535,2775.0
0.85,0.56,2777.777777777778
0.88,0.56,2780.5555555555557
0.895,0.57,2783.3333333333335
0.895,0.565,2786.1111111111113
0.895,0.57,2788.8888888888887
0.885,0.595,2791.6666666666665
0.905,0.595,2794.4444444444443
0.92,0.615,2797.222222222222
0.925,0.61,2800.0
0.925,0.6,2802.777777777778
0.92,0.595,2805.5555555555557
0.93,0.605,2808.3333333333335
0.94,0.615,2811.1111111111113
0.955,0.615,2813.8888888888887
0.945,0.605,2816.6666666666665
0.93,0.59,2819.4444444444443
0.905,0.585,2822.222222222222
0.89,0.575,2825.0
0.88,0.57,2827.777777777778
0.88,0.565,2830.5555555555557
0.855,0.55,2833.3333333333335
0.835,0.525,2836.1111111111113
0.815,0.495,2838.8888888888887
0.79,0.495,2841.6666666666665
0.78,0.475,2844.4444444444443
0.755,0.465,2847.222222222222
0.74,0.435,2850.0
0.71,0.405,2852.777777777778
0.675,0.375,2855.5555555555557
0.65,0.355,2858.3333333333335
0.62,0.345,2861.1111111111113
0.615,0.34,2863.8888888888887
0.6,0.34,2866.6666666666665
0.555,0.32,2869.4444444444443
0.525,0.31,2872.222222222222
0.495,0.305,2875.0
0.475,0.305,2877.777777777778
0.455,0.315,2880.5555555555557
0.45,0.285,2883.3333333333335
0.435,0.255,2886.1111111111113
0.405,0.23,2888.8888888888887
0.4,0.22,2891.6666666666665
0.395,0.22,2894.4444444444443
0.405,0.23,2897.222222222222
0.4,0.205,2900.0
0.385,0.17,2902.777777777778
0.365,0.125,2905.5555555555557
0.325,0.09,2908.3333333333335
0.32,0.055,2911.1111111111113
0.315,0.035,2913.8888888888887
0.31,-0.005,2916.6666666666665
0.3,-0.03,2919.4444444444443
0.285,-0.07,2922.222222222222
0.235,-0.095,2925.0
0.195,-0.105,2927.777777777778
0.16,-0.115,2930.5555555555557
0.11,-0.12,2933.3333333333335
0.08,-0.13,2936.1111111111113
0.04,-0.14,2938.8888888888887
0.01,-0.145,2941.6666666666665
0.02,-0.135,2944.4444444444443
0.02,-0.135,2947.222222222222
0.015,-0.135,2950.0
-0.01,-0.14,2952.777777777778
-0.035,-0.15,2955.5555555555557
-0.05,-0.145,2958.3333333333335
-0.07,-0.12,2961.1111111111113
-0.085,-0.12,2963.8888888888887
-0.105,-0.13,2966.6666666666665
-0.12,-0.14,2969.4444444444443
-0.15,-0.135,2972.222222222222
-0.18,-0.125,2975.0
-0.21,-0.125,2977.777777777778
-0.23,-0.11,2980.5555555555557
-0.25,-0.1,2983.3333333333335
-0.29,-0.115,2986.1111111111113
-0.32,-0.125,2988.8888888888887
-0.36,-0.125,2991.6666666666665
-0.37,-0.125,2994.4444444444443
-0.4,-0.11,2997.222222222222
-0.415,-0.1,3000.0
-0.435,-0.11,3002.777777777778
-0.46,-0.125,3005.5555555555557
-0.47,-0.135,3008.3333333333335
-0.465,-0.13,3011.1111111111113
-0.48,-0.12,3013.8888888888887
-0.49,-0.13,3016.6666666666665
-0.515,-0.13,3019.4444444444443
-0.535,-0.14,3022.222222222222
-0.55,-0.12,3025.0
-0.545,-0.115,3027.777777777778
-0.54,-0.115,3030.5555555555557
-0.545,-0.115,3033.3333333333335
-0.55,-0.12,3036.1111111111113
-0.545,-0.115,3038.8888888888887
-0.56,-0.11,3041.6666666666665
-0.555,-0.095,3044.4444444444443
-0.55,-0.1,3047.222222222222
-0.555,-0.105,3050.0
-0.56,-0.115,3052.777777777778
-0.565,-0.115,3055.5555555555557
-0.585,-0.115,3058.3333333333335
-0.57,-0.1,3061.1111111111113
-0.55,-0.095,3063.8888888888887
-0.565,-0.105,3066.6666666666665
-0.555,-0.12,3069.4444444444443
-0.575,-0.12,3072.222222222222
-0.57,-0.125,3075.0
-0.57,-0.11,3077.777777777778
-0.555,-0.095,3080.5555555555557
-0.55,-0.12,3083.3333333333335
-0.555,-0.115,3086.1111111111113
-0.55,-0.145,3088.8888888888887
-0.56,-0.14,3091.6666666666665
-0.56,-0.13,3094.4444444444443
-0.545,-0.125,3097.222222222222
-0.55,-0.125,3100.0
-0.55,-0.14,3102.777777777778
-0.565,-0.15,3105.5555555555557
-0.55,-0.14,3108.3333333333335
-0.555,-0.135,3111.1111111111113
-0.54,-0.12,3113.8888888888887
-0.565,-0.125,3116.6666666666665
-0.575,-0.145,3119.4444444444443
-0.595,-0.145,3122.222222222222
-0.615,-0.14,3125.0
-0.62,-0.125,3127.777777777778
-0.605,-0.135,3130.5555555555557
-0.58,-0.14,3133.3333333333335
-0.585,-0.15,3136.1111111111113
-0.585,-0.15,3138.8888888888887
-0.595,-0.14,3141.6666666666665
-0.6,-0.13,3144.4444444444443
-0.59,-0.135,3147.222222222222
-0.605,-0.13,3150.0
-0.6,-0.145,3152.777777777778
-0.585,-0.15,3155.5555555555557
-0.58,-0.135,3158.3333333333335
-0.575,-0.13,3161.1111111111113
-0.575,-0.135,3163.8888888888887
-0.59,-0.12,3166.6666666666665
-0.595,-0.13,3169.4444444444443
-0.615,-0.12,3172.222222222222
-0.585,-0.135,3175.0
-0.565,-0.115,3177.777777777778
-0.545,-0.105,3180.5555555555557
-0.555,-0.11,3183.3333333333335
-0.56,-0.11,3186.1111111111113
-0.57,-0.115,3188.8888888888887
-0.575,-0.115,3191.6666666666665
-0.56,-0.095,3194.4444444444443
-0.57,-0.09,3197.222222222222
-0.585,-0.105,3200.0
-0.59,-0.105,3202.777777777778
-0.59,-0.11,3205.5555555555557
-0.59,-0.095,3208.3333333333335
-0.58,-0.08,3211.1111111111113
-0.57,-0.075,3213.8888888888887
-0.55,-0.075,3216.6666666666665
-0.535,-0.085,3219.4444444444443
-0.54,-0.095,3222.222222222222
-0.55,-0.075,3225.0
-0.535,-0.065,3227.777777777778
-0.515,-0.06,3230.5555555555557
-0.515,-0.08,3233.3333333333335
-0.525,-0.075,3236.1111111111113
-0.545,-0.07,3238.8888888888887
-0.565,-0.06,3241.6666666666665
-0.56,-0.055,3244.4444444444443
-0.55,-0.045,3247.222222222222
-0.515,-0.065,3250.0
-0.51,-0.065,3252.777777777778
-0.51,-0.065,3255.5555555555557
-0.53,-0.065,3258.3333333333335
-0.515,-0.06,3261.1111111111113
-0.515,-0.06,3263.8888888888887
-0.5,-0.065,3266.6666666666665
-0.495,-0.06,3269.4444444444443
-0.495,-0.07,3272.222222222222
-0.49,-0.08,3275.0
-0.49,-0.065,3277.777777777778
-0.48,-0.06,3280.5555555555557
-0.475,-0.06,3283.3333333333335
-0.47,-0.065,3286.1111111111113
-0.47,-0.085,3288.8888888888887
-0.465,-0.07,3291.6666666666665
-0.465,-0.065,3294.4444444444443
-0.455,-0.07,3297.222222222222
-0.46,-0.09,3300.0
-0.45,-0.085,3302.777777777778
-0.435,-0.09,3305.5555555555557
-0.44,-0.1,3308.3333333333335
-0.425,-0.11,3311.1111111111113
-0.405,-0.145,3313.8888888888887
-0.4,-0.26,3316.6666666666665
-0.38,-0.545,3319.4444444444443
-0.325,-0.955,3322.222222222222
-0.215,-1.125,3325.0
0.05,-0.9,3327.777777777778
0.54,-0.615,3330.5555555555557
1.15,-0.47,3333.3333333333335
1.595,-0.455,3336.1111111111113
1.705,-0.45,3338.8888888888887
1.57,-0.42,3341.6666666666665
1.43,-0.39,3344.4444444444443
1.36,-0.375,3347.222222222222
1.315,-0.38,3350.0
1.25,-0.405,3352.777777777778
1.16,-0.415,3355.5555555555557
1.055,-0.425,3358.3333333333335
0.965,-0.425,3361.1111111111113
0.885,-0.44,3363.8888888888887
0.795,-0.455,3366.6666666666665
0.715,-0.48,3369.4444444444443
0.6,-0.52,3372.222222222222
0.47,-0.525,3375.0
0.34,-0.53,3377.777777777778
0.215,-0.535,3380.5555555555557
0.065,-0.57,3383.3333333333335
-0.095,-0.61,3386.1111111111113
-0.265,-0.685,3388.8888888888887
-0.435,-0.75,3391.6666666666665
-0.615,-0.805,3394.4444444444443
-0.82,-0.86,3397.222222222222
-1.025,-0.88,3400.0
-1.24,-0.935,3402.777777777778
-1.425,-0.99,3405.5555555555557
-1.6,-1.07,3408.3333333333335
-1.745,-1.19,3411.1111111111113
-1.9,-1.31,3413.8888888888887
-2.005,-1.43,3416.6666666666665
-2.085,-1.515,3419.4444444444443
-2.14,-1.57,3422.222222222222
-2.17,-1.645,3425.0
-2.19,-1.705,3427.777777777778
-2.23,-1.785,3430.5555555555557
-2.295,-1.895,3433.3333333333335
-2.395,-2.005,3436.1111111111113
-2.47,-2.11,3438.8888888888887
-2.55,-2.24,3441.6666666666665
-2.59,-2.34,3444.4444444444443
-2.64,-2.365,3447.222222222222
-2.68,-2.27,3450.0
-2.685,-2.13,3452.777777777778
-2.61,-1.985,3455.5555555555557
-2.46,-1.815,3458.3333333333335
-2.265,-1.65,3461.1111111111113
-2.07,-1.485,3463.8888888888887
-1.87,-1.325,3466.6666666666665
-1.685,-1.18,3469.4444444444443
-1.545,-1.085,3472.222222222222
-1.46,-0.95,3475.0
-1.385,-0.82,3477.777777777778
-1.315,-0.685,3480.5555555555557
-1.23,-0.575,3483.3333333333335
-1.17,-0.495,3486.1111111111113
-1.12,-0.425,3488.8888888888887
-1.065,-0.345,3491.6666666666665
-1.0,-0.255,3494.4444444444443
-0.955,-0.18,3497.222222222222
-0.94,-0.125,3500.0
-0.935,-0.08,3502.777777777778
-0.935,-0.045,3505.5555555555557
-0.915,0.015,3508.3333333333335
-0.845,0.055,3511.1111111111113
-0.775,0.09,3513.8888888888887
-0.7,0.12,3516.6666666666665
-0.655,0.15,3519.4444444444443
-0.605,0.18,3522.222222222222
-0.55,0.22,3525.0
-0.495,0.26,3527.777777777778
-0.435,0.285,3530.5555555555557
-0.375,0.325,3533.3333333333335
-0.32,0.335,3536.1111111111113
-0.24,0.34,3538.8888888888887
-0.165,0.37,3541.6666666666665
-0.095,0.39,3544.4444444444443
-0.045,0.405,3547.222222222222
0.015,0.395,3550.0
0.06,0.405,3552.777777777778
0.09,0.4,3555.5555555555557
0.12,0.42,3558.3333333333335
0.145,0.445,3561.1111111111113
0.175,0.45,3563.8888888888887
0.185,0.465,3566.6666666666665
0.195,0.46,3569.4444444444443
0.2,0.455,3572.222222222222
0.23,0.475,3575.0
0.255,0.49,3577.777777777778
0.285,0.505,3580.5555555555557
0.285,0.515,3583.3333333333335
0.3,0.515,3586.1111111111113
0.31,0.53,3588.8888888888887
0.34,0.54,3591.6666666666665
0.38,0.575,3594.4444444444443
0.41,0.605,3597.222222222222
0.435,0.635,3600.0
0.46,0.655,3602.777777777778
0.485,0.685,3605.5555555555557
0.515,0.705,3608.3333333333335
0.54,0.75,3611.1111111111113
0.58,0.76,3613.8888888888887
0.625,0.775,3616.6666666666665
0.655,0.785,3619.4444444444443
0.71,0.795,3622.222222222222
0.765,0.825,3625.0
0.825,0.855,3627.777777777778
0.895,0.885,3630.5555555555557
0.93,0.89,3633.3333333333335
0.98,0.875,3636.1111111111113
1.005,0.845,3638.8888888888887
1.04,0.835,3641.6666666666665
1.08,0.82,3644.4444444444443
1.105,0.82,3647.222222222222
1.145,0.82,3650.0
1.17,0.815,3652.777777777778
1.195,0.78,3655.5555555555557
1.195,0.785,3658.3333333333335
1.195,0.795,3661.1111111111113
1.195,0.805,3663.8888888888887
1.195,0.79,3666.6666666666665
1.2,0.79,3669.4444444444443
1.2,0.78,3672.222222222222
1.21,0.805,3675.0
1.2,0.81,3677.777777777778
1.22,0.83,3680.5555555555557
1.225,0.83,3683.3333333333335
1.21,0.81,3686.1111111111113
1.185,0.805,3688.8888888888887
1.175,0.8,3691.6666666666665
1.175,0.815,3694.4444444444443
1.16,0.79,3697.222222222222
1.125,0.78,3700.0
1.08,0.775,3702.777777777778
1.045,0.745,3705.5555555555557
1.005,0.755,3708.3333333333335
0.975,0.75,3711.1111111111113
0.945,0.735,3713.8888888888887
0.895,0.72,3716.6666666666665
0.85,0.675,3719.4444444444443
0.795,0.655,3722.222222222222
0.745,0.62,3725.0
0.7,0.6,3727.777777777778
0.665,0.57,3730.5555555555557
0.635,0.535,3733.3333333333335
0.57,0.5,3736.1111111111113
0.53,0.455,3738.8888888888887
0.475,0.435,3741.6666666666665
0.43,0.41,3744.4444444444443
0.38,0.39,3747.222222222222
0.325,0.355,3750.0
0.275,0.34,3752.777777777778
0.225,0.305,3755.5555555555557
0.18,0.275,3758.3333333333335
0.14,0.27,3761.1111111111113
0.105,0.25,3763.8888888888887
0.045,0.225,3766.6666666666665
-0.005,0.19,3769.4444444444443
-0.07,0.175,3772.222222222222
-0.11,0.165,3775.0
-0.14,0.16,3777.777777777778
-0.16,0.16,3780.5555555555557
-0.195,0.14,3783.3333333333335
-0.245,0.125,3786.1111111111113
-0.28,0.115,3788.8888888888887
-0.32,0.1,3791.6666666666665
-0.345,0.105,3794.4444444444443
-0.37,0.1,3797.222222222222
-0.4,0.105,3800.0
-0.435,0.085,3802.777777777778
-0.455,0.075,3805.5555555555557
-0.475,0.09,3808.3333333333335
-0.48,0.085,3811.1111111111113
-0.49,0.095,3813.8888888888887
-0.505,0.08,3816.6666666666665
-0.535,0.08,3819.4444444444443
-0.545,0.065,3822.222222222222
-0.565,0.07,3825.0
-0.57,0.085,3827.777777777778
-0.57,0.085,3830.5555555555557
-0.58,0.08,3833.3333333333335
-0.595,0.07,3836.1111111111113
-0.62,0.07,3838.8888888888887
-0.64,0.065,3841.6666666666665
-0.63,0.085,3844.4444444444443
-0.635,0.095,3847.222222222222
-0.63,0.095,3850.0
-0.64,0.085,3852.777777777778
-0.665,0.08,3855.5555555555557
-0.655,0.08,3858.3333333333335
-0.66,0.09,3861.1111111111113
-0.65,0.09,3863.8888888888887
-0.66,0.095,3866.6666666666665
-0.665,0.1,3869.4444444444443
-0.68,0.095,3872.222222222222
-0.69,0.105,3875.0
-0.675,0.115,3877.777777777778
-0.675,0.115,3880.5555555555557
-0.675,0.11,3883.3333333333335
-0.69,0.12,3886.1111111111113
-0.69,0.1,3888.8888888888887
-0.69,0.105,3891.6666666666665
-0.675,0.12,3894.4444444444443
-0.68,0.135,3897.222222222222
-0.69,0.13,3900.0
-0.69,0.115,3902.777777777778
-0.705,0.11,3905.5555555555557
-0.69,0.13,3908.3333333333335
-0.675,0.145,3911.1111111111113
-0.665,0.15,3913.8888888888887
-0.665,0.145,3916.6666666666665
-0.66,0.14,3919.4444444444443
-0.675,0.135,3922.222222222222
-0.675,0.14,3925.0
-0.67,0.155,3927.777777777778
-0.66,0.17,3930.5555555555557
-0.645,0.17,3933.3333333333335
-0.66,0.155,3936.1111111111113
-0.67,0.155,3938.8888888888887
-0.67,0.165,3941.6666666666665
-0.655,0.17,3944.4444444444443
-0.645,0.16,3947.222222222222
-0.64,0.15,3950.0
-0.64,0.145,3952.777777777778
-0.645,0.15,3955.5555555555557
-0.645,0.15,3958.3333333333335
-0.64,0.145,3961.1111111111113
-0.62,0.15,3963.8888888888887
-0.62,0.15,3966.6666666666665
-0.625,0.145,3969.4444444444443
-0.61,0.135,3972.222222222222
-0.625,0.14,3975.0
-0.605,0.155,3977.777777777778
-0.605,0.155,3980.5555555555557
-0.61,0.135,3983.3333333333335
-0.61,0.13,3986.1111111111113
-0.615,0.12,3988.8888888888887
-0.615,0.125,3991.6666666666665
-0.605,0.125,3994.4444444444443
-0.595,0.145,3997.222222222222
-0.6,0.135,4000.0
-0.595,0.12,4002.777777777778
-0.6,0.11,4005.5555555555557
-0.605,0.105,4008.3333333333335
-0.585,0.12,4011.1111111111113
-0.57,0.125,4013.8888888888887
-0.57,0.115,4016.6666666666665
-0.585,0.105,4019.4444444444443
-0.6,0.105,4022.222222222222
-0.61,0.105,4025.0
-0.605,0.115,4027.777777777778
-0.595,0.115,4030.5555555555557
-0.595,0.115,4033.3333333333335
-0.605,0.1,4036.1111111111113
-0.6,0.095,4038.8888888888887
-0.61,0.11,4041.6666666666665
-0.59,0.11,4044.4444444444443
-0.585,0.12,4047.222222222222
-0.58,0.095,4050.0
-0.585,0.09,4052.777777777778
-0.595,0.095,4055.5555555555557
-0.6,0.095,4058.3333333333335
-0.595,0.095,4061.1111111111113
-0.585,0.11,4063.8888888888887
-0.585,0.105,4066.6666666666665
-0.59,0.095,4069.4444444444443
-0.59,0.09,4072.222222222222
-0.58,0.09,4075.0
-0.575,0.105,4077.777777777778
-0.565,0.1,4080.5555555555557
-0.565,0.1,4083.3333333333335
-0.58,0.08,4086.1111111111113
-0.58,0.09,4088.8888888888887
-0.58,0.085,4091.6666666666665
-0.57,0.095,4094.4444444444443
-0.565,0.1,4097.222222222223
-0.56,0.09,4100.0
-0.575,0.08,4102.777777777777
-0.585,0.08,4105.555555555556
-0.59,0.09,4108.333333333333
-0.555,0.1,4111.111111111111
-0.555,0.095,4113.888888888889
-0.565,0.09,4116.666666666667
-0.56,0.075,4119.444444444444
-0.555,0.07,4122.222222222223
-0.55,0.085,4125.0
-0.535,0.095,4127.777777777777
-0.53,0.095,4130.555555555556
-0.54,0.09,4133.333333333333
-0.55,0.08,4136.111111111111
-0.545,0.065,4138.888888888889
-0.565,0.075,4141.666666666667
-0.555,0.085,4144.444444444444
-0.54,0.075,4147.222222222223
-0.54,0.075,4150.0
-0.54,0.065,4152.777777777777
-0.53,0.06,4155.555555555556
-0.535,0.06,4158.333333333333
-0.535,0.07,4161.111111111111
-0.52,0.075,4163.888888888889
-0.51,0.06,4166.666666666667
-0.51,0.04,4169.444444444444
-0.515,0.025,4172.222222222223
-0.52,0.03,4175.0
-0.485,0.02,4177.777777777777
-0.47,0.005,4180.555555555556
-0.465,-0.025,4183.333333333333
-0.445,-0.105,4186.111111111111
-0.445,-0.315,4188.888888888889
-0.42,-0.71,4191.666666666667
-0.35,-1.035,4194.444444444444
-0.19,-0.95,4197.222222222223
0.155,-0.655,4200.0
0.715,-0.435,4202.777777777777
1.3,-0.39,4205.555555555556
1.595,-0.36,4208.333333333333
1.55,-0.345,4211.111111111111
1.37,-0.31,4213.888888888889
1.26,-0.31,4216.666666666667
1.185,-0.325,4219.444444444444
1.125,-0.34,4222.222222222223
1.025,-0.345,4225.0
0.925,-0.35,4227.777777777777
0.81,-0.38,4230.555555555556
0.705,-0.4,4233.333333333333
0.595,-0.435,4236.111111111111
0.475,-0.455,4238.888888888889
0.35,-0.46,4241.666666666667
0.245,-0.47,4244.444444444444
0.105,-0.49,4247.222222222223
-0.07,-0.525,4250.0
-0.26,-0.57,4252.777777777777
-0.45,-0.62,4255.555555555556
-0.64,-0.67,4258.333333333333
-0.835,-0.725,4261.111111111111
-1.03,-0.78,4263.888888888889
-1.28,-0.83,4266.666666666667
-1.51,-0.88,4269.444444444444
-1.715,-0.93,4272.222222222223
-1.895,-0.985,4275.0
-2.065,-1.07,4277.777777777777
-2.195,-1.205,4280.555555555556
-2.295,-1.345,4283.333333333333
-2.395,-1.465,4286.111111111111
-2.46,-1.555,4288.888888888889
-2.485,-1.6,4291.666666666667
-2.51,-1.68,4294.444444444444
-2.54,-1.76,4297.222222222223
-2.615,-1.865,4300.0
-2.69,-1.965,4302.777777777777
-2.76,-2.075,4305.555555555556
-2.82,-2.185,4308.333333333333
-2.875,-2.295,4311.111111111111
-2.91,-2.335,4313.888888888889
-2.945,-2.27,4316.666666666667
-2.94,-2.145,4319.444444444444
-2.845,-1.98,4322.222222222223
-2.665,-1.79,4325.0
-2.44,-1.55,4327.777777777777
-2.2,-1.355,4330.555555555556
-1.975,-1.165,4333.333333333333
-1.77,-1.01,4336.111111111111
-1.625,-0.88,4338.888888888889
-1.535,-0.745,4341.666666666667
-1.425,-0.595,4344.444444444444
-1.33,-0.455,4347.222222222223
-1.22,-0.335,4350.0
-1.105,-0.245,4352.777777777777
-1.015,-0.155,4355.555555555556
-0.925,-0.075,4358.333333333333
-0.845,-0.02,4361.111111111111
-0.78,0.01,4363.888888888889
-0.73,0.02,4366.666666666667
-0.675,0.01,4369.444444444444
-0.63,0.025,4372.222222222223
-0.55,0.045,4375.0
-0.445,0.065,4377.777777777777
-0.355,0.09,4380.555555555556
-0.315,0.095,4383.333333333333
-0.295,0.105,4386.111111111111
-0.26,0.13,4388.888888888889
-0.22,0.15,4391.666666666667
-0.15,0.19,4394.444444444444
-0.08,0.2,4397.222222222223
-0.005,0.225,4400.0
0.07,0.235,4402.777777777777
0.105,0.245,4405.555555555556
0.16,0.25,4408.333333333333
0.22,0.27,4411.111111111111
0.27,0.295,4413.888888888889
0.29,0.29,4416.666666666667
0.31,0.28,4419.444444444444
0.29,0.29,4422.222222222223
0.275,0.315,4425.0
0.28,0.34,4427.777777777777
0.27,0.37,4430.555555555556
0.265,0.375,4433.333333333333
0.255,0.385,4436.111111111111
0.24,0.38,4438.888888888889
0.245,0.385,4441.666666666667
0.255,0.395,4444.444444444444
0.27,0.4,4447.222222222223
0.27,0.405,4450.0
0.275,0.405,4452.777777777777
0.255,0.39,4455.555555555556
0.27,0.415,4458.333333333333
0.305,0.42,4461.111111111111
0.32,0.45,4463.888888888889
0.325,0.45,4466.666666666667
0.32,0.46,4469.444444444444
0.34,0.47,4472.222222222223
0.355,0.495,4475.0
0.39,0.52,4477.777777777777
0.415,0.535,4480.555555555556
0.45,0.54,4483.333333333333
0.48,0.555,4486.111111111111
0.5,0.56,4488.888888888889
0.515,0.59,4491.666666666667
0.55,0.62,4494.444444444444
0.59,0.625,4497.222222222223
0.615,0.635,4500.0
0.64,0.645,4502.777777777777
0.665,0.645,4505.555555555556
0.685,0.67,4508.333333333333
0.715,0.695,4511.111111111111
0.745,0.71,4513.888888888889
0.76,0.72,4516.666666666667
0.77,0.72,4519.444444444444
0.775,0.725,4522.222222222223
0.785,0.74,4525.0
0.805,0.75,4527.777777777777
0.825,0.76,4530.555555555556
0.83,0.755,4533.333333333333
0.815,0.755,4536.111111111111
0.81,0.76,4538.888888888889
0.81,0.74,4541.666666666667
0.82,0.75,4544.444444444444
0.825,0.745,4547.222222222223
0.8,0.725,4550.0
0.775,0.71,4552.777777777777
0.755,0.69,4555.555555555556
0.735,0.68,4558.333333333333
0.7,0.665,4561.111111111111
0.675,0.64,4563.888888888889
0.655,0.62,4566.666666666667
0.615,0.595,4569.444444444444
0.595,0.555,4572.222222222223
0.54,0.535,4575.0
0.525,0.52,4577.777777777777
0.475,0.49,4580.555555555556
0.43,0.465,4583.333333333333
0.375,0.435,4586.111111111111
0.335,0.39,4588.888888888889
0.28,0.37,4591.666666666667
0.24,0.355,4594.444444444444
0.2,0.335,4597.222222222223
0.155,0.3,4600.0
0.1,0.26,4602.777777777777
0.045,0.24,4605.555555555556
0.0,0.22,4608.333333333333
-0.035,0.21,4611.111111111111
-0.065,0.185,4613.888888888889
-0.125,0.165,4616.666666666667
-0.175,0.145,4619.444444444444
-0.235,0.13,4622.222222222223
-0.275,0.13,4625.0
-0.305,0.13,4627.777777777777
-0.335,0.12,4630.555555555556
-0.375,0.1,4633.333333333333
-0.415,0.085,4636.111111111111
-0.465,0.075,4638.888888888889
-0.49,0.08,4641.666666666667
-0.49,0.08,4644.444444444444
-0.5,0.09,4647.222222222223
-0.54,0.085,4650.0
-0.57,0.06,4652.777777777777
-0.595,0.06,4655.555555555556
-0.615,0.07,4658.333333333333
-0.62,0.075,4661.111111111111
-0.62,0.07,4663.888888888889
-0.63,0.065,4666.666666666667
-0.64,0.06,4669.444444444444
-0.655,0.045,4672.222222222223
-0.665,0.055,4675.0
-0.665,0.08,4677.777777777777
-0.665,0.075,4680.555555555556
-0.68,0.07,4683.333333333333
-0.69,0.065,4686.111111111111
-0.705,0.07,4688.888888888889
-0.71,0.075,4691.666666666667
-0.69,0.08,4694.444444444444
-0.69,0.085,4697.222222222223
-0.695,0.09,4700.0
-0.695,0.075,4702.777777777777
-0.71,0.08,4705.555555555556
-0.705,0.07,4708.333333333333
-0.705,0.09,4711.111111111111
-0.68,0.11,4713.888888888889
-0.71,0.095,4716.666666666667
-0.725,0.085,4719.444444444444
-0.72,0.075,4722.222222222223
-0.73,0.08,4725.0
-0.71,0.085,4727.777777777777
-0.71,0.095,4730.555555555556
-0.705,0.085,4733.333333333333
-0.705,0.085,4736.111111111111
-0.695,0.08,4738.888888888889
-0.705,0.095,4741.666666666667
-0.685,0.1,4744.444444444444
-0.675,0.11,4747.222222222223
-0.68,0.095,4750.0
-0.69,0.09,4752.777777777777
-0.7,0.09,4755.555555555556
-0.695,0.09,4758.333333333333
-0.68,0.095,4761.111111111111
-0.67,0.1,4763.888888888889
-0.68,0.1,4766.666666666667
-0.675,0.085,4769.444444444444
-0.67,0.08,4772.222222222223
-0.675,0.09,4775.0
-0.66,0.1,4777.777777777777
-0.645,0.1,4780.555555555556
-0.65,0.095,4783.333333333333
-0.655,0.085,4786.111111111111
-0.665,0.07,4788.888888888889
-0.655,0.085,4791.666666666667
-0.64,0.09,4794.444444444444
-0.615,0.085,4797.222222222223
-0.63,0.09,4800.0
-0.64,0.09,4802.777777777777
-0.655,0.07,4805.555555555556
-0.65,0.085,4808.333333333333
-0.645,0.075,4811.111111111111
-0.62,0.075,4813.888888888889
-0.62,0.065,4816.666666666667
-0.61,0.07,4819.444444444444
-0.63,0.05,4822.222222222223
-0.645,0.05,4825.0
-0.635,0.065,4827.777777777777
-0.63,0.07,4830.555555555556
-0.625,0.055,4833.333333333333
-0.63,0.05,4836.111111111111
-0.64,0.05,4838.888888888889
-0.64,0.04,4841.666666666667
-0.625,0.055,4844.444444444444
-0.625,0.06,4847.222222222223
-0.635,0.06,4850.0
-0.635,0.045,4852.777777777777
-0.64,0.03,4855.555555555556
-0.645,0.045,4858.333333333333
-0.635,0.05,4861.111111111111
-0.625,0.06,4863.888888888889
-0.635,0.055,4866.666666666667
-0.63,0.04,4869.444444444444
-0.63,0.015,4872.222222222223
-0.635,0.03,4875.0
-0.625,0.025,4877.777777777777
-0.635,0.04,4880.555555555556
-0.635,0.045,4883.333333333333
-0.645,0.03,4886.111111111111
-0.65,0.015,4888.888888888889
-0.64,0.025,4891.666666666667
-0.625,0.045,4894.444444444444
-0.61,0.045,4897.222222222223
-0.61,0.035,4900.0
-0.615,0.03,4902.777777777777
-0.625,0.02,4905.555555555556
-0.63,0.01,4908.333333333333
-0.63,0.035,4911.111111111111
-0.625,0.04,4913.888888888889
-0.605,0.03,4916.666666666667
-0.61,0.015,4919.444444444444
-0.615,0.015,4922.222222222223
-0.63,0.025,4925.0
-0.605,0.03,4927.777777777777
-0.6,0.04,4930.555555555556
-0.6,0.035,4933.333333333333
-0.61,0.02,4936.111111111111
-0.62,0.015,4938.888888888889
-0.63,0.03,4941.666666666667
-0.615,0.035,4944.444444444444
-0.58,0.03,4947.222222222223
-0.59,0.035,4950.0
-0.6,0.02,4952.777777777777
-0.61,0.005,4955.555555555556
-0.61,0.01,4958.333333333333
-0.6,0.015,4961.111111111111
-0.605,0.02,4963.888888888889
-0.595,0.03,4966.666666666667
-0.605,0.0,4969.444444444444
-0.6,-0.01,4972.222222222223
-0.605,0.005,4975.0
-0.575,0.02,4977.777777777777
-0.575,0.02,4980.555555555556
-0.585,0.005,4983.333333333333
-0.585,0.0,4986.111111111111
-0.585,-0.01,4988.888888888889
-0.58,0.005,4991.666666666667
-0.565,0.01,4994.444444444444
-0.555,0.0,4997.222222222223
-0.56,0.0,5000.0
-0.57,-0.03,5002.777777777777
-0.575,-0.03,5005.555555555556
-0.575,-0.04,5008.333333333333
-0.56,-0.03,5011.111111111111
-0.54,-0.045,5013.888888888889
-0.525,-0.065,5016.666666666667
-0.505,-0.115,5019.444444444444
-0.485,-0.225,5022.222222222223
-0.47,-0.5,5025.0
-0.425,-0.875,5027.777777777777
-0.315,-0.945,5030.555555555556
-0.075,-0.665,5033.333333333333
0.41,-0.38,5036.111111111111
1.025,-0.255,5038.888888888889
1.445,-0.195,5041.666666666667
1.46,-0.17,5044.444444444444
1.28,-0.16,5047.222222222223
1.115,-0.13,5050.0
1.075,-0.135,5052.777777777777
1.035,-0.145,5055.555555555556
1.0,-0.14,5058.333333333333
0.93,-0.16,5061.111111111111
0.845,-0.18,5063.888888888889
0.745,-0.25,5066.666666666667
0.64,-0.33,5069.444444444444
0.54,-0.395,5072.222222222223
0.445,-0.435,5075.0
0.375,-0.465,5077.777777777777
0.285,-0.485,5080.555555555556
0.135,-0.525,5083.333333333333
-0.04,-0.59,5086.111111111111
-0.23,-0.645,5088.888888888889
-0.45,-0.695,5091.666666666667
-0.655,-0.76,5094.444444444444
-0.86,-0.84,5097.222222222223
-1.105,-0.9,5100.0
-1.37,-0.96,5102.777777777777
-1.605,-0.985,5105.555555555556
-1.81,-1.055,5108.333333333333
-1.98,-1.16,5111.111111111111
-2.13,-1.285,5113.888888888889
-2.255,-1.43,5116.666666666667
-2.32,-1.565,5119.444444444444
-2.39,-1.655,5122.222222222223
-2.44,-1.725,5125.0
-2.45,-1.795,5127.777777777777
-2.5,-1.865,5130.555555555556
-2.61,-1.955,5133.333333333333
-2.71,-2.035,5136.111111111111
-2.79,-2.13,5138.888888888889
-2.865,-2.24,5141.666666666667
-2.91,-2.34,5144.444444444444
-2.945,-2.375,5147.222222222223
-2.96,-2.305,5150.0
-2.95,-2.175,5152.777777777777
-2.87,-2.015,5155.555555555556
-2.695,-1.86,5158.333333333333
-2.49,-1.67,5161.111111111111
-2.305,-1.51,5163.888888888889
-2.135,-1.35,5166.666666666667
-1.98,-1.23,5169.444444444444
-1.85,-1.125,5172.222222222223
-1.735,-0.975,5175.0
-1.625,-0.835,5177.777777777777
-1.515,-0.7,5180.555555555556
-1.425,-0.61,5183.333333333333
-1.355,-0.52,5186.111111111111
-1.29,-0.455,5188.888888888889
-1.22,-0.37,5191.666666666667
-1.18,-0.275,5194.444444444444
-1.145,-0.245,5197.222222222223
-1.135,-0.205,5200.0
-1.115,-0.17,5202.777777777777
-1.085,-0.12,5205.555555555556
-1.05,-0.07,5208.333333333333
-0.955,-0.05,5211.111111111111
-0.89,-0.005,5213.888888888889
-0.81,0.03,5216.666666666667
-0.755,0.05,5219.444444444444
-0.7,0.065,5222.222222222223
-0.64,0.105,5225.0
-0.54,0.15,5227.777777777777
-0.45,0.17,5230.555555555556
-0.38,0.185,5233.333333333333
-0.335,0.18,5236.111111111111
-0.28,0.2,5238.888888888889
-0.23,0.215,5241.666666666667
-0.17,0.23,5244.444444444444
-0.09,0.24,5247.222222222223
-0.045,0.25,5250.0
-0.02,0.25,5252.777777777777
-0.01,0.25,5255.555555555556
0.01,0.275,5258.333333333333
0.03,0.29,5261.111111111111
0.065,0.305,5263.888888888889
0.075,0.32,5266.666666666667
0.095,0.315,5269.444444444444
0.11,0.315,5272.222222222223
0.125,0.34,5275.0
0.16,0.365,5277.777777777777
0.175,0.38,5280.555555555556
0.195,0.38,5283.333333333333
0.205,0.385,5286.111111111111
0.225,0.385,5288.888888888889
0.24,0.41,5291.666666666667
0.265,0.44,5294.444444444444
0.29,0.45,5297.222222222223
0.325,0.45,5300.0
0.355,0.46,5302.777777777777
0.39,0.47,5305.555555555556
0.415,0.49,5308.333333333333
0.465,0.515,5311.111111111111
0.475,0.535,5313.888888888889
0.51,0.54,5316.666666666667
0.535,0.545,5319.444444444444
0.57,0.55,5322.222222222223
0.6,0.575,5325.0
0.645,0.6,5327.777777777777
0.695,0.61,5330.555555555556
0.72,0.625,5333.333333333333
0.75,0.63,5336.111111111111
0.77,0.63,5338.888888888889
0.8,0.65,5341.666666666667
0.865,0.66,5344.444444444444
0.895,0.68,5347.222222222223
0.915,0.69,5350.0
0.94,0.68,5352.777777777777
0.94,0.68,5355.555555555556
0.965,0.695,5358.333333333333
0.99,0.715,5361.111111111111
1.01,0.71,5363.888888888889
1.02,0.705,5366.666666666667
1.02,0.695,5369.444444444444
1.01,0.68,5372.222222222223
1.015,0.68,5375.0
1.025,0.69,5377.777777777777
1.035,0.675,5380.555555555556
1.02,0.665,5383.333333333333
1.0,0.64,5386.111111111111
0.975,0.615,5388.888888888889
0.945,0.615,5391.666666666667
0.915,0.6,5394.444444444444
0.89,0.58,5397.222222222223
0.855,0.555,5400.0
0.83,0.515,5402.777777777777
0.785,0.48,5405.555555555556
0.75,0.465,5408.333333333333
0.725,0.44,5411.111111111111
0.68,0.425,5413.888888888889
0.635,0.385,5416.666666666667
0.59,0.335,5419.444444444444
0.545,0.315,5422.222222222223
0.485,0.295,5425.0
0.455,0.285,5427.777777777777
0.42,0.255,5430.555555555556
0.375,0.22,5433.333333333333
0.32,0.18,5436.111111111111
0.27,0.155,5438.888888888889
0.21,0.14,5441.666666666667
0.17,0.12,5444.444444444444
0.145,0.105,5447.222222222223
0.09,0.09,5450.0
0.045,0.055,5452.777777777777
-0.005,0.045,5455.555555555556
-0.05,0.045,5458.333333333333
-0.08,0.03,5461.111111111111
-0.115,0.03,5463.888888888889
-0.165,0.015,5466.666666666667
-0.22,-0.02,5469.444444444444
-0.275,-0.02,5472.222222222223
-0.3,-0.01,5475.0
-0.32,-0.03,5477.777777777777
-0.34,-0.035,5480.555555555556
-0.35,-0.03,5483.333333333333
-0.37,-0.03,5486.111111111111
-0.385,-0.04,5488.888888888889
-0.42,-0.035,5491.666666666667
-0.44,-0.025,5494.444444444444
-0.425,-0.035,5497.222222222223
-0.42,-0.03,5500.0
-0.405,-0.05,5502.777777777777
-0.415,-0.06,5505.555555555556
-0.445,-0.04,5508.333333333333
-0.465,-0.035,5511.111111111111
-0.455,-0.03,5513.888888888889
-0.465,-0.04,5516.666666666667
-0.485,-0.055,5519.444444444444
-0.495,-0.055,5522.222222222223
-0.505,-0.045,5525.0
-0.495,-0.03,5527.777777777777
-0.49,-0.02,5530.555555555556
-0.525,-0.025,5533.333333333333
-0.53,-0.04,5536.111111111111
-0.545,-0.05,5538.888888888889
-0.545,-0.04,5541.666666666667
-0.515,-0.035,5544.444444444444
-0.485,-0.025,5547.222222222223
-0.49,-0.025,5550.0
-0.5,-0.03,5552.777777777777
-0.505,-0.03,5555.555555555556
-0.51,-0.015,5558.333333333333
-0.5,-0.03,5561.111111111111
-0.505,-0.015,5563.888888888889
-0.54,-0.03,5566.666666666667
-0.55,-0.02,5569.444444444444
-0.52,-0.025,5572.222222222223
-0.495,-0.02,5575.0
-0.495,-0.015,5577.777777777777
-0.51,-0.01,5580.555555555556
-0.505,0.0,5583.333333333333
-0.485,-0.02,5586.111111111111
-0.49,-0.025,5588.888888888889
-0.495,-0.025,5591.666666666667
-0.49,-0.01,5594.444444444444
-0.48,0.0,5597.222222222223
-0.48,-0.01,5600.0
-0.495,-0.03,5602.777777777777
-0.505,-0.04,5605.555555555556
-0.505,-0.035,5608.333333333333
-0.49,0.0,5611.111111111111
-0.48,-0.015,5613.888888888889
-0.485,-0.03,5616.666666666667
-0.48,-0.04,5619.444444444444
-0.49,-0.04,5622.222222222223
-0.475,-0.04,5625.0
-0.465,-0.03,5627.777777777777
-0.455,-0.035,5630.555555555556
-0.455,-0.045,5633.333333333333
-0.465,-0.055,5636.111111111111
-0.49,-0.06,5638.888888888889
-0.49,-0.055,5641.666666666667
-0.495,-0.06,5644.444444444444
-0.45,-0.055,5647.222222222223
-0.445,-0.055,5650.0
-0.44,-0.06,5652.777777777777
-0.455,-0.09,5655.555555555556
-0.47,-0.065,5658.333333333333
-0.47,-0.075,5661.111111111111
-0.485,-0.06,5663.888888888889
-0.48,-0.075,5666.666666666667
-0.49,-0.075,5669.444444444444
-0.495,-0.085,5672.222222222223
-0.485,-0.075,5675.0
-0.475,-0.08,5677.777777777777
-0.47,-0.075,5680.555555555556
-0.485,-0.09,5683.333333333333
-0.495,-0.09,5686.111111111111
-0.5,-0.11,5688.888888888889
-0.505,-0.1,5691.666666666667
-0.49,-0.09,5694.444444444444
-0.485,-0.09,5697.222222222223
-0.49,-0.1,5700.0
-0.495,-0.105,5702.777777777777
-0.495,-0.11,5705.555555555556
-0.495,-0.105,5708.333333333333
-0.49,-0.09,5711.111111111111
-0.485,-0.1,5713.888888888889
-0.495,-0.1,5716.666666666667
-0.505,-0.105,5719.444444444444
-0.52,-0.095,5722.222222222223
-0.51,-0.08,5725.0
-0.5,-0.04,5727.777777777777
-0.475,-0.01,5730.555555555556
-0.485,0.005,5733.333333333333
-0.455,0.02,5736.111111111111
-0.46,0.03,5738.888888888889
-0.435,0.045,5741.666666666667
-0.41,0.06,5744.444444444444
-0.395,0.08,5747.222222222223
-0.37,0.085,5750.0
-0.315,0.1,5752.777777777777
-0.27,0.105,5755.555555555556
-0.245,0.1,5758.333333333333
-0.205,0.09,5761.111111111111
-0.185,0.045,5763.888888888889
-0.19,-0.005,5766.666666666667
-0.195,-0.045,5769.444444444444
-0.185,-0.07,5772.222222222223
-0.17,-0.08,5775.0
-0.13,-0.085,5777.777777777777
-0.08,-0.095,5780.555555555556
-0.09,-0.125,5783.333333333333
-0.11,-0.14,5786.111111111111
-0.135,-0.155,5788.888888888889
-0.16,-0.155,5791.666666666667
-0.165,-0.165,5794.444444444444
-0.17,-0.18,5797.222222222223
-0.175,-0.175,5800.0
-0.18,-0.16,5802.777777777777
-0.195,-0.165,5805.555555555556
-0.19,-0.175,5808.333333333333
-0.195,-0.16,5811.111111111111
-0.215,-0.17,5813.888888888889
-0.23,-0.175,5816.666666666667
-0.23,-0.19,5819.444444444444
-0.255,-0.2,5822.222222222223
-0.28,-0.195,5825.0
-0.295,-0.175,5827.777777777777
-0.31,-0.18,5830.555555555556
-0.33,-0.17,5833.333333333333
-0.365,-0.165,5836.111111111111
-0.395,-0.18,5838.888888888889
-0.415,-0.175,5841.666666666667
-0.425,-0.2,5844.444444444444
-0.425,-0.215,5847.222222222223
-0.435,-0.26,5850.0
-0.43,-0.355,5852.777777777777
-0.43,-0.635,5855.555555555556
-0.4,-1.015,5858.333333333333
-0.275,-1.155,5861.111111111111
0.02,-0.925,5863.888888888889
0.54,-0.64,5866.666666666667
1.175,-0.53,5869.444444444444
1.545,-0.53,5872.222222222223
1.46,-0.525,5875.0
1.21,-0.49,5877.777777777777
1.045,-0.48,5880.555555555556
0.98,-0.49,5883.333333333333
0.905,-0.52,5886.111111111111
0.8,-0.545,5888.888888888889
0.695,-0.545,5891.666666666667
0.59,-0.565,5894.444444444444
0.485,-0.585,5897.222222222223
0.35,-0.605,5900.0
0.235,-0.635,5902.777777777777
0.125,-0.675,5905.555555555556
0.015,-0.675,5908.333333333333
-0.125,-0.665,5911.111111111111
-0.28,-0.7,5913.888888888889
-0.455,-0.74,5916.666666666667
-0.595,-0.815,5919.444444444444
-0.735,-0.89,5922.222222222223
-0.88,-0.955,5925.0
-1.015,-1.01,5927.777777777777
-1.16,-1.055,5930.555555555556
-1.355,-1.115,5933.333333333333
-1.58,-1.2,5936.111111111111
-1.795,-1.28,5938.888888888889
-1.975,-1.38,5941.666666666667
-2.135,-1.53,5944.444444444444
-2.255,-1.67,5947.222222222223
-2.3,-1.79,5950.0
-2.34,-1.895,5952.777777777777
-2.375,-1.97,5955.555555555556
-2.395,-2.035,5958.333333333333
-2.42,-2.13,5961.111111111111
-2.47,-2.215,5963.888888888889
-2.565,-2.305,5966.666666666667
-2.65,-2.39,5969.444444444444
-2.725,-2.465,5972.222222222223
-2.77,-2.525,5975.0
-2.815,-2.565,5977.777777777777
-2.855,-2.53,5980.555555555556
-2.875,-2.395,5983.333333333333
-2.835,-2.24,5986.111111111111
-2.735,-2.07,5988.888888888889
-2.54,-1.9,5991.666666666667
-2.32,-1.72,5994.444444444444
-2.115,-1.535,5997.222222222223
-1.92,-1.38,6000.0
-1.755,-1.235,6002.777777777777
-1.64,-1.075,6005.555555555556
-1.565,-0.935,6008.333333333333
-1.475,-0.81,6011.111111111111
-1.4,-0.69,6013.888888888889
-1.355,-0.605,6016.666666666667
-1.31,-0.515,6019.444444444444
-1.265,-0.455,6022.222222222223
-1.24,-0.38,6025.0
-1.205,-0.305,6027.777777777777
-1.155,-0.24,6030.555555555556
-1.1,-0.185,6033.333333333333
-1.055,-0.155,6036.111111111111
-1.0,-0.105,6038.888888888889
-0.91,-0.05,6041.666666666667
-0.81,-0.01,6044.444444444444
-0.755,0.015,6047.222222222223
-0.73,0.03,6050.0
-0.7,0.055,6052.777777777777
-0.595,0.09,6055.555555555556
-0.45,0.11,6058.333333333333
-0.3,0.155,6061.111111111111
-0.225,0.16,6063.888888888889
-0.205,0.18,6066.666666666667
-0.175,0.175,6069.444444444444
-0.125,0.18,6072.222222222223
-0.055,0.195,6075.0
0.0,0.2,6077.777777777777
0.02,0.215,6080.555555555556
0.05,0.23,6083.333333333333
0.065,0.225,6086.111111111111
0.08,0.245,6088.888888888889
0.095,0.245,6091.666666666667
0.12,0.275,6094.444444444444
0.165,0.27,6097.222222222223
0.2,0.28,6100.0
0.23,0.28,6102.777777777777
0.255,0.285,6105.555555555556
0.295,0.3,6108.333333333333
0.325,0.33,6111.111111111111
0.36,0.34,6113.888888888889
0.37,0.355,6116.666666666667
0.395,0.36,6119.444444444444
0.41,0.365,6122.222222222223
0.435,0.38,6125.0
0.47,0.395,6127.777777777777
0.515,0.41,6130.555555555556
0.545,0.425,6133.333333333333
0.55,0.425,6136.111111111111
0.59,0.435,6138.888888888889
0.615,0.465,6141.666666666667
0.645,0.48,6144.444444444444
0.7,0.49,6147.222222222223
0.74,0.505,6150.0
0.775,0.505,6152.777777777777
0.81,0.515,6155.555555555556
0.825,0.54,6158.333333333333
0.86,0.565,6161.111111111111
0.9,0.575,6163.888888888889
0.92,0.59,6166.666666666667
0.94,0.585,6169.444444444444
0.955,0.595,6172.222222222223
0.97,0.605,6175.0
1.0,0.63,6177.777777777777
1.025,0.63,6180.555555555556
1.015,0.635,6183.333333333333
1.03,0.63,6186.111111111111
1.02,0.63,6188.888888888889
1.015,0.64,6191.666666666667
1.02,0.645,6194.444444444444
1.03,0.635,6197.222222222223
1.015,0.63,6200.0
1.005,0.61,6202.777777777777
0.995,0.6,6205.555555555556
0.975,0.59,6208.333333333333
0.95,0.585,6211.111111111111
0.945,0.59,6213.888888888889
0.91,0.56,6216.666666666667
0.875,0.525,6219.444444444444
0.835,0.5,6222.222222222223
0.8,0.49,6225.0
0.78,0.485,6227.777777777777
0.75,0.46,6230.555555555556
0.7,0.415,6233.333333333333
0.66,0.38,6236.111111111111
0.6,0.34,6238.888888888889
0.56,0.325,6241.666666666667
0.53,0.3,6244.444444444444
0.495,0.275,6247.222222222223
0.445,0.245,6250.0
0.395,0.2,6252.777777777777
0.355,0.165,6255.555555555556
0.295,0.15,6258.333333333333
0.26,0.135,6261.111111111111
0.225,0.12,6263.888888888889
0.175,0.08,6266.666666666667
0.12,0.05,6269.444444444444
0.06,0.03,6272.222222222223
0.01,0.02,6275.0
-0.02,0.02,6277.777777777777
-0.055,0.005,6280.555555555556
-0.095,-0.01,6283.333333333333
-0.14,-0.035,6286.111111111111
-0.185,-0.05,6288.888888888889
-0.225,-0.055,6291.666666666667
-0.255,-0.055,6294.444444444444
-0.27,-0.05,6297.222222222223
-0.295,-0.06,6300.0
-0.325,-0.085,6302.777777777777
-0.355,-0.09,6305.555555555556
-0.375,-0.09,6308.333333333333
-0.385,-0.065,6311.111111111111
-0.405,-0.07,6313.888888888889
-0.415,-0.07,6316.666666666667
-0.44,-0.085,6319.444444444444
-0.46,-0.085,6322.222222222223
-0.48,-0.08,6325.0
-0.455,-0.07,6327.777777777777
-0.46,-0.07,6330.555555555556
-0.47,-0.065,6333.333333333333
-0.48,-0.085,6336.111111111111
-0.49,-0.095,6338.888888888889
-0.5,-0.085,6341.666666666667
-0.495,-0.065,6344.444444444444
-0.495,-0.065,6347.222222222223
-0.49,-0.06,6350.0
-0.51,-0.07,6352.777777777777
-0.52,-0.075,6355.555555555556
-0.525,-0.07,6358.333333333333
-0.525,-0.06,6361.111111111111
-0.515,-0.055,6363.888888888889
-0.515,-0.055,6366.666666666667
-0.53,-0.07,6369.444444444444
-0.525,-0.07,6372.222222222223
-0.54,-0.065,6375.0
-0.53,-0.05,6377.777777777777
-0.525,-0.04,6380.555555555556
-0.53,-0.045,6383.333333333333
-0.525,-0.06,6386.111111111111
-0.535,-0.055,6388.888888888889
-0.545,-0.055,6391.666666666667
-0.54,-0.03,6394.444444444444
-0.525,-0.045,6397.222222222223
-0.525,-0.03,6400.0
-0.54,-0.045,6402.777777777777
-0.535,-0.04,6405.555555555556
-0.535,-0.015,6408.333333333333
-0.51,0.02,6411.111111111111
-0.5,0.04,6413.888888888889
-0.495,0.06,6416.666666666667
-0.51,0.085,6419.444444444444
-0.505,0.1,6422.222222222223
-0.49,0.12,6425.0
-0.46,0.13,6427.777777777777
-0.435,0.13,6430.555555555556
-0.395,0.16,6433.333333333333
-0.365,0.155,6436.111111111111
-0.325,0.175,6438.888888888889
-0.265,0.2,6441.666666666667
-0.24,0.205,6444.444444444444
-0.2,0.175,6447.222222222223
-0.18,0.14,6450.0
-0.175,0.08,6452.777777777777
-0.18,0.05,6455.555555555556
-0.17,0.035,6458.333333333333
-0.13,0.02,6461.111111111111
-0.1,0.0,6463.888888888889
-0.095,-0.02,6466.666666666667
-0.11,-0.04,6469.444444444444
-0.145,-0.06,6472.222222222223
-0.18,-0.05,6475.0
-0.185,-0.065,6477.777777777777
-0.19,-0.08,6480.555555555556
-0.19,-0.095,6483.333333333333
-0.205,-0.1,6486.111111111111
-0.225,-0.1,6488.888888888889
-0.22,-0.09,6491.666666666667
-0.225,-0.085,6494.444444444444
-0.23,-0.085,6497.222222222223
-0.25,-0.1,6500.0
-0.265,-0.11,6502.777777777777
-0.28,-0.12,6505.555555555556
-0.315,-0.115,6508.333333333333
-0.345,-0.095,6511.111111111111
-0.35,-0.095,6513.888888888889
-0.39,-0.08,6516.666666666667
-0.42,-0.09,6519.444444444444
-0.46,-0.075,6522.222222222223
-0.485,-0.075,6525.0
-0.505,-0.075,6527.777777777777
-0.515,-0.09,6530.555555555556
-0.535,-0.1,6533.333333333333
-0.55,-0.11,6536.111111111111
-0.58,-0.115,6538.888888888889
-0.6,-0.12,6541.666666666667
-0.61,-0.12,6544.444444444444
-0.605,-0.12,6547.222222222223
-0.615,-0.14,6550.0
-0.65,-0.145,6552.777777777777
-0.675,-0.145,6555.555555555556
-0.68,-0.135,6558.333333333333
-0.68,-0.13,6561.111111111111
-0.655,-0.125,6563.888888888889
-0.66,-0.14,6566.666666666667
-0.665,-0.145,6569.444444444444
-0.655,-0.15,6572.222222222223
-0.65,-0.14,6575.0
-0.645,-0.125,6577.777777777777
-0.64,-0.135,6580.555555555556
-0.65,-0.13,6583.333333333333
-0.67,-0.135,6586.111111111111
-0.67,-0.15,6588.888888888889
-0.7,-0.145,6591.666666666667
-0.69,-0.135,6594.444444444444
-0.675,-0.125,6597.222222222223
-0.67,-0.14,6600.0
-0.675,-0.15,6602.777777777777
-0.685,-0.155,6605.555555555556
-0.69,-0.135,6608.333333333333
-0.685,-0.13,6611.111111111111
-0.69,-0.125,6613.888888888889
-0.69,-0.13,6616.666666666667
-0.7,-0.15,6619.444444444444
-0.7,-0.145,6622.222222222223
-0.69,-0.145,6625.0
-0.68,-0.125,6627.777777777777
-0.665,-0.13,6630.555555555556
-0.675,-0.14,6633.333333333333
-0.69,-0.145,6636.111111111111
-0.685,-0.15,6638.888888888889
-0.685,-0.15,6641.666666666667
-0.68,-0.145,6644.444444444444
-0.66,-0.14,6647.222222222223
-0.665,-0.145,6650.0
-0.67,-0.15,6652.777777777777
-0.68,-0.16,6655.555555555556
-0.69,-0.15,6658.333333333333
-0.67,-0.145,6661.111111111111
-0.64,-0.145,6663.888888888889
-0.645,-0.165,6666.666666666667
-0.635,-0.19,6669.444444444444
-0.63,-0.22,6672.222222222223
-0.61,-0.305,6675.0
-0.58,-0.575,6677.777777777777
-0.53,-0.995,6680.555555555556
-0.43,-1.135,6683.333333333333
-0.225,-0.905,6686.111111111111
0.23,-0.625,6688.888888888889
0.865,-0.5,6691.666666666667
1.41,-0.48,6694.444444444444
1.475,-0.465,6697.222222222223
1.265,-0.45,6700.0
1.08,-0.43,6702.777777777777
0.98,-0.435,6705.555555555556
0.92,-0.445,6708.333333333333
0.88,-0.445,6711.111111111111
0.79,-0.465,6713.888888888889
0.68,-0.475,6716.666666666667
0.59,-0.495,6719.444444444444
0.495,-0.505,6722.222222222223
0.42,-0.52,6725.0
0.345,-0.53,6727.777777777777
0.25,-0.545,6730.555555555556
0.145,-0.57,6733.333333333333
0.02,-0.605,6736.111111111111
-0.09,-0.625,6738.888888888889
-0.23,-0.655,6741.666666666667
-0.345,-0.685,6744.444444444444
-0.46,-0.745,6747.222222222223
-0.6,-0.83,6750.0
-0.775,-0.91,6752.777777777777
-0.94,-0.97,6755.555555555556
-1.115,-1.01,6758.333333333333
-1.275,-1.045,6761.111111111111
-1.45,-1.095,6763.888888888889
-1.61,-1.23,6766.666666666667
-1.82,-1.375,6769.444444444444
-2.005,-1.53,6772.222222222223
-2.14,-1.65,6775.0
-2.215,-1.72,6777.777777777777
-2.245,-1.79,6780.555555555556
-2.27,-1.855,6783.333333333333
-2.3,-1.93,6786.111111111111
-2.35,-2.01,6788.888888888889
-2.4,-2.09,6791.666666666667
-2.47,-2.125,6794.444444444444
-2.55,-2.215,6797.222222222223
-2.625,-2.275,6800.0
-2.69,-2.36,6802.777777777777
-2.75,-2.415,6805.555555555556
-2.795,-2.335,6808.333333333333
-2.8,-2.2,6811.111111111111
-2.735,-2.04,6813.888888888889
-2.625,-1.87,6816.666666666667
-2.48,-1.705,6819.444444444444
-2.31,-1.535,6822.222222222223
-2.13,-1.355,6825.0
-1.925,-1.195,6827.777777777777
-1.725,-1.05,6830.555555555556
-1.61,-0.91,6833.333333333333
-1.52,-0.8,6836.111111111111
-1.48,-0.675,6838.888888888889
-1.4,-0.565,6841.666666666667
-1.315,-0.475,6844.444444444444
-1.245,-0.415,6847.222222222223
-1.185,-0.325,6850.0
-1.135,-0.285,6852.777777777777
-1.11,-0.215,6855.555555555556
-1.075,-0.175,6858.333333333333
-1.06,-0.11,6861.111111111111
-1.035,-0.09,6863.888888888889
-1.0,-0.07,6866.666666666667
-0.945,-0.045,6869.444444444444
-0.89,-0.025,6872.222222222223
-0.825,0.025,6875.0
-0.75,0.065,6877.777777777777
-0.685,0.095,6880.555555555556
-0.61,0.13,6883.333333333333
-0.56,0.15,6886.111111111111
-0.495,0.165,6888.888888888889
-0.41,0.2,6891.666666666667
-0.32,0.22,6894.444444444444
-0.26,0.245,6897.222222222223
-0.195,0.255,6900.0
-0.14,0.255,6902.777777777777
-0.11,0.26,6905.555555555556
-0.04,0.275,6908.333333333333
0.005,0.285,6911.111111111111
0.04,0.29,6913.888888888889
0.06,0.31,6916.666666666667
0.07,0.315,6919.444444444444
0.08,0.32,6922.222222222223
0.1,0.335,6925.0
0.14,0.345,6927.777777777777
0.165,0.36,6930.555555555556
0.195,0.37,6933.333333333333
0.19,0.355,6936.111111111111
0.2,0.37,6938.888888888889
0.215,0.385,6941.666666666667
0.245,0.4,6944.444444444444
0.28,0.41,6947.222222222223
0.305,0.42,6950.0
0.31,0.435,6952.777777777777
0.325,0.44,6955.555555555556
0.355,0.455,6958.333333333333
0.39,0.48,6961.111111111111
0.44,0.49,6963.888888888889
0.455,0.5,6966.666666666667
0.475,0.51,6969.444444444444
0.49,0.505,6972.222222222223
0.515,0.535,6975.0
0.555,0.56,6977.777777777777
0.595,0.56,6980.555555555556
0.615,0.57,6983.333333333333
0.635,0.585,6986.111111111111
0.665,0.585,6988.888888888889
0.685,0.615,6991.666666666667
0.715,0.625,6994.444444444444
0.755,0.64,6997.222222222223
0.775,0.65,7000.0
0.795,0.65,7002.777777777777
0.81,0.67,7005.555555555556
0.82,0.68,7008.333333333333
0.855,0.71,7011.111111111111
0.875,0.71,7013.888888888889
0.885,0.71,7016.666666666667
0.88,0.71,7019.444444444444
0.895,0.705,7022.222222222223
0.905,0.715,7025.0
0.915,0.715,7027.777777777777
0.92,0.72,7030.555555555556
0.925,0.72,7033.333333333333
0.91,0.695,7036.111111111111
0.9,0.685,7038.888888888889
0.88,0.695,7041.666666666667
0.88,0.7,7044.444444444444
0.87,0.675,7047.222222222223
0.84,0.645,7050.0
0.815,0.635,7052.777777777777
0.79,0.615,7055.555555555556
0.77,0.595,7058.333333333333
0.745,0.575,7061.111111111111
0.73,0.56,7063.888888888889
0.7,0.535,7066.666666666667
0.66,0.51,7069.444444444444
0.605,0.46,7072.222222222223
0.565,0.445,7075.0
0.545,0.42,7077.777777777777
0.51,0.395,7080.555555555556
0.47,0.365,7083.333333333333
0.42,0.335,7086.111111111111
0.365,0.31,7088.888888888889
0.325,0.26,7091.666666666667
0.285,0.25,7094.444444444444
0.245,0.22,7097.222222222223
0.21,0.195,7100.0
0.155,0.16,7102.777777777777
0.095,0.14,7105.555555555556
0.055,0.13,7108.333333333333
0.025,0.14,7111.111111111111
0.0,0.115,7113.888888888889
-0.045,0.13,7116.666666666667
-0.09,0.12,7119.444444444444
-0.11,0.14,7122.222222222223
-0.13,0.16,7125.0
-0.15,0.165,7127.777777777777
-0.15,0.185,7130.555555555556
-0.18,0.16,7133.333333333333
-0.19,0.155,7136.111111111111
-0.205,0.15,7138.888888888889
-0.19,0.16,7141.666666666667
-0.16,0.18,7144.444444444444
-0.125,0.2,7147.222222222223
-0.095,0.175,7150.0
-0.08,0.155,7152.777777777777
-0.07,0.13,7155.555555555556
-0.085,0.1,7158.333333333333
-0.075,0.075,7161.111111111111
-0.055,0.045,7163.888888888889
-0.05,0.04,7166.666666666667
-0.07,-0.005,7169.444444444444
-0.075,-0.005,7172.222222222223
-0.105,-0.025,7175.0
-0.15,-0.035,7177.777777777777
-0.155,-0.04,7180.555555555556
-0.205,-0.06,7183.333333333333
-0.225,-0.07,7186.111111111111
-0.25,-0.08,7188.888888888889
-0.24,-0.07,7191.666666666667
-0.245,-0.045,7194.444444444444
-0.22,-0.035,7197.222222222223
-0.235,-0.035,7200.0
-0.27,-0.04,7202.777777777777
-0.29,-0.035,7205.555555555556
-0.315,-0.03,7208.333333333333
-0.315,-0.025,7211.111111111111
-0.325,-0.03,7213.888888888889
-0.36,-0.035,7216.666666666667
-0.395,-0.04,7219.444444444444
-0.425,-0.03,7222.222222222223
-0.46,-0.005,7225.0
-0.48,0.015,7227.777777777777
-0.505,0.025,7230.555555555556
-0.535,0.01,7233.333333333333
-0.56,-0.01,7236.111111111111
-0.595,-0.025,7238.888888888889
-0.605,-0.01,7241.666666666667
-0.615,-0.005,7244.444444444444
-0.61,0.01,7247.222222222223
-0.625,-0.02,7250.0
-0.66,-0.025,7252.777777777777
-0.67,-0.035,7255.555555555556
-0.69,-0.04,7258.333333333333
-0.685,-0.015,7261.111111111111
-0.685,-0.01,7263.888888888889
-0.695,-0.025,7266.666666666667
-0.705,-0.035,7269.444444444444
-0.715,-0.04,7272.222222222223
-0.71,-0.02,7275.0
-0.71,-0.005,7277.777777777777
-0.695,-0.015,7280.555555555556
-0.695,-0.015,7283.333333333333
-0.705,-0.02,7286.111111111111
-0.72,-0.025,7288.888888888889
-0.72,-0.035,7291.666666666667
-0.695,-0.01,7294.444444444444
-0.705,-0.01,7297.222222222223
-0.715,-0.025,7300.0
-0.715,-0.025,7302.777777777777
-0.72,-0.04,7305.555555555556
-0.725,-0.03,7308.333333333333
-0.72,-0.02,7311.111111111111
-0.72,-0.02,7313.888888888889
-0.725,-0.035,7316.666666666667
-0.74,-0.055,7319.444444444444
-0.755,-0.055,7322.222222222223
-0.755,-0.05,7325.0
-0.74,-0.035,7327.777777777777
-0.74,-0.03,7330.555555555556
-0.74,-0.035,7333.333333333333
-0.745,-0.045,7336.111111111111
-0.755,-0.06,7338.888888888889
-0.755,-0.055,7341.666666666667
-0.75,-0.04,7344.444444444444
-0.745,-0.04,7347.222222222223
-0.755,-0.04,7350.0
-0.76,-0.055,7352.777777777777
-0.775,-0.06,7355.555555555556
-0.77,-0.04,7358.333333333333
-0.765,-0.03,7361.111111111111
-0.75,-0.035,7363.888888888889
-0.745,-0.04,7366.666666666667
-0.76,-0.04,7369.444444444444
-0.78,-0.065,7372.222222222223
-0.765,-0.04,7375.0
-0.77,-0.035,7377.777777777777
-0.75,-0.03,7380.555555555556
-0.755,-0.035,7383.333333333333
-0.765,-0.045,7386.111111111111
-0.765,-0.05,7388.888888888889
-0.765,-0.03,7391.666666666667
-0.755,-0.015,7394.444444444444
-0.76,-0.025,7397.222222222223
-0.765,-0.02,7400.0
-0.775,-0.04,7402.777777777777
-0.77,-0.035,7405.555555555556
-0.77,-0.03,7408.333333333333
-0.76,-0.02,7411.111111111111
-0.755,-0.03,7413.888888888889
-0.745,-0.01,7416.666666666667
-0.745,-0.025,7419.444444444444
-0.755,-0.025,7422.222222222223
-0.745,-0.015,7425.0
-0.735,0.005,7427.777777777777
-0.725,-0.01,7430.555555555556
-0.725,-0.005,7433.333333333333
-0.735,-0.02,7436.111111111111
-0.75,-0.01,7438.888888888889
-0.74,-0.01,7441.666666666667
-0.73,0.005,7444.444444444444
-0.72,-0.005,7447.222222222223
-0.715,0.005,7450.0
-0.72,-0.005,7452.777777777777
-0.72,-0.02,7455.555555555556
-0.72,-0.015,7458.333333333333
-0.705,-0.005,7461.111111111111
-0.695,-0.005,7463.888888888889
-0.695,-0.02,7466.666666666667
-0.71,-0.025,7469.444444444444
-0.715,-0.03,7472.222222222223
-0.715,-0.025,7475.0
-0.71,-0.005,7477.777777777777
-0.695,-0.01,7480.555555555556
-0.685,-0.015,7483.333333333333
-0.685,-0.03,7486.111111111111
-0.69,-0.03,7488.888888888889
-0.68,-0.03,7491.666666666667
-0.67,-0.02,7494.444444444444
-0.66,-0.035,7497.222222222223
-0.66,-0.03,7500.0
-0.67,-0.045,7502.777777777777
-0.665,-0.055,7505.555555555556
-0.645,-0.055,7508.333333333333
-0.63,-0.05,7511.111111111111
-0.62,-0.06,7513.888888888889
-0.625,-0.07,7516.666666666667
-0.625,-0.095,7519.444444444444
-0.63,-0.12,7522.222222222223
-0.605,-0.185,7525.0
-0.565,-0.4,7527.777777777777
-0.515,-0.77,7530.555555555556
-0.42,-0.98,7533.333333333333
-0.27,-0.87,7536.111111111111
0.09,-0.615,7538.888888888889
0.67,-0.455,7541.666666666667
1.22,-0.425,7544.444444444444
1.49,-0.42,7547.222222222223
1.4,-0.41,7550.0
1.225,-0.385,7552.777777777777
1.105,-0.395,7555.555555555556
1.04,-0.39,7558.333333333333
1.01,-0.39,7561.111111111111
0.93,-0.4,7563.888888888889
0.835,-0.42,7566.666666666667
0.73,-0.445,7569.444444444444
0.615,-0.465,7572.222222222223
0.51,-0.485,7575.0
0.435,-0.5,7577.777777777777
0.345,-0.52,7580.555555555556
0.23,-0.53,7583.333333333333
0.105,-0.555,7586.111111111111
-0.025,-0.58,7588.888888888889
-0.155,-0.585,7591.666666666667
-0.305,-0.62,7594.444444444444
-0.435,-0.66,7597.222222222223
-0.595,-0.715,7600.0
-0.77,-0.795,7602.777777777777
-0.96,-0.87,7605.555555555556
-1.14,-0.905,7608.333333333333
-1.305,-0.94,7611.111111111111
-1.48,-0.97,7613.888888888889
-1.65,-1.015,7616.666666666667
-1.845,-1.125,7619.444444444444
-2.01,-1.235,7622.222222222223
-2.165,-1.35,7625.0
-2.29,-1.47,7627.777777777777
-2.345,-1.565,7630.555555555556
-2.39,-1.63,7633.333333333333
-2.435,-1.695,7636.111111111111
-2.485,-1.765,7638.888888888889
-2.52,-1.82,7641.666666666667
-2.555,-1.895,7644.444444444444
-2.595,-1.96,7647.222222222223
-2.67,-2.035,7650.0
-2.725,-2.115,7652.777777777777
-2.78,-2.22,7655.555555555556
-2.835,-2.315,7658.333333333333
-2.865,-2.325,7661.111111111111
-2.88,-2.245,7663.888888888889
-2.885,-2.105,7666.666666666667
-2.84,-1.98,7669.444444444444
-2.74,-1.845,7672.222222222223
-2.6,-1.665,7675.0
-2.42,-1.515,7677.777777777777
-2.25,-1.375,7680.555555555556
-2.075,-1.255,7683.333333333333
-1.895,-1.135,7686.111111111111
-1.745,-0.985,7688.888888888889
-1.64,-0.86,7691.666666666667
-1.555,-0.725,7694.444444444444
-1.475,-0.62,7697.222222222223
-1.39,-0.52,7700.0
-1.32,-0.43,7702.777777777777
-1.245,-0.35,7705.555555555556
-1.17,-0.27,7708.333333333333
-1.105,-0.195,7711.111111111111
-1.08,-0.16,7713.888888888889
-1.06,-0.12,7716.666666666667
-1.05,-0.085,7719.444444444444
-1.03,-0.05,7722.222222222223
-0.98,-0.015,7725.0
-0.9,0.035,7727.777777777777
-0.83,0.055,7730.555555555556
-0.795,0.09,7733.333333333333
-0.76,0.12,7736.111111111111
-0.72,0.14,7738.888888888889
-0.65,0.18,7741.666666666667
-0.585,0.215,7744.444444444444
-0.51,0.24,7747.222222222223
-0.435,0.255,7750.0
-0.365,0.27,7752.777777777777
-0.305,0.275,7755.555555555556
-0.24,0.29,7758.333333333333
-0.185,0.3,7761.111111111111
-0.115,0.32,7763.888888888889
-0.05,0.325,7766.666666666667
-0.015,0.325,7769.444444444444
0.03,0.335,7772.222222222223
0.045,0.34,7775.0
0.07,0.365,7777.777777777777
0.09,0.38,7780.555555555556
0.105,0.385,7783.333333333333
0.115,0.38,7786.111111111111
0.115,0.385,7788.888888888889
0.13,0.4,7791.666666666667
0.15,0.425,7794.444444444444
0.185,0.42,7797.222222222223
0.195,0.43,7800.0
0.2,0.415,7802.777777777777
0.22,0.43,7805.555555555556
0.24,0.445,7808.333333333333
0.27,0.465,7811.111111111111
0.3,0.465,7813.888888888889
0.32,0.485,7816.666666666667
0.34,0.485,7819.444444444444
0.355,0.5,7822.222222222223
0.38,0.51,7825.0
0.395,0.53,7827.777777777777
0.44,0.565,7830.555555555556
0.475,0.55,7833.333333333333
0.49,0.57,7836.111111111111
0.52,0.575,7838.888888888889
0.54,0.6,7841.666666666667
0.57,0.63,7844.444444444444
0.605,0.665,7847.222222222223
0.65,0.7,7850.0
0.68,0.725,7852.777777777777
0.705,0.755,7855.555555555556
0.75,0.8,7858.333333333333
0.79,0.825,7861.111111111111
0.83,0.84,7863.888888888889
0.895,0.865,7866.666666666667
0.945,0.86,7869.444444444444
0.985,0.87,7872.222222222223
1.04,0.89,7875.0
1.09,0.905,7877.777777777777
1.145,0.92,7880.555555555556
1.17,0.9,7883.333333333333
1.175,0.88,7886.111111111111
1.19,0.855,7888.888888888889
1.19,0.825,7891.666666666667
1.2,0.815,7894.444444444444
1.23,0.8,7897.222222222223
1.255,0.775,7900.0
1.255,0.745,7902.777777777777
1.23,0.705,7905.555555555556
1.19,0.685,7908.333333333333
1.17,0.695,7911.111111111111
1.14,0.665,7913.888888888889
1.115,0.635,7916.666666666667
1.07,0.61,7919.444444444444
1.035,0.595,7922.222222222223
1.015,0.585,7925.0
0.99,0.575,7927.777777777777
0.96,0.555,7930.555555555556
0.925,0.52,7933.333333333333
0.875,0.48,7936.111111111111
0.81,0.455,7938.888888888889
0.76,0.425,7941.666666666667
0.715,0.415,7944.444444444444
0.665,0.38,7947.222222222223
0.61,0.355,7950.0
0.545,0.32,7952.777777777777
0.47,0.3,7955.555555555556
0.415,0.295,7958.333333333333
0.36,0.28,7961.111111111111
0.3,0.245,7963.888888888889
0.225,0.205,7966.666666666667
0.15,0.18,7969.444444444444
0.085,0.135,7972.222222222223
0.02,0.125,7975.0
-0.035,0.11,7977.777777777777
-0.075,0.09,7980.555555555556
-0.13,0.065,7983.333333333333
-0.195,0.04,7986.111111111111
-0.26,0.025,7988.888888888889
-0.31,0.025,7991.666666666667
-0.34,0.025,7994.444444444444
-0.38,0.02,7997.222222222223
-0.415,0.005,8000.0
-0.46,-0.005,8002.777777777777
-0.485,-0.01,8005.555555555556
-0.51,-0.015,8008.333333333333
-0.53,-0.01,8011.111111111111
-0.535,-0.015,8013.888888888889
-0.56,-0.025,8016.666666666667
-0.565,-0.025,8019.444444444444
-0.595,-0.025,8022.222222222223
-0.615,-0.02,8025.0
-0.63,-0.015,8027.777777777777
-0.645,-0.01,8030.555555555556
-0.675,-0.025,8033.333333333333
-0.68,-0.03,8036.111111111111
-0.71,-0.04,8038.888888888889
-0.7,-0.03,8041.666666666667
-0.69,-0.015,8044.444444444444
-0.695,-0.01,8047.222222222223
-0.715,-0.02,8050.0
-0.715,-0.03,8052.777777777777
-0.725,-0.03,8055.555555555556
-0.73,-0.03,8058.333333333333
-0.74,-0.005,8061.111111111111
-0.735,-0.01,8063.888888888889
-0.74,-0.005,8066.666666666667
-0.74,-0.025,8069.444444444444
-0.755,-0.03,8072.222222222223
-0.75,-0.005,8075.0
-0.755,0.01,8077.777777777777
-0.74,-0.01,8080.555555555556
-0.76,0.005,8083.333333333333
-0.785,-0.005,8086.111111111111
-0.8,0.0,8088.888888888889
-0.795,0.0,8091.666666666667
-0.78,0.02,8094.444444444444
-0.775,0.02,8097.222222222223
-0.765,0.015,8100.0
-0.77,0.01,8102.777777777777
-0.78,0.01,8105.555555555556
-0.76,0.03,8108.333333333333
-0.755,0.035,8111.111111111111
-0.76,0.03,8113.888888888889
-0.765,0.035,8116.666666666667
-0.78,0.03,8119.444444444444
-0.795,0.025,8122.222222222223
-0.79,0.04,8125.0
-0.785,0.055,8127.777777777777
-0.775,0.055,8130.555555555556
-0.76,0.045,8133.333333333333
-0.78,0.025,8136.111111111111
-0.78,0.03,8138.888888888889
-0.77,0.05,8141.666666666667
-0.775,0.055,8144.444444444444
-0.75,0.05,8147.222222222223
-0.745,0.05,8150.0
-0.745,0.035,8152.777777777777
-0.755,0.045,8155.555555555556
-0.755,0.04,8158.333333333333
-0.745,0.045,8161.111111111111
-0.74,0.055,8163.888888888889
-0.74,0.055,8166.666666666667
-0.74,0.05,8169.444444444444
-0.74,0.04,8172.222222222223
-0.735,0.045,8175.0
-0.735,0.03,8177.777777777777
-0.74,0.04,8180.555555555556
-0.75,0.04,8183.333333333333
-0.765,0.035,8186.111111111111
-0.77,0.03,8188.888888888889
-0.76,0.04,8191.666666666667
-0.74,0.055,8194.444444444445
-0.74,0.05,8197.222222222223
-0.725,0.04,8200.0
-0.745,0.03,8202.777777777777
-0.745,0.035,8205.555555555555
-0.745,0.045,8208.333333333334
-0.73,0.055,8211.111111111111
-0.72,0.045,8213.888888888889
-0.705,0.035,8216.666666666666
-0.73,0.025,8219.444444444445
-0.735,0.015,8222.222222222223
-0.74,0.03,8225.0
-0.725,0.04,8227.777777777777
-0.725,0.045,8230.555555555555
-0.705,0.05,8233.333333333334
-0.7,0.02,8236.111111111111
-0.71,0.015,8238.888888888889
-0.715,0.02,8241.666666666666
-0.695,0.03,8244.444444444445
-0.695,0.03,8247.222222222223
-0.69,0.02,8250.0
-0.71,0.025,8252.777777777777
-0.715,0.015,8255.555555555555
-0.71,0.015,8258.333333333334
-0.7,0.03,8261.111111111111
-0.695,0.03,8263.888888888889
-0.69,0.005,8266.666666666666
-0.685,0.0,8269.444444444445
-0.685,0.0,8272.222222222223
-0.685,0.005,8275.0
-0.68,0.015,8277.777777777777
-0.67,0.005,8280.555555555555
-0.68,0.005,8283.333333333334
-0.685,-0.015,8286.111111111111
-0.68,-0.015,8288.888888888889
-0.685,0.0,8291.666666666666
-0.69,0.005,8294.444444444445
-0.69,0.01,8297.222222222223
-0.675,0.0,8300.0
-0.67,-0.01,8302.777777777777
-0.665,0.0,8305.555555555555
-0.675,0.005,8308.333333333334
-0.67,0.005,8311.111111111111
-0.635,0.005,8313.888888888889
-0.64,-0.005,8316.666666666666
-0.655,-0.02,8319.444444444445
-0.665,-0.02,8322.222222222223
-0.645,0.0,8325.0
-0.63,0.01,8327.777777777777
-0.63,-0.015,8330.555555555555
-0.62,-0.015,8333.333333333334
-0.63,-0.03,8336.111111111111
-0.64,-0.025,8338.888888888889
-0.655,-0.015,8341.666666666666
-0.65,-0.005,8344.444444444445
-0.64,-0.01,8347.222222222223
-0.63,-0.03,8350.0
-0.63,-0.04,8352.777777777777
-0.645,-0.04,8355.555555555555
-0.64,-0.04,8358.333333333334
-0.63,-0.03,8361.111111111111
-0.615,-0.045,8363.888888888889
-0.61,-0.045,8366.666666666666
-0.61,-0.065,8369.444444444445
-0.635,-0.06,8372.222222222223
-0.62,-0.06,8375.0
-0.6,-0.065,8377.777777777777
-0.59,-0.065,8380.555555555555
-0.585,-0.085,8383.333333333334
-0.58,-0.11,8386.111111111111
-0.58,-0.145,8388.888888888889
-0.555,-0.24,8391.666666666666
-0.525,-0.5,8394.444444444445
-0.475,-0.89,8397.222222222223
-0.41,-1.04,8400.0
-0.27,-0.875,8402.777777777777
0.04,-0.625,8405.555555555555
0.59,-0.465,8408.333333333334
1.145,-0.44,8411.111111111111
1.415,-0.43,8413.888888888889
1.36,-0.42,8416.666666666666
1.18,-0.405,8419.444444444445
1.045,-0.395,8422.222222222223
0.995,-0.395,8425.0
0.94,-0.39,8427.777777777777
0.86,-0.405,8430.555555555555
0.77,-0.44,8433.333333333334
0.665,-0.46,8436.111111111111
0.555,-0.49,8438.888888888889
0.45,-0.495,8441.666666666666
0.34,-0.52,8444.444444444445
0.235,-0.525,8447.222222222223
0.12,-0.55,8450.0
0.015,-0.58,8452.777777777777
-0.125,-0.605,8455.555555555555
-0.28,-0.61,8458.333333333334
-0.425,-0.615,8461.111111111111
-0.59,-0.645,8463.888888888889
-0.785,-0.69,8466.666666666666
-0.99,-0.76,8469.444444444445
-1.205,-0.815,8472.222222222223
-1.42,-0.86,8475.0
-1.62,-0.885,8477.777777777777
-1.825,-0.935,8480.555555555555
-2.05,-0.99,8483.333333333334
-2.225,-1.045,8486.111111111111
-2.385,-1.13,8488.888888888889
-2.505,-1.22,8491.666666666666
-2.6,-1.345,8494.444444444445
-2.67,-1.455,8497.222222222223
-2.72,-1.545,8500.0
-2.755,-1.605,8502.777777777777
-2.795,-1.675,8505.555555555555
-2.805,-1.74,8508.333333333334
-2.83,-1.81,8511.111111111111
-2.885,-1.9,8513.888888888889
-2.94,-1.98,8516.666666666666
-3.005,-2.085,8519.444444444445
-3.06,-2.18,8522.222222222223
-3.075,-2.255,8525.0
-3.095,-2.26,8527.777777777777
-3.105,-2.175,8530.555555555555
-3.085,-2.065,8533.333333333334
-3.015,-1.915,8536.111111111111
-2.875,-1.76,8538.888888888889
-2.665,-1.58,8541.666666666666
-2.44,-1.42,8544.444444444445
-2.225,-1.3,8547.222222222223
-2.015,-1.165,8550.0
-1.85,-1.06,8552.777777777777
-1.725,-0.92,8555.555555555555
-1.63,-0.81,8558.333333333334
-1.55,-0.68,8561.111111111111
-1.465,-0.585,8563.888888888889
-1.38,-0.505,8566.666666666666
-1.325,-0.46,8569.444444444445
-1.26,-0.385,8572.222222222223
-1.17,-0.3,8575.0
-1.105,-0.225,8577.777777777777
-1.055,-0.165,8580.555555555555
-1.025,-0.09,8583.333333333334
-0.98,-0.05,8586.111111111111
-0.94,0.0,8588.888888888889
-0.875,0.045,8591.666666666666
-0.785,0.09,8594.444444444445
-0.685,0.14,8597.222222222223
-0.605,0.165,8600.0
-0.535,0.185,8602.777777777777
-0.47,0.22,8605.555555555555
-0.38,0.275,8608.333333333334
-0.28,0.32,8611.111111111111
-0.2,0.35,8613.888888888889
-0.095,0.37,8616.666666666666
-0.015,0.365,8619.444444444445
0.065,0.35,8622.222222222223
0.155,0.34,8625.0
0.225,0.315,8627.777777777777
0.3,0.295,8630.555555555555
0.385,0.275,8633.333333333334
0.46,0.255,8636.111111111111
0.53,0.245,8638.888888888889
0.565,0.245,8641.666666666666
0.565,0.24,8644.444444444445
0.575,0.23,8647.222222222223
0.545,0.225,8650.0
0.545,0.215,8652.777777777777
0.53,0.21,8655.555555555555
0.555,0.23,8658.333333333334
0.59,0.245,8661.111111111111
0.62,0.25,8663.888888888889
0.65,0.26,8666.666666666666
0.655,0.27,8669.444444444445
0.64,0.25,8672.222222222223
0.65,0.285,8675.0
0.665,0.3,8677.777777777777
0.695,0.305,8680.555555555555
0.68,0.315,8683.333333333334
0.67,0.32,8686.111111111111
0.675,0.33,8688.888888888889
0.68,0.355,8691.666666666666
0.705,0.385,8694.444444444445
0.72,0.405,8697.222222222223
0.73,0.415,8700.0
0.725,0.41,8702.777777777777
0.725,0.415,8705.555555555555
0.755,0.425,8708.333333333334
0.78,0.44,8711.111111111111
0.795,0.445,8713.888888888889
0.81,0.445,8716.666666666666
0.815,0.445,8719.444444444445
0.815,0.455,8722.222222222223
0.81,0.475,8725.0
0.855,0.49,8727.777777777777
0.875,0.51,8730.555555555555
0.915,0.5,8733.333333333334
0.935,0.505,8736.111111111111
0.94,0.51,8738.888888888889
0.96,0.525,8741.666666666666
0.985,0.55,8744.444444444445
1.01,0.545,8747.222222222223
1.03,0.555,8750.0
1.03,0.545,8752.777777777777
1.025,0.54,8755.555555555555
1.045,0.575,8758.333333333334
1.055,0.58,8761.111111111111
1.06,0.58,8763.888888888889
1.06,0.575,8766.666666666666
1.035,0.56,8769.444444444445
1.015,0.56,8772.222222222223
1.015,0.56,8775.0
1.005,0.57,8777.777777777777
0.99,0.555,8780.555555555555
0.955,0.535,8783.333333333334
0.92,0.52,8786.111111111111
0.885,0.51,8788.888888888889
0.87,0.5,8791.666666666666
0.865,0.495,8794.444444444445
0.845,0.47,8797.222222222223
0.815,0.44,8800.0
0.77,0.41,8802.777777777777
0.715,0.385,8805.555555555555
0.67,0.37,8808.333333333334
0.645,0.365,8811.111111111111
0.6,0.335,8813.888888888889
0.555,0.31,8816.666666666666
0.495,0.265,8819.444444444445
0.445,0.235,8822.222222222223
0.415,0.22,8825.0
0.37,0.21,8827.777777777777
0.33,0.18,8830.555555555555
0.285,0.15,8833.333333333334
0.225,0.12,8836.111111111111
0.16,0.095,8838.888888888889
0.125,0.085,8841.666666666666
0.09,0.06,8844.444444444445
0.04,0.035,8847.222222222223
-0.01,0.02,8850.0
-0.06,0.0,8852.777777777777
-0.115,-0.025,8855.555555555555
-0.155,-0.03,8858.333333333334
-0.195,-0.025,8861.111111111111
-0.215,-0.035,8863.888888888889
-0.28,-0.04,8866.666666666666
-0.305,-0.055,8869.444444444445
-0.355,-0.065,8872.222222222223
-0.36,-0.06,8875.0
-0.405,-0.06,8877.777777777777
-0.44,-0.065,8880.555555555555
-0.49,-0.065,8883.333333333334
-0.525,-0.075,8886.111111111111
-0.56,-0.095,8888.888888888889
-0.57,-0.07,8891.666666666666
-0.555,-0.07,8894.444444444445
-0.555,-0.065,8897.222222222223
-0.575,-0.065,8900.0
-0.615,-0.075,8902.777777777777
-0.625,-0.075,8905.555555555555
-0.63,-0.07,8908.333333333334
-0.63,-0.05,8911.111111111111
-0.635,-0.05,8913.888888888889
-0.65,-0.05,8916.666666666666
-0.66,-0.055,8919.444444444445
-0.665,-0.05,8922.222222222223
-0.67,-0.035,8925.0
-0.665,-0.03,8927.777777777777
-0.66,-0.04,8930.555555555555
-0.68,-0.03,8933.333333333334
-0.7,-0.045,8936.111111111111
-0.71,-0.025,8938.888888888889
-0.71,-0.02,8941.666666666666
-0.69,-0.015,8944.444444444445
-0.685,-0.005,8947.222222222223
-0.68,-0.01,8950.0
-0.69,-0.015,8952.777777777777
-0.69,-0.005,8955.555555555555
-0.68,-0.005,8958.333333333334
-0.665,0.005,8961.111111111111
-0.66,-0.005,8963.888888888889
-0.67,0.0,8966.666666666666
-0.68,-0.01,8969.444444444445
-0.71,-0.005,8972.222222222223
-0.72,0.005,8975.0
-0.705,0.02,8977.777777777777
-0.7,0.02,8980.555555555555
-0.71,0.025,8983.333333333334
-0.71,0.01,8986.111111111111
-0.71,0.005,8988.888888888889
-0.685,0.02,8991.666666666666
-0.67,0.02,8994.444444444445
-0.665,0.025,8997.222222222223
-0.66,0.015,9000.0
-0.675,0.01,9002.777777777777
-0.69,0.015,9005.555555555555
-0.675,0.01,9008.333333333334
-0.655,0.02,9011.111111111111
-0.645,0.02,9013.888888888889
-0.635,0.02,9016.666666666666
-0.65,0.005,9019.444444444445
-0.655,0.005,9022.222222222223
-0.65,0.005,9025.0
-0.64,0.02,9027.777777777777
-0.615,0.015,9030.555555555555
-0.615,0.0,9033.333333333334
-0.61,-0.005,9036.111111111111
-0.63,-0.02,9038.888888888889
-0.64,-0.005,9041.666666666666
-0.64,0.0,9044.444444444445
-0.635,-0.01,9047.222222222223
-0.625,0.0,9050.0
-0.625,-0.02,9052.777777777777
-0.625,-0.025,9055.555555555555
-0.63,-0.01,9058.333333333334
-0.625,-0.015,9061.111111111111
-0.615,-0.02,9063.888888888889
-0.635,-0.02,9066.666666666666
-0.64,-0.03,9069.444444444445
-0.66,-0.035,9072.222222222223
-0.65,-0.025,9075.0
-0.625,-0.01,9077.777777777777
-0.625,-0.03,9080.555555555555
-0.625,-0.03,9083.333333333334
-0.64,-0.035,9086.111111111111
-0.65,-0.035,9088.888888888889
-0.65,-0.035,9091.666666666666
-0.635,-0.03,9094.444444444445
-0.62,-0.025,9097.222222222223
-0.625,-0.035,9100.0
-0.64,-0.045,9102.777777777777
-0.65,-0.05,9105.555555555555
-0.64,-0.035,9108.333333333334
-0.63,-0.03,9111.111111111111
-0.63,-0.03,9113.888888888889
-0.64,-0.035,9116.666666666666
-0.645,-0.04,9119.444444444445
-0.64,-0.05,9122.222222222223
-0.64,-0.045,9125.0
-0.62,-0.025,9127.777777777777
-0.6,-0.03,9130.555555555555
-0.605,-0.05,9133.333333333334
-0.61,-0.04,9136.111111111111
-0.62,-0.04,9138.888888888889
-0.625,-0.04,9141.666666666666
-0.62,-0.025,9144.444444444445
-0.62,-0.03,9147.222222222223
-0.62,-0.025,9150.0
-0.615,-0.045,9152.777777777777
-0.63,-0.05,9155.555555555555
-0.635,-0.05,9158.333333333334
-0.61,-0.035,9161.111111111111
-0.595,-0.035,9163.888888888889
-0.585,-0.035,9166.666666666666
-0.59,-0.05,9169.444444444445
-0.595,-0.05,9172.222222222223
-0.6,-0.035,9175.0
-0.61,-0.025,9177.777777777777
-0.615,-0.03,9180.555555555555
-0.61,-0.03,9183.333333333334
-0.605,-0.04,9186.111111111111
-0.6,-0.055,9188.888888888889
-0.59,-0.05,9191.666666666666
-0.595,-0.05,9194.444444444445
-0.595,-0.045,9197.222222222223
-0.605,-0.035,9200.0
-0.62,-0.05,9202.777777777777
-0.61,-0.055,9205.555555555555
-0.595,-0.045,9208.333333333334
-0.58,-0.03,9211.111111111111
-0.575,-0.05,9213.888888888889
-0.57,-0.05,9216.666666666666
-0.58,-0.07,9219.444444444445
-0.59,-0.07,9222.222222222223
-0.585,-0.055,9225.0
-0.575,-0.04,9227.777777777777
-0.56,-0.055,9230.555555555555
-0.57,-0.045,9233.333333333334
-0.58,-0.07,9236.111111111111
-0.585,-0.075,9238.888888888889
-0.58,-0.075,9241.666666666666
-0.575,-0.065,9244.444444444445
-0.565,-0.065,9247.222222222223
-0.56,-0.07,9250.0
-0.565,-0.09,9252.777777777777
-0.565,-0.105,9255.555555555555
-0.53,-0.11,9258.333333333334
-0.515,-0.14,9261.111111111111
-0.49,-0.21,9263.888888888889
-0.465,-0.455,9266.666666666666
-0.445,-0.825,9269.444444444445
-0.37,-1.005,9272.222222222223
-0.2,-0.83,9275.0
0.14,-0.565,9277.777777777777
0.69,-0.42,9280.555555555555
1.235,-0.395,9283.333333333334
1.49,-0.39,9286.111111111111
1.39,-0.39,9288.888888888889
1.205,-0.36,9291.666666666666
1.07,-0.345,9294.444444444445
1.03,-0.355,9297.222222222223
0.975,-0.37,9300.0
0.895,-0.4,9302.777777777777
0.79,-0.405,9305.555555555555
0.685,-0.41,9308.333333333334
0.59,-0.425,9311.111111111111
0.505,-0.435,9313.888888888889
0.42,-0.445,9316.666666666666
0.315,-0.445,9319.444444444445
0.19,-0.435,9322.222222222223
0.06,-0.415,9325.0
-0.095,-0.405,9327.777777777777
-0.23,-0.41,9330.555555555555
-0.385,-0.44,9333.333333333334
-0.54,-0.5,9336.111111111111
-0.71,-0.56,9338.888888888889
-0.9,-0.59,9341.666666666666
-1.075,-0.605,9344.444444444445
-1.245,-0.62,9347.222222222223
-1.415,-0.67,9350.0
-1.585,-0.76,9352.777777777777
-1.75,-0.885,9355.555555555555
-1.93,-1.055,9358.333333333334
-2.055,-1.215,9361.111111111111
-2.155,-1.335,9363.888888888889
-2.19,-1.425,9366.666666666666
-2.22,-1.505,9369.444444444445
-2.245,-1.585,9372.222222222223
-2.285,-1.67,9375.0
-2.325,-1.735,9377.777777777777
-2.42,-1.835,9380.555555555555
-2.525,-1.945,9383.333333333334
-2.615,-2.06,9386.111111111111
-2.695,-2.165,9388.888888888889
-2.755,-2.255,9391.666666666666
-2.815,-2.255,9394.444444444445
-2.865,-2.165,9397.222222222223
-2.84,-2.045,9400.0
-2.77,-1.93,9402.777777777777
-2.615,-1.77,9405.555555555555
-2.405,-1.595,9408.333333333334
-2.165,-1.45,9411.111111111111
-1.955,-1.32,9413.888888888889
-1.78,-1.19,9416.666666666666
-1.625,-1.08,9419.444444444445
-1.55,-0.965,9422.222222222223
-1.475,-0.84,9425.0
-1.42,-0.705,9427.777777777777
-1.355,-0.61,9430.555555555555
-1.285,-0.55,9433.333333333334
-1.25,-0.485,9436.111111111111
-1.235,-0.415,9438.888888888889
-1.195,-0.345,9441.666666666666
-1.165,-0.27,9444.444444444445
-1.155,-0.225,9447.222222222223
-1.14,-0.195,9450.0
-1.135,-0.175,9452.777777777777
-1.11,-0.155,9455.555555555555
-1.065,-0.105,9458.333333333334
-1.01,-0.065,9461.111111111111
-0.97,-0.03,9463.888888888889
-0.93,-0.015,9466.666666666666
-0.885,0.01,9469.444444444445
-0.805,0.055,9472.222222222223
-0.7,0.085,9475.0
-0.62,0.125,9477.777777777777
-0.54,0.135,9480.555555555555
-0.48,0.155,9483.333333333334
-0.425,0.155,9486.111111111111
-0.39,0.19,9488.888888888889
-0.34,0.205,9491.666666666666
-0.295,0.23,9494.444444444445
-0.23,0.235,9497.222222222223
-0.175,0.23,9500.0
-0.125,0.235,9502.777777777777
-0.105,0.235,9505.555555555555
-0.085,0.265,9508.333333333334
-0.07,0.285,9511.111111111111
-0.045,0.295,9513.888888888889
-0.03,0.29,9516.666666666666
-0.01,0.29,9519.444444444445
0.0,0.295,9522.222222222223
0.02,0.32,9525.0
0.045,0.335,9527.777777777777
0.085,0.345,9530.555555555555
0.105,0.36,9533.333333333334
0.1,0.37,9536.111111111111
0.11,0.355,9538.888888888889
0.11,0.385,9541.666666666666
0.13,0.4,9544.444444444445
0.155,0.415,9547.222222222223
0.175,0.42,9550.0
0.19,0.435,9552.777777777777
0.21,0.44,9555.555555555555
0.24,0.475,9558.333333333334
0.27,0.485,9561.111111111111
0.3,0.5,9563.888888888889
0.31,0.51,9566.666666666666
0.33,0.51,9569.444444444445
0.345,0.515,9572.222222222223
0.38,0.545,9575.0
0.42,0.575,9577.777777777777
0.45,0.59,9580.555555555555
0.475,0.595,9583.333333333334
0.49,0.605,9586.111111111111
0.52,0.62,9588.888888888889
0.555,0.645,9591.666666666666
0.6,0.66,9594.444444444445
0.645,0.675,9597.222222222223
0.67,0.695,9600.0
0.68,0.69,9602.777777777777
0.7,0.695,9605.555555555555
0.725,0.715,9608.333333333334
0.74,0.735,9611.111111111111
0.78,0.74,9613.888888888889
0.78,0.745,9616.666666666666
0.795,0.74,9619.444444444445
0.79,0.745,9622.222222222223
0.8,0.745,9625.0
0.825,0.76,9627.777777777777
0.835,0.755,9630.555555555555
0.84,0.755,9633.333333333334
0.84,0.74,9636.111111111111
0.83,0.73,9638.888888888889
0.85,0.73,9641.666666666666
0.84,0.72,9644.444444444445
0.83,0.715,9647.222222222223
0.82,0.69,9650.0
0.795,0.665,9652.777777777777
0.77,0.645,9655.555555555555
0.745,0.64,9658.333333333334
0.75,0.635,9661.111111111111
0.73,0.605,9663.888888888889
0.71,0.57,9666.666666666666
0.675,0.545,9669.444444444445
0.645,0.52,9672.222222222223
0.605,0.49,9675.0
0.58,0.47,9677.777777777777
0.535,0.445,9680.555555555555
0.475,0.41,9683.333333333334
0.455,0.375,9686.111111111111
0.405,0.345,9688.888888888889
0.355,0.325,9691.666666666666
0.315,0.315,9694.444444444445
0.295,0.285,9697.222222222223
0.255,0.25,9700.0
0.215,0.22,9702.777777777777
0.155,0.19,9705.555555555555
0.12,0.175,9708.333333333334
0.075,0.165,9711.111111111111
0.045,0.145,9713.888888888889
-0.005,0.125,9716.666666666666
-0.035,0.1,9719.444444444445
-0.11,0.075,9722.222222222223
-0.145,0.08,9725.0
-0.16,0.065,9727.777777777777
-0.19,0.065,9730.555555555555
-0.225,0.04,9733.333333333334
-0.275,0.035,9736.111111111111
-0.305,0.025,9738.888888888889
-0.325,0.015,9741.666666666666
-0.335,0.035,9744.444444444445
-0.365,0.025,9747.222222222223
-0.37,0.025,9750.0
-0.4,0.015,9752.777777777777
-0.43,0.02,9755.555555555555
-0.45,0.03,9758.333333333334
-0.445,0.015,9761.111111111111
-0.455,0.015,9763.888888888889
-0.47,0.015,9766.666666666666
-0.49,0.005,9769.444444444445
-0.51,0.0,9772.222222222223
-0.515,0.01,9775.0
-0.52,0.03,9777.777777777777
-0.52,0.02,9780.555555555555
-0.52,0.02,9783.333333333334
-0.515,0.01,9786.111111111111
-0.53,0.01,9788.888888888889
-0.545,0.025,9791.666666666666
-0.53,0.035,9794.444444444445
-0.535,0.02,9797.222222222223
-0.535,0.02,9800.0
-0.54,0.015,9802.777777777777
-0.565,0.02,9805.555555555555
-0.565,0.025,9808.333333333334
-0.56,0.03,9811.111111111111
-0.57,0.03,9813.888888888889
-0.57,0.035,9816.666666666666
-0.585,0.02,9819.444444444445
-0.595,0.03,9822.222222222223
-0.585,0.025,9825.0
-0.565,0.055,9827.777777777777
-0.555,0.06,9830.555555555555
-0.555,0.055,9833.333333333334
-0.585,0.045,9836.111111111111
-0.585,0.03,9838.888888888889
-0.585,0.055,9841.666666666666
-0.58,0.05,9844.444444444445
-0.58,0.05,9847.222222222223
-0.575,0.06,9850.0
-0.585,0.06,9852.777777777777
-0.585,0.045,9855.555555555555
-0.57,0.055,9858.333333333334
-0.55,0.06,9861.111111111111
-0.535,0.06,9863.888888888889
-0.53,0.05,9866.666666666666
-0.54,0.045,9869.444444444445
-0.56,0.05,9872.222222222223
-0.56,0.055,9875.0
-0.54,0.07,9877.777777777777
-0.52,0.07,9880.555555555555
-0.525,0.055,9883.333333333334
-0.53,0.05,9886.111111111111
-0.55,0.06,9888.888888888889
-0.545,0.05,9891.666666666666
-0.535,0.065,9894.444444444445
-0.53,0.055,9897.222222222223
-0.53,0.065,9900.0
-0.53,0.04,9902.777777777777
-0.53,0.03,9905.555555555555
-0.52,0.06,9908.333333333334
-0.525,0.06,9911.111111111111
-0.52,0.06,9913.888888888889
-0.525,0.04,9916.666666666666
-0.53,0.04,9919.444444444445
-0.53,0.03,9922.222222222223
-0.53,0.04,9925.0
-0.515,0.05,9927.777777777777
-0.5,0.05,9930.555555555555
-0.51,0.045,9933.333333333334
-0.525,0.025,9936.111111111111
-0.555,0.015,9938.888888888889
-0.55,0.03,9941.666666666666
-0.54,0.05,9944.444444444445
-0.53,0.035,9947.222222222223
-0.535,0.035,9950.0
-0.555,0.02,9952.777777777777
-0.555,0.015,9955.555555555555
-0.56,0.025,9958.333333333334
-0.56,0.035,9961.111111111111
-0.53,0.03,9963.888888888889
-0.53,0.025,9966.666666666666
-0.545,0.015,9969.444444444445
-0.57,0.025,9972.222222222223
-0.555,0.025,9975.0
-0.545,0.035,9977.777777777777
-0.55,0.025,9980.555555555555
-0.54,0.015,9983.333333333334
-0.56,0.01,9986.111111111111
-0.58,0.015,9988.888888888889
-0.58,0.01,9991.666666666666
-0.565,0.02,9994.444444444445
-0.555,0.02,9997.222222222223
-0.55,0.015,10000.0
-0.56,0.005,10002.777777777777
-0.575,0.0,10005.555555555555
-0.575,0.015,10008.333333333334
-0.57,0.025,10011.111111111111
-0.565,0.02,10013.888888888889
-0.545,0.015,10016.666666666666
-0.57,0.015,10019.444444444445
-0.575,0.015,10022.222222222223
-0.58,0.02,10025.0
-0.56,0.02,10027.777777777777
-0.55,0.015,10030.555555555555
-0.55,0.015,10033.333333333334
-0.555,0.01,10036.111111111111
-0.57,0.005,10038.888888888889
-0.57,0.015,10041.666666666666
-0.555,0.03,10044.444444444445
-0.54,0.025,10047.222222222223
-0.545,0.03,10050.0
-0.555,0.035,10052.777777777777
-0.545,0.05,10055.555555555555
-0.535,0.09,10058.333333333334
-0.52,0.135,10061.111111111111
-0.515,0.145,10063.888888888889
-0.535,0.165,10066.666666666666
-0.52,0.165,10069.444444444445
-0.51,0.185,10072.222222222223
-0.48,0.205,10075.0
-0.44,0.225,10077.777777777777
-0.415,0.24,10080.555555555555
-0.385,0.255,10083.333333333334
-0.335,0.27,10086.111111111111
-0.31,0.26,10088.888888888889
-0.275,0.24,10091.666666666666
-0.23,0.205,10094.444444444445
-0.205,0.15,10097.222222222223
-0.21,0.105,10100.0
-0.225,0.06,10102.777777777777
-0.22,0.035,10105.555555555555
-0.17,0.03,10108.333333333334
-0.125,0.03,10111.111111111111
-0.115,-0.01,10113.888888888889
-0.14,-0.025,10116.666666666666
-0.17,-0.035,10119.444444444445
-0.21,-0.05,10122.222222222223
-0.22,-0.07,10125.0
-0.225,-0.08,10127.777777777777
-0.225,-0.09,10130.555555555555
-0.21,-0.12,10133.333333333334
-0.2,-0.265,10136.111111111111
-0.185,-0.565,10138.888888888889
-0.15,-0.875,10141.666666666666
-0.1,-0.86,10144.444444444445
0.07,-0.62,10147.222222222223
0.435,-0.42,10150.0
0.955,-0.365,10152.777777777777
1.39,-0.375,10155.555555555555
1.51,-0.34,10158.333333333334
1.4,-0.325,10161.111111111111
1.245,-0.295,10163.888888888889
1.14,-0.285,10166.666666666666
1.07,-0.305,10169.444444444445
0.985,-0.325,10172.222222222223
0.9,-0.34,10175.0
0.805,-0.365,10177.777777777777
0.7,-0.395,10180.555555555555
0.575,-0.41,10183.333333333334
0.46,-0.45,10186.111111111111
0.34,-0.465,10188.888888888889
0.235,-0.48,10191.666666666666
0.135,-0.5,10194.444444444445
0.03,-0.52,10197.222222222223
-0.1,-0.545,10200.0
-0.27,-0.575,10202.777777777777
-0.45,-0.61,10205.555555555555
-0.615,-0.64,10208.333333333334
-0.805,-0.675,10211.111111111111
-0.975,-0.75,10213.888888888889
-1.16,-0.81,10216.666666666666
-1.36,-0.865,10219.444444444445
-1.575,-0.9,10222.222222222223
-1.74,-0.925,10225.0
-1.9,-0.98,10227.777777777777
-2.05,-1.065,10230.555555555555
-2.205,-1.165,10233.333333333334
-2.3,-1.315,10236.111111111111
-2.385,-1.44,10238.888888888889
-2.445,-1.545,10241.666666666666
-2.485,-1.62,10244.444444444445
-2.505,-1.68,10247.222222222223
-2.52,-1.755,10250.0
-2.545,-1.845,10252.777777777777
-2.595,-1.92,10255.555555555555
-2.65,-1.98,10258.333333333334
-2.71,-2.025,10261.111111111111
-2.75,-2.11,10263.888888888889
-2.805,-2.185,10266.666666666666
-2.885,-2.25,10269.444444444445
-2.95,-2.29,10272.222222222223
-3.0,-2.25,10275.0
-3.015,-2.13,10277.777777777777
-2.97,-1.985,10280.555555555555
-2.865,-1.855,10283.333333333334
-2.69,-1.715,10286.111111111111
-2.495,-1.57,10288.888888888889
-2.265,-1.405,10291.666666666666
-2.06,-1.275,10294.444444444445
-1.925,-1.155,10297.222222222223
-1.79,-1.04,10300.0
-1.66,-0.945,10302.777777777777
-1.58,-0.83,10305.555555555555
-1.505,-0.71,10308.333333333334
-1.435,-0.625,10311.111111111111
-1.405,-0.565,10313.888888888889
-1.365,-0.485,10316.666666666666
-1.33,-0.415,10319.444444444445
-1.31,-0.355,10322.222222222223
-1.275,-0.295,10325.0
-1.25,-0.245,10327.777777777777
-1.24,-0.185,10330.555555555555
-1.215,-0.14,10333.333333333334
-1.19,-0.09,10336.111111111111
-1.13,-0.06,10338.888888888889
-1.06,-0.01,10341.666666666666
-0.975,0.04,10344.444444444445
-0.905,0.065,10347.222222222223
-0.85,0.11,10350.0
-0.815,0.145,10352.777777777777
-0.755,0.16,10355.555555555555
-0.695,0.205,10358.333333333334
-0.615,0.245,10361.111111111111
-0.53,0.265,10363.888888888889
-0.45,0.29,10366.666666666666
-0.385,0.3,10369.444444444445
-0.33,0.325,10372.222222222223
-0.26,0.325,10375.0
-0.195,0.335,10377.777777777777
-0.125,0.35,10380.555555555555
-0.08,0.34,10383.333333333334
-0.045,0.365,10386.111111111111
-0.035,0.37,10388.888888888889
-0.02,0.38,10391.666666666666
0.015,0.41,10394.444444444445
0.035,0.405,10397.222222222223
0.065,0.405,10400.0
0.08,0.415,10402.777777777777
0.08,0.425,10405.555555555555
0.11,0.445,10408.333333333334
0.145,0.46,10411.111111111111
0.175,0.475,10413.888888888889
0.205,0.475,10416.666666666666
0.225,0.485,10419.444444444445
0.23,0.5,10422.222222222223
0.265,0.515,10425.0
0.3,0.54,10427.777777777777
0.35,0.545,10430.555555555555
0.375,0.555,10433.333333333334
0.405,0.55,10436.111111111111
0.41,0.56,10438.888888888889
0.435,0.575,10441.666666666666
0.47,0.59,10444.444444444445
0.51,0.605,10447.222222222223
0.535,0.615,10450.0
0.56,0.62,10452.777777777777
0.575,0.625,10455.555555555555
0.61,0.645,10458.333333333334
0.635,0.665,10461.111111111111
0.695,0.68,10463.888888888889
0.735,0.685,10466.666666666666
0.765,0.69,10469.444444444445
0.78,0.7,10472.222222222223
0.79,0.72,10475.0
0.84,0.74,10477.777777777777
0.865,0.745,10480.555555555555
0.9,0.76,10483.333333333334
0.935,0.75,10486.111111111111
0.945,0.765,10488.888888888889
0.95,0.77,10491.666666666666
0.975,0.79,10494.444444444445
0.995,0.78,10497.222222222223
1.01,0.78,10500.0
1.01,0.77,10502.777777777777
1.025,0.775,10505.555555555555
1.035,0.795,10508.333333333334
1.04,0.795,10511.111111111111
1.03,0.785,10513.888888888889
1.03,0.79,10516.666666666666
1.01,0.76,10519.444444444445
0.99,0.75,10522.222222222223
0.985,0.76,10525.0
0.985,0.745,10527.777777777777
0.97,0.73,10530.555555555555
0.945,0.71,10533.333333333334
0.9,0.68,10536.111111111111
0.87,0.66,10538.888888888889
0.84,0.65,10541.666666666666
0.81,0.615,10544.444444444445
0.765,0.61,10547.222222222223
0.74,0.565,10550.0
0.685,0.535,10552.777777777777
0.65,0.5,10555.555555555555
0.63,0.48,10558.333333333334
0.61,0.46,10561.111111111111
0.565,0.42,10563.888888888889
0.505,0.39,10566.666666666666
0.43,0.36,10569.444444444445
0.37,0.32,10572.222222222223
0.33,0.305,10575.0
0.315,0.29,10577.777777777777
0.295,0.27,10580.555555555555
0.24,0.245,10583.333333333334
0.17,0.22,10586.111111111111
0.125,0.2,10588.888888888889
0.07,0.17,10591.666666666666
0.04,0.155,10594.444444444445
0.01,0.135,10597.222222222223
-0.03,0.12,10600.0
-0.075,0.105,10602.777777777777
-0.12,0.1,10605.555555555555
-0.16,0.09,10608.333333333334
-0.19,0.09,10611.111111111111
-0.215,0.09,10613.888888888889
-0.235,0.09,10616.666666666666
-0.275,0.08,10619.444444444445
-0.315,0.07,10622.222222222223
-0.325,0.07,10625.0
-0.35,0.075,10627.777777777777
-0.37,0.05,10630.555555555555
-0.39,0.05,10633.333333333334
-0.415,0.035,10636.111111111111
-0.435,0.035,10638.888888888889
-0.45,0.05,10641.666666666666
-0.465,0.06,10644.444444444445
-0.49,0.055,10647.222222222223
-0.5,0.06,10650.0
-0.515,0.035,10652.777777777777
-0.515,0.035,10655.555555555555
-0.5,0.045,10658.333333333334
-0.5,0.055,10661.111111111111
-0.51,0.055,10663.888888888889
-0.515,0.065,10666.666666666666
-0.55,0.045,10669.444444444445
-0.545,0.045,10672.222222222223
-0.555,0.055,10675.0
-0.54,0.07,10677.777777777777
-0.52,0.065,10680.555555555555
-0.505,0.065,10683.333333333334
-0.525,0.055,10686.111111111111
-0.535,0.05,10688.888888888889
-0.555,0.05,10691.666666666666
-0.56,0.07,10694.444444444445
-0.555,0.08,10697.222222222223
-0.545,0.065,10700.0
-0.56,0.055,10702.777777777777
-0.58,0.055,10705.555555555555
-0.57,0.07,10708.333333333334
-0.565,0.065,10711.111111111111
-0.555,0.075,10713.888888888889
-0.575,0.07,10716.666666666666
-0.58,0.06,10719.444444444445
-0.59,0.07,10722.222222222223
-0.57,0.08,10725.0
-0.565,0.085,10727.777777777777
-0.57,0.085,10730.555555555555
-0.58,0.095,10733.333333333334
-0.59,0.09,10736.111111111111
-0.605,0.085,10738.888888888889
-0.62,0.085,10741.666666666666
-0.605,0.095,10744.444444444445
-0.585,0.105,10747.222222222223
-0.575,0.095,10750.0
-0.59,0.09,10752.777777777777
-0.59,0.085,10755.555555555555
-0.605,0.095,10758.333333333334
-0.59,0.1,10761.111111111111
-0.56,0.1,10763.888888888889
-0.56,0.09,10766.666666666666
-0.575,0.085,10769.444444444445
-0.58,0.095,10772.222222222223
-0.565,0.095,10775.0
-0.57,0.105,10777.777777777777
-0.55,0.105,10780.555555555555
-0.555,0.105,10783.333333333334
-0.555,0.095,10786.111111111111
-0.56,0.115,10788.888888888889
-0.56,0.155,10791.666666666666
-0.535,0.19,10794.444444444445
-0.545,0.21,10797.222222222223
-0.52,0.225,10800.0
-0.53,0.23,10802.777777777777
-0.54,0.25,10805.555555555555
-0.525,0.25,10808.333333333334
-0.5,0.28,10811.111111111111
-0.45,0.29,10813.888888888889
-0.445,0.3,10816.666666666666
-0.395,0.315,10819.444444444445
-0.355,0.32,10822.222222222223
-0.305,0.335,10825.0
-0.28,0.31,10827.777777777777
-0.24,0.255,10830.555555555555
-0.24,0.23,10833.333333333334
-0.25,0.175,10836.111111111111
-0.26,0.14,10838.888888888889
-0.24,0.135,10841.666666666666
-0.21,0.125,10844.444444444445
-0.21,0.095,10847.222222222223
-0.22,0.075,10850.0
-0.26,0.055,10852.777777777777
-0.3,0.05,10855.555555555555
-0.315,0.055,10858.333333333334
-0.325,0.045,10861.111111111111
-0.335,0.04,10863.888888888889
-0.34,0.035,10866.666666666666
-0.355,0.03,10869.444444444445
-0.365,0.04,10872.222222222223
-0.37,0.05,10875.0
-0.375,0.055,10877.777777777777
-0.385,0.05,10880.555555555555
-0.39,0.045,10883.333333333334
-0.385,0.025,10886.111111111111
-0.41,0.025,10888.888888888889
-0.445,0.05,10891.666666666666
-0.48,0.06,10894.444444444445
-0.515,0.05,10897.222222222223
-0.555,0.07,10900.0
-0.585,0.06,10902.777777777777
-0.6,0.06,10905.555555555555
-0.6,0.055,10908.333333333334
-0.625,0.065,10911.111111111111
-0.62,0.045,10913.888888888889
-0.655,0.035,10916.666666666666
-0.67,0.03,10919.444444444445
-0.715,0.015,10922.222222222223
-0.725,0.03,10925.0
-0.725,0.02,10927.777777777777
-0.73,0.025,10930.555555555555
-0.735,0.025,10933.333333333334
-0.75,0.01,10936.111111111111
-0.775,0.015,10938.888888888889
-0.795,0.01,10941.666666666666
-0.79,0.035,10944.444444444445
-0.79,0.035,10947.222222222223
-0.795,0.03,10950.0
-0.815,0.02,10952.777777777777
-0.815,0.025,10955.555555555555
-0.815,0.03,10958.333333333334
-0.81,0.025,10961.111111111111
-0.81,0.03,10963.888888888889
-0.81,0.02,10966.666666666666
-0.83,0.01,10969.444444444445
-0.825,0.0,10972.222222222223
-0.82,0.005,10975.0
-0.805,0.015,10977.777777777777
-0.79,0.02,10980.555555555555
-0.81,0.01,10983.333333333334
-0.805,0.0,10986.111111111111
-0.805,0.0,10988.888888888889
-0.79,-0.005,10991.666666666666
-0.765,-0.015,10994.444444444445
-0.73,-0.025,10997.222222222223
-0.71,-0.12,11000.0
-0.69,-0.38,11002.777777777777
-0.64,-0.75,11005.555555555555
-0.51,-0.835,11008.333333333334
-0.23,-0.59,11011.111111111111
0.295,-0.36,11013.888888888889
0.92,-0.27,11016.666666666666
1.345,-0.27,11019.444444444445
1.355,-0.27,11022.222222222223
1.15,-0.25,11025.0
0.95,-0.225,11027.777777777777
0.87,-0.24,11030.555555555555
0.81,-0.25,11033.333333333334
0.73,-0.28,11036.111111111111
0.625,-0.315,11038.888888888889
0.495,-0.31,11041.666666666666
0.415,-0.32,11044.444444444445
0.345,-0.335,11047.222222222223
0.265,-0.365,11050.0
0.145,-0.39,11052.777777777777
0.015,-0.41,11055.555555555555
-0.105,-0.415,11058.333333333334
-0.245,-0.435,11061.111111111111
-0.355,-0.48,11063.888888888889
-0.5,-0.515,11066.666666666666
-0.64,-0.57,11069.444444444445
-0.81,-0.65,11072.222222222223
-0.965,-0.7,11075.0
-1.12,-0.74,11077.777777777777
-1.265,-0.78,11080.555555555555
-1.44,-0.83,11083.333333333334
-1.595,-0.9,11086.111111111111
-1.76,-1.005,11088.888888888889
-1.91,-1.155,11091.666666666666
-2.07,-1.28,11094.444444444445
-2.195,-1.415,11097.222222222223
-2.29,-1.515,11100.0
-2.34,-1.575,11102.777777777777
-2.38,-1.645,11105.555555555555
-2.405,-1.72,11108.333333333334
-2.425,-1.79,11111.111111111111
-2.485,-1.855,11113.888888888889
-2.59,-1.945,11116.666666666666
-2.69,-2.04,11119.444444444445
-2.78,-2.13,11122.222222222223
-2.83,-2.155,11125.0
-2.88,-2.105,11127.777777777777
-2.9,-1.995,11130.555555555555
-2.92,-1.85,11133.333333333334
-2.855,-1.7,11136.111111111111
-2.745,-1.545,11138.888888888889
-2.59,-1.365,11141.666666666666
-2.43,-1.195,11144.444444444445
-2.235,-1.055,11147.222222222223
-2.055,-0.9,11150.0
-1.9,-0.77,11152.777777777777
-1.815,-0.635,11155.555555555555
-1.75,-0.495,11158.333333333334
-1.67,-0.39,11161.111111111111
-1.59,-0.3,11163.888888888889
-1.52,-0.22,11166.666666666666
-1.475,-0.16,11169.444444444445
-1.45,-0.09,11172.222222222223
-1.405,-0.02,11175.0
-1.375,0.025,11177.777777777777
-1.355,0.085,11180.555555555555
-1.32,0.12,11183.333333333334
-1.275,0.16,11186.111111111111
-1.21,0.195,11188.888888888889
-1.145,0.235,11191.666666666666
-1.06,0.27,11194.444444444445
-0.985,0.315,11197.222222222223
-0.925,0.355,11200.0
-0.865,0.375,11202.777777777777
-0.815,0.405,11205.555555555555
-0.745,0.445,11208.333333333334
-0.665,0.465,11211.111111111111
-0.57,0.48,11213.888888888889
-0.495,0.48,11216.666666666666
-0.45,0.485,11219.444444444445
-0.405,0.505,11222.222222222223
-0.34,0.525,11225.0
-0.275,0.555,11227.777777777777
-0.235,0.555,11230.555555555555
-0.205,0.555,11233.333333333334
-0.205,0.56,11236.111111111111
-0.195,0.565,11238.888888888889
-0.16,0.585,11241.666666666666
-0.13,0.615,11244.444444444445
-0.11,0.62,11247.222222222223
-0.105,0.625,11250.0
-0.09,0.625,11252.777777777777
-0.085,0.64,11255.555555555555
-0.05,0.66,11258.333333333334
-0.02,0.675,11261.111111111111
0.02,0.68,11263.888888888889
0.05,0.695,11266.666666666666
0.085,0.685,11269.444444444445
0.08,0.71,11272.222222222223
0.115,0.735,11275.0
0.13,0.76,11277.777777777777
0.17,0.775,11280.555555555555
0.21,0.775,11283.333333333334
0.24,0.79,11286.111111111111
0.25,0.8,11288.888888888889
0.27,0.825,11291.666666666666
0.295,0.845,11294.444444444445
0.33,0.85,11297.222222222223
0.365,0.865,11300.0
0.39,0.865,11302.777777777777
0.43,0.885,11305.555555555555
0.465,0.915,11308.333333333334
0.505,0.94,11311.111111111111
0.53,0.94,11313.888888888889
0.57,0.955,11316.666666666666
0.595,0.96,11319.444444444445
0.625,0.96,11322.222222222223
0.66,0.99,11325.0
0.685,0.995,11327.777777777777
0.675,1.01,11330.555555555555
0.695,1.01,11333.333333333334
0.695,0.995,11336.111111111111
0.715,1.005,11338.888888888889
0.745,1.01,11341.666666666666
0.765,1.02,11344.444444444445
0.755,1.005,11347.222222222223
0.735,0.995,11350.0
0.715,0.985,11352.777777777777
0.675,0.985,11355.555555555555
0.65,0.975,11358.333333333334
0.65,0.98,11361.111111111111
0.625,0.96,11363.888888888889
0.595,0.94,11366.666666666666
0.58,0.905,11369.444444444445
0.54,0.885,11372.222222222223
0.51,0.875,11375.0
0.495,0.865,11377.777777777777
0.47,0.815,11380.555555555555
0.43,0.785,11383.333333333334
0.375,0.745,11386.111111111111
0.33,0.72,11388.888888888889
0.3,0.69,11391.666666666666
0.26,0.675,11394.444444444445
0.245,0.63,11397.222222222223
0.17,0.61,11400.0
0.11,0.565,11402.777777777777
0.045,0.54,11405.555555555555
0.0,0.525,11408.333333333334
-0.05,0.51,11411.111111111111
-0.08,0.48,11413.888888888889
-0.125,0.46,11416.666666666666
-0.16,0.43,11419.444444444445
-0.215,0.405,11422.222222222223
-0.26,0.395,11425.0
-0.3,0.4,11427.777777777777
-0.35,0.39,11430.555555555555
-0.375,0.37,11433.333333333334
-0.425,0.345,11436.111111111111
-0.48,0.335,11438.888888888889
-0.51,0.35,11441.666666666666
