MLII,V1,time_ms
-0.125,-0.78,0.0
-0.125,-0.78,2.7777777777777777
-0.125,-0.78,5.555555555555555
-0.125,-0.78,8.333333333333334
-0.125,-0.78,11.11111111111111
-0.125,-0.78,13.88888888888889
-0.125,-0.78,16.666666666666668
-0.125,-0.8,19.444444444444443
-0.135,-0.81,22.22222222222222
-0.125,-0.84,25.0
-0.125,-0.83,27.77777777777778
-0.12,-0.82,30.555555555555557
-0.095,-0.815,33.333333333333336
-0.085,-0.81,36.111111111111114
-0.105,-0.8,38.888888888888886
-0.17,-0.815,41.666666666666664
-0.225,-0.835,44.44444444444444
-0.255,-0.84,47.22222222222222
-0.28,-0.82,50.0
-0.295,-0.81,52.77777777777778
-0.34,-0.825,55.55555555555556
-0.395,-0.85,58.333333333333336
-0.41,-0.86,61.111111111111114
-0.405,-0.845,63.888888888888886
-0.38,-0.84,66.66666666666667
-0.37,-0.845,69.44444444444444
-0.39,-0.85,72.22222222222223
-0.41,-0.865,75.0
-0.425,-0.875,77.77777777777777
-0.42,-0.855,80.55555555555556
-0.405,-0.85,83.33333333333333
-0.37,-0.855,86.11111111111111
-0.375,-0.855,88.88888888888889
-0.39,-0.85,91.66666666666667
-0.41,-0.865,94.44444444444444
-0.405,-0.865,97.22222222222223
-0.395,-0.855,100.0
-0.375,-0.85,102.77777777777777
-0.39,-0.845,105.55555555555556
-0.395,-0.845,108.33333333333333
-0.395,-0.86,111.11111111111111
-0.395,-0.85,113.88888888888889
-0.385,-0.84,116.66666666666667
-0.38,-0.83,119.44444444444444
-0.385,-0.84,122.22222222222223
-0.4,-0.855,125.0
-0.405,-0.86,127.77777777777777
-0.405,-0.855,130.55555555555554
-0.405,-0.855,133.33333333333334
-0.415,-0.855,136.11111111111111
-0.435,-0.855,138.88888888888889
-0.425,-0.87,141.66666666666666
-0.425,-0.87,144.44444444444446
-0.39,-0.855,147.22222222222223
-0.375,-0.845,150.0
-0.365,-0.83,152.77777777777777
-0.37,-0.815,155.55555555555554
-0.365,-0.825,158.33333333333334
-0.38,-0.835,161.11111111111111
-0.405,-0.855,163.88888888888889
-0.405,-0.905,166.66666666666666
-0.39,-0.95,169.44444444444446
-0.365,-1.045,172.22222222222223
-0.33,-1.14,175.0
-0.32,-1.26,177.77777777777777
-0.295,-1.435,180.55555555555554
-0.27,-1.67,183.33333333333334
-0.28,-1.92,186.11111111111111
-0.34,-2.095,188.88888888888889
-0.44,-2.17,191.66666666666666
-0.51,-2.17,194.44444444444446
-0.52,-2.125,197.22222222222223
-0.51,-2.08,200.0
-0.51,-2.055,202.77777777777777
-0.535,-2.03,205.55555555555554
-0.54,-1.995,208.33333333333334
-0.585,-1.955,211.11111111111111
-0.625,-1.93,213.88888888888889
-0.64,-1.89,216.66666666666666
-0.65,-1.86,219.44444444444446
-0.685,-1.835,222.22222222222223
-0.73,-1.81,225.0
-0.78,-1.765,227.77777777777777
-0.835,-1.71,230.55555555555554
-0.885,-1.665,233.33333333333334
-0.915,-1.625,236.11111111111111
-0.94,-1.6,238.88888888888889
-0.975,-1.585,241.66666666666666
-0.98,-1.53,244.44444444444446
-0.94,-1.445,247.22222222222223
-0.915,-1.36,250.0
-0.895,-1.27,252.77777777777777
-0.89,-1.195,255.55555555555554
-0.83,-1.14,258.3333333333333
-0.76,-1.095,261.1111111111111
-0.7,-1.025,263.8888888888889
-0.625,-0.955,266.6666666666667
-0.58,-0.885,269.44444444444446
-0.545,-0.84,272.22222222222223
-0.505,-0.82,275.0
-0.485,-0.77,277.77777777777777
-0.445,-0.725,280.55555555555554
-0.395,-0.67,283.3333333333333
-0.37,-0.655,286.1111111111111
-0.37,-0.64,288.8888888888889
-0.36,-0.645,291.6666666666667
-0.36,-0.64,294.44444444444446
-0.355,-0.615,297.22222222222223
-0.325,-0.595,300.0
-0.315,-0.585,302.77777777777777
-0.32,-0.58,305.55555555555554
-0.345,-0.595,308.3333333333333
-0.345,-0.58,311.1111111111111
-0.33,-0.58,313.8888888888889
-0.3,-0.565,316.6666666666667
-0.285,-0.555,319.44444444444446
-0.3,-0.555,322.22222222222223
-0.29,-0.545,325.0
-0.295,-0.545,327.77777777777777
-0.3,-0.54,330.55555555555554
-0.29,-0.515,333.3333333333333
-0.28,-0.51,336.1111111111111
-0.285,-0.515,338.8888888888889
-0.32,-0.53,341.6666666666667
-0.32,-0.525,344.44444444444446
-0.31,-0.51,347.22222222222223
-0.295,-0.485,350.0
-0.285,-0.485,352.77777777777777
-0.275,-0.475,355.55555555555554
-0.285,-0.485,358.3333333333333
-0.29,-0.485,361.1111111111111
-0.295,-0.475,363.8888888888889
-0.285,-0.465,366.6666666666667
-0.285,-0.475,369.44444444444446
-0.29,-0.475,372.22222222222223
-0.285,-0.485,375.0
-0.275,-0.475,377.77777777777777
-0.28,-0.465,380.55555555555554
-0.27,-0.455,383.3333333333333
-0.26,-0.45,386.1111111111111
-0.27,-0.45,388.8888888888889
-0.27,-0.47,391.6666666666667
-0.275,-0.47,394.44444444444446
-0.26,-0.455,397.22222222222223
-0.24,-0.435,400.0
-0.225,-0.425,402.77777777777777
-0.24,-0.43,405.55555555555554
-0.265,-0.435,408.3333333333333
-0.28,-0.455,411.1111111111111
-0.275,-0.435,413.8888888888889
-0.24,-0.43,416.6666666666667
-0.22,-0.425,419.44444444444446
-0.22,-0.43,422.22222222222223
-0.225,-0.44,425.0
-0.24,-0.435,427.77777777777777
-0.22,-0.43,430.55555555555554
-0.2,-0.415,433.3333333333333
-0.19,-0.415,436.1111111111111
-0.185,-0.415,438.8888888888889
-0.22,-0.435,441.6666666666667
-0.245,-0.43,444.44444444444446
-0.225,-0.42,447.22222222222223
-0.195,-0.41,450.0
-0.185,-0.405,452.77777777777777
-0.165,-0.405,455.55555555555554
-0.18,-0.42,458.3333333333333
-0.19,-0.425,461.1111111111111
-0.185,-0.415,463.8888888888889
-0.18,-0.4,466.6666666666667
-0.165,-0.395,469.44444444444446
-0.17,-0.395,472.22222222222223
-0.155,-0.415,475.0
-0.16,-0.415,477.77777777777777
-0.175,-0.425,480.55555555555554
-0.175,-0.42,483.3333333333333
-0.145,-0.425,486.1111111111111
-0.17,-0.435,488.8888888888889
-0.16,-0.44,491.6666666666667
-0.165,-0.45,494.44444444444446
-0.165,-0.455,497.22222222222223
-0.16,-0.44,500.0
-0.155,-0.445,502.77777777777777
-0.165,-0.435,505.55555555555554
-0.17,-0.455,508.3333333333333
-0.19,-0.475,511.1111111111111
-0.195,-0.475,513.8888888888889
-0.195,-0.47,516.6666666666666
-0.18,-0.48,519.4444444444445
-0.18,-0.495,522.2222222222222
-0.2,-0.5,525.0
-0.2,-0.51,527.7777777777778
-0.205,-0.49,530.5555555555555
-0.2,-0.5,533.3333333333334
-0.19,-0.515,536.1111111111111
-0.19,-0.525,538.8888888888889
-0.2,-0.55,541.6666666666666
-0.23,-0.56,544.4444444444445
-0.225,-0.57,547.2222222222222
-0.21,-0.56,550.0
-0.215,-0.565,552.7777777777778
-0.205,-0.565,555.5555555555555
-0.215,-0.565,558.3333333333334
-0.23,-0.575,561.1111111111111
-0.26,-0.57,563.8888888888889
-0.255,-0.56,566.6666666666666
-0.25,-0.57,569.4444444444445
-0.24,-0.58,572.2222222222222
-0.245,-0.58,575.0
-0.25,-0.58,577.7777777777778
-0.265,-0.58,580.5555555555555
-0.27,-0.56,583.3333333333334
-0.255,-0.555,586.1111111111111
-0.265,-0.565,588.8888888888889
-0.265,-0.575,591.6666666666666
-0.27,-0.58,594.4444444444445
-0.28,-0.565,597.2222222222222
-0.26,-0.545,600.0
-0.255,-0.545,602.7777777777778
-0.26,-0.545,605.5555555555555
-0.27,-0.565,608.3333333333334
-0.275,-0.565,611.1111111111111
-0.27,-0.56,613.8888888888889
-0.255,-0.545,616.6666666666666
-0.255,-0.54,619.4444444444445
-0.26,-0.54,622.2222222222222
-0.27,-0.54,625.0
-0.275,-0.545,627.7777777777778
-0.27,-0.535,630.5555555555555
-0.265,-0.525,633.3333333333334
-0.255,-0.515,636.1111111111111
-0.265,-0.51,638.8888888888889
-0.28,-0.52,641.6666666666666
-0.285,-0.51,644.4444444444445
-0.285,-0.5,647.2222222222222
-0.28,-0.495,650.0
-0.26,-0.48,652.7777777777778
-0.265,-0.495,655.5555555555555
-0.27,-0.5,658.3333333333334
-0.28,-0.495,661.1111111111111
-0.285,-0.48,663.8888888888889
-0.285,-0.465,666.6666666666666
-0.26,-0.46,669.4444444444445
-0.255,-0.45,672.2222222222222
-0.27,-0.465,675.0
-0.275,-0.47,677.7777777777778
-0.285,-0.45,680.5555555555555
-0.27,-0.43,683.3333333333334
-0.275,-0.425,686.1111111111111
-0.29,-0.44,688.8888888888889
-0.305,-0.44,691.6666666666666
-0.32,-0.44,694.4444444444445
-0.305,-0.435,697.2222222222222
-0.29,-0.415,700.0
-0.275,-0.415,702.7777777777778
-0.285,-0.42,705.5555555555555
-0.31,-0.425,708.3333333333334
-0.325,-0.43,711.1111111111111
-0.315,-0.41,713.8888888888889
-0.315,-0.415,716.6666666666666
-0.3,-0.41,719.4444444444445
-0.31,-0.415,722.2222222222222
-0.335,-0.43,725.0
-0.34,-0.425,727.7777777777778
-0.365,-0.41,730.5555555555555
-0.355,-0.405,733.3333333333334
-0.335,-0.4,736.1111111111111
-0.34,-0.41,738.8888888888889
-0.34,-0.425,741.6666666666666
-0.375,-0.405,744.4444444444445
-0.365,-0.41,747.2222222222222
-0.35,-0.41,750.0
-0.34,-0.41,752.7777777777778
-0.36,-0.405,755.5555555555555
-0.36,-0.41,758.3333333333334
-0.375,-0.42,761.1111111111111
-0.37,-0.415,763.8888888888889
-0.355,-0.405,766.6666666666666
-0.35,-0.4,769.4444444444445
-0.35,-0.4,772.2222222222222
-0.36,-0.415,775.0
-0.37,-0.415,777.7777777777778
-0.375,-0.42,780.5555555555555
-0.375,-0.405,783.3333333333334
-0.35,-0.41,786.1111111111111
-0.36,-0.4,788.8888888888889
-0.36,-0.415,791.6666666666666
-0.38,-0.42,794.4444444444445
-0.375,-0.41,797.2222222222222
-0.355,-0.4,800.0
-0.345,-0.4,802.7777777777778
-0.34,-0.4,805.5555555555555
-0.345,-0.415,808.3333333333334
-0.355,-0.415,811.1111111111111
-0.36,-0.405,813.8888888888889
-0.345,-0.39,816.6666666666666
-0.335,-0.38,819.4444444444445
-0.345,-0.395,822.2222222222222
-0.34,-0.405,825.0
-0.34,-0.395,827.7777777777778
-0.34,-0.395,830.5555555555555
-0.33,-0.38,833.3333333333334
-0.33,-0.385,836.1111111111111
-0.325,-0.4,838.8888888888889
-0.33,-0.395,841.6666666666666
-0.335,-0.4,844.4444444444445
-0.33,-0.375,847.2222222222222
-0.31,-0.375,850.0
-0.295,-0.38,852.7777777777778
-0.3,-0.385,855.5555555555555
-0.32,-0.395,858.3333333333334
-0.33,-0.405,861.1111111111111
-0.345,-0.39,863.8888888888889
-0.325,-0.385,866.6666666666666
-0.315,-0.38,869.4444444444445
-0.31,-0.38,872.2222222222222
-0.315,-0.385,875.0
-0.345,-0.385,877.7777777777778
-0.33,-0.385,880.5555555555555
-0.31,-0.375,883.3333333333334
-0.29,-0.37,886.1111111111111
-0.315,-0.38,888.8888888888889
-0.335,-0.395,891.6666666666666
-0.335,-0.395,894.4444444444445
-0.345,-0.37,897.2222222222222
-0.325,-0.36,900.0
-0.305,-0.365,902.7777777777778
-0.3,-0.365,905.5555555555555
-0.305,-0.37,908.3333333333334
-0.305,-0.38,911.1111111111111
-0.315,-0.36,913.8888888888889
-0.3,-0.35,916.6666666666666
-0.29,-0.345,919.4444444444445
-0.3,-0.35,922.2222222222222
-0.32,-0.345,925.0
-0.325,-0.355,927.7777777777778
-0.32,-0.35,930.5555555555555
-0.305,-0.335,933.3333333333334
-0.305,-0.325,936.1111111111111
-0.31,-0.32,938.8888888888889
-0.31,-0.35,941.6666666666666
-0.31,-0.35,944.4444444444445
-0.305,-0.355,947.2222222222222
-0.3,-0.345,950.0
-0.28,-0.325,952.7777777777778
-0.265,-0.33,955.5555555555555
-0.275,-0.32,958.3333333333334
-0.28,-0.305,961.1111111111111
-0.265,-0.315,963.8888888888889
-0.25,-0.29,966.6666666666666
-0.235,-0.275,969.4444444444445
-0.225,-0.26,972.2222222222222
-0.225,-0.255,975.0
-0.23,-0.255,977.7777777777778
-0.2,-0.24,980.5555555555555
-0.18,-0.235,983.3333333333334
-0.155,-0.235,986.1111111111111
-0.145,-0.25,988.8888888888889
-0.15,-0.285,991.6666666666666
-0.15,-0.3,994.4444444444445
-0.12,-0.285,997.2222222222222
-0.105,-0.27,1000.0
-0.095,-0.28,1002.7777777777778
-0.085,-0.29,1005.5555555555555
-0.09,-0.29,1008.3333333333334
-0.095,-0.305,1011.1111111111111
-0.095,-0.3,1013.8888888888889
-0.075,-0.285,1016.6666666666666
-0.055,-0.28,1019.4444444444445
-0.05,-0.27,1022.2222222222222
-0.065,-0.285,1025.0
-0.11,-0.28,1027.7777777777778
-0.135,-0.275,1030.5555555555557
-0.165,-0.27,1033.3333333333333
-0.185,-0.275,1036.111111111111
-0.22,-0.285,1038.888888888889
-0.275,-0.295,1041.6666666666667
-0.32,-0.305,1044.4444444444443
-0.35,-0.3,1047.2222222222222
-0.37,-0.31,1050.0
-0.35,-0.305,1052.7777777777778
-0.35,-0.315,1055.5555555555557
-0.355,-0.325,1058.3333333333333
-0.36,-0.33,1061.111111111111
-0.365,-0.32,1063.888888888889
-0.36,-0.305,1066.6666666666667
-0.345,-0.3,1069.4444444444443
-0.34,-0.305,1072.2222222222222
-0.355,-0.31,1075.0
-0.37,-0.325,1077.7777777777778
-0.38,-0.32,1080.5555555555557
-0.39,-0.29,1083.3333333333333
-0.36,-0.295,1086.111111111111
-0.34,-0.29,1088.888888888889
-0.32,-0.295,1091.6666666666667
-0.34,-0.295,1094.4444444444443
-0.36,-0.29,1097.2222222222222
-0.355,-0.28,1100.0
-0.345,-0.285,1102.7777777777778
-0.34,-0.295,1105.5555555555557
-0.355,-0.3,1108.3333333333333
-0.35,-0.305,1111.111111111111
-0.35,-0.285,1113.888888888889
-0.345,-0.28,1116.6666666666667
-0.35,-0.28,1119.4444444444443
-0.355,-0.295,1122.2222222222222
-0.37,-0.305,1125.0
-0.37,-0.3,1127.7777777777778
-0.36,-0.295,1130.5555555555557
-0.345,-0.275,1133.3333333333333
-0.33,-0.275,1136.111111111111
-0.33,-0.265,1138.888888888889
-0.35,-0.28,1141.6666666666667
-0.36,-0.27,1144.4444444444443
-0.37,-0.27,1147.2222222222222
-0.375,-0.29,1150.0
-0.385,-0.36,1152.7777777777778
-0.39,-0.435,1155.5555555555557
-0.375,-0.525,1158.3333333333333
-0.345,-0.625,1161.111111111111
-0.315,-0.75,1163.888888888889
-0.275,-0.94,1166.6666666666667
-0.25,-1.195,1169.4444444444443
-0.265,-1.46,1172.2222222222222
-0.34,-1.66,1175.0
-0.425,-1.705,1177.7777777777778
-0.495,-1.665,1180.5555555555557
-0.51,-1.605,1183.3333333333333
-0.495,-1.57,1186.111111111111
-0.485,-1.53,1188.888888888889
-0.495,-1.51,1191.6666666666667
-0.53,-1.46,1194.4444444444443
-0.575,-1.41,1197.2222222222222
-0.6,-1.375,1200.0
-0.63,-1.355,1202.7777777777778
-0.655,-1.33,1205.5555555555557
-0.68,-1.295,1208.3333333333333
-0.725,-1.26,1211.111111111111
-0.78,-1.2,1213.888888888889
-0.845,-1.145,1216.6666666666667
-0.9,-1.095,1219.4444444444443
-0.915,-1.065,1222.2222222222222
-0.935,-1.025,1225.0
-0.935,-0.97,1227.7777777777778
-0.915,-0.875,1230.5555555555557
-0.88,-0.755,1233.3333333333333
-0.855,-0.685,1236.111111111111
-0.82,-0.615,1238.888888888889
-0.755,-0.56,1241.6666666666667
-0.685,-0.475,1244.4444444444443
-0.61,-0.41,1247.2222222222222
-0.55,-0.33,1250.0
-0.51,-0.265,1252.7777777777778
-0.48,-0.215,1255.5555555555557
-0.44,-0.18,1258.3333333333333
-0.39,-0.14,1261.111111111111
-0.355,-0.08,1263.888888888889
-0.315,-0.045,1266.6666666666667
-0.3,-0.025,1269.4444444444443
-0.3,-0.005,1272.2222222222222
-0.3,-0.01,1275.0
-0.3,0.005,1277.7777777777778
-0.29,0.005,1280.5555555555557
-0.275,0.02,1283.3333333333333
-0.265,0.04,1286.111111111111
-0.275,0.045,1288.888888888889
-0.29,0.04,1291.6666666666667
-0.3,0.045,1294.4444444444443
-0.275,0.065,1297.2222222222222
-0.255,0.08,1300.0
-0.245,0.085,1302.7777777777778
-0.26,0.095,1305.5555555555557
-0.28,0.095,1308.3333333333333
-0.275,0.085,1311.111111111111
-0.26,0.11,1313.888888888889
-0.245,0.12,1316.6666666666667
-0.24,0.12,1319.4444444444443
-0.25,0.13,1322.2222222222222
-0.245,0.115,1325.0
-0.26,0.12,1327.7777777777778
-0.265,0.13,1330.5555555555557
-0.27,0.145,1333.3333333333333
-0.24,0.16,1336.111111111111
-0.23,0.155,1338.888888888889
-0.22,0.14,1341.6666666666667
-0.225,0.145,1344.4444444444443
-0.22,0.16,1347.2222222222222
-0.225,0.17,1350.0
-0.225,0.175,1352.7777777777778
-0.225,0.16,1355.5555555555557
-0.24,0.16,1358.3333333333333
-0.24,0.165,1361.111111111111
-0.24,0.175,1363.888888888889
-0.23,0.195,1366.6666666666667
-0.2,0.195,1369.4444444444443
-0.195,0.19,1372.2222222222222
-0.2,0.195,1375.0
-0.215,0.195,1377.7777777777778
-0.23,0.2,1380.5555555555557
-0.215,0.215,1383.3333333333333
-0.18,0.22,1386.111111111111
-0.18,0.225,1388.888888888889
-0.185,0.2,1391.6666666666667
-0.195,0.205,1394.4444444444443
-0.2,0.21,1397.2222222222222
-0.195,0.215,1400.0
-0.175,0.23,1402.7777777777778
-0.155,0.22,1405.5555555555557
-0.155,0.205,1408.3333333333333
-0.175,0.22,1411.111111111111
-0.17,0.22,1413.888888888889
-0.145,0.23,1416.6666666666667
-0.14,0.23,1419.4444444444443
-0.15,0.22,1422.2222222222222
-0.16,0.205,1425.0
-0.155,0.215,1427.7777777777778
-0.14,0.225,1430.5555555555557
-0.135,0.225,1433.3333333333333
-0.115,0.225,1436.111111111111
-0.12,0.22,1438.888888888889
-0.11,0.21,1441.6666666666667
-0.115,0.21,1444.4444444444443
-0.11,0.21,1447.2222222222222
-0.11,0.225,1450.0
-0.095,0.215,1452.7777777777778
-0.11,0.205,1455.5555555555557
-0.115,0.19,1458.3333333333333
-0.13,0.19,1461.111111111111
-0.12,0.19,1463.888888888889
-0.105,0.19,1466.6666666666667
-0.1,0.195,1469.4444444444443
-0.11,0.18,1472.2222222222222
-0.115,0.17,1475.0
-0.12,0.16,1477.7777777777778
-0.105,0.17,1480.5555555555557
-0.085,0.165,1483.3333333333333
-0.09,0.155,1486.111111111111
-0.1,0.145,1488.888888888889
-0.115,0.115,1491.6666666666667
-0.13,0.115,1494.4444444444443
-0.125,0.115,1497.2222222222222
-0.1,0.11,1500.0
-0.1,0.1,1502.7777777777778
-0.115,0.085,1505.5555555555557
-0.13,0.065,1508.3333333333333
-0.145,0.06,1511.111111111111
-0.155,0.05,1513.888888888889
-0.16,0.03,1516.6666666666667
-0.14,0.035,1519.4444444444443
-0.14,0.03,1522.2222222222222
-0.145,0.0,1525.0
-0.165,-0.005,1527.7777777777778
-0.19,0.0,1530.5555555555557
-0.195,0.0,1533.3333333333333
-0.17,-0.01,1536.111111111111
-0.165,-0.015,1538.888888888889
-0.18,-0.025,1541.6666666666667
-0.19,-0.035,1544.4444444444443
-0.205,-0.02,1547.2222222222222
-0.2,-0.01,1550.0
-0.17,-0.02,1552.7777777777778
-0.19,-0.015,1555.5555555555557
-0.205,-0.015,1558.3333333333333
-0.21,-0.035,1561.111111111111
-0.215,-0.025,1563.888888888889
-0.215,-0.01,1566.6666666666667
-0.205,-0.015,1569.4444444444443
-0.205,-0.01,1572.2222222222222
-0.215,-0.025,1575.0
-0.225,-0.03,1577.7777777777778
-0.21,-0.015,1580.5555555555557
-0.2,0.005,1583.3333333333333
-0.195,-0.005,1586.111111111111
-0.21,-0.02,1588.888888888889
-0.225,-0.015,1591.6666666666667
-0.24,-0.01,1594.4444444444443
-0.24,-0.005,1597.2222222222222
-0.24,0.005,1600.0
-0.245,-0.005,1602.7777777777778
-0.245,0.01,1605.5555555555557
-0.23,0.0,1608.3333333333333
-0.225,-0.005,1611.111111111111
-0.22,0.005,1613.888888888889
-0.225,0.025,1616.6666666666667
-0.235,0.04,1619.4444444444443
-0.235,0.035,1622.2222222222222
-0.26,0.015,1625.0
-0.265,0.02,1627.7777777777778
-0.25,0.015,1630.5555555555557
-0.235,0.035,1633.3333333333333
-0.225,0.035,1636.111111111111
-0.235,0.035,1638.888888888889
-0.25,0.035,1641.6666666666667
-0.285,0.035,1644.4444444444443
-0.28,0.06,1647.2222222222222
-0.26,0.055,1650.0
-0.25,0.065,1652.7777777777778
-0.26,0.055,1655.5555555555557
-0.27,0.05,1658.3333333333333
-0.275,0.045,1661.111111111111
-0.285,0.07,1663.888888888889
-0.265,0.08,1666.6666666666667
-0.26,0.08,1669.4444444444443
-0.27,0.08,1672.2222222222222
-0.3,0.06,1675.0
-0.305,0.065,1677.7777777777778
-0.3,0.075,1680.5555555555557
-0.31,0.075,1683.3333333333333
-0.29,0.08,1686.111111111111
-0.27,0.07,1688.888888888889
-0.3,0.075,1691.6666666666667
-0.32,0.06,1694.4444444444443
-0.31,0.07,1697.2222222222222
-0.305,0.08,1700.0
-0.285,0.075,1702.7777777777778
-0.285,0.075,1705.5555555555557
-0.295,0.07,1708.3333333333333
-0.315,0.055,1711.111111111111
-0.32,0.07,1713.888888888889
-0.32,0.08,1716.6666666666667
-0.315,0.085,1719.4444444444443
-0.32,0.085,1722.2222222222222
-0.315,0.065,1725.0
-0.34,0.06,1727.7777777777778
-0.335,0.08,1730.5555555555557
-0.315,0.075,1733.3333333333333
-0.31,0.065,1736.111111111111
-0.32,0.07,1738.888888888889
-0.335,0.055,1741.6666666666667
-0.34,0.05,1744.4444444444443
-0.345,0.065,1747.2222222222222
-0.33,0.06,1750.0
-0.315,0.065,1752.7777777777778
-0.32,0.055,1755.5555555555557
-0.325,0.045,1758.3333333333333
-0.34,0.045,1761.111111111111
-0.345,0.05,1763.888888888889
-0.34,0.075,1766.6666666666667
-0.33,0.07,1769.4444444444443
-0.33,0.07,1772.2222222222222
-0.31,0.055,1775.0
-0.315,0.05,1777.7777777777778
-0.305,0.065,1780.5555555555557
-0.31,0.065,1783.3333333333333
-0.31,0.065,1786.111111111111
-0.305,0.075,1788.888888888889
-0.315,0.06,1791.6666666666667
-0.32,0.055,1794.4444444444443
-0.305,0.075,1797.2222222222222
-0.3,0.08,1800.0
-0.3,0.08,1802.7777777777778
-0.305,0.065,1805.5555555555557
-0.305,0.06,1808.3333333333333
-0.32,0.045,1811.111111111111
-0.32,0.065,1813.888888888889
-0.31,0.075,1816.6666666666667
-0.31,0.07,1819.4444444444443
-0.305,0.065,1822.2222222222222
-0.295,0.055,1825.0
-0.295,0.065,1827.7777777777778
-0.3,0.07,1830.5555555555557
-0.295,0.09,1833.3333333333333
-0.3,0.08,1836.111111111111
-0.295,0.075,1838.888888888889
-0.305,0.07,1841.6666666666667
-0.305,0.065,1844.4444444444443
-0.285,0.07,1847.2222222222222
-0.275,0.085,1850.0
-0.29,0.085,1852.7777777777778
-0.285,0.08,1855.5555555555557
-0.285,0.07,1858.3333333333333
-0.315,0.055,1861.111111111111
-0.3,0.07,1863.888888888889
-0.29,0.09,1866.6666666666667
-0.285,0.08,1869.4444444444443
-0.295,0.09,1872.2222222222222
-0.3,0.075,1875.0
-0.29,0.07,1877.7777777777778
-0.285,0.085,1880.5555555555557
-0.265,0.095,1883.3333333333333
-0.27,0.085,1886.111111111111
-0.28,0.085,1888.888888888889
-0.29,0.09,1891.6666666666667
-0.295,0.075,1894.4444444444443
-0.3,0.085,1897.2222222222222
-0.285,0.09,1900.0
-0.275,0.095,1902.7777777777778
-0.27,0.085,1905.5555555555557
-0.27,0.085,1908.3333333333333
-0.285,0.08,1911.111111111111
-0.29,0.08,1913.888888888889
-0.28,0.09,1916.6666666666667
-0.275,0.1,1919.4444444444443
-0.275,0.1,1922.2222222222222
-0.275,0.09,1925.0
-0.275,0.105,1927.7777777777778
-0.26,0.12,1930.5555555555557
-0.225,0.13,1933.3333333333333
-0.205,0.14,1936.111111111111
-0.2,0.15,1938.888888888889
-0.205,0.15,1941.6666666666667
-0.215,0.16,1944.4444444444443
-0.205,0.185,1947.2222222222222
-0.2,0.19,1950.0
-0.175,0.19,1952.7777777777778
-0.15,0.2,1955.5555555555557
-0.12,0.18,1958.3333333333333
-0.115,0.17,1961.111111111111
-0.09,0.15,1963.888888888889
-0.085,0.155,1966.6666666666667
-0.065,0.155,1969.4444444444443
-0.065,0.145,1972.2222222222222
-0.085,0.13,1975.0
-0.08,0.12,1977.7777777777778
-0.04,0.13,1980.5555555555557
0.005,0.135,1983.3333333333333
0.01,0.14,1986.111111111111
0.005,0.145,1988.888888888889
-0.01,0.155,1991.6666666666667
-0.04,0.15,1994.4444444444443
-0.08,0.16,1997.2222222222222
-0.12,0.15,2000.0
-0.135,0.14,2002.7777777777778
-0.175,0.13,2005.5555555555557
-0.215,0.12,2008.3333333333333
-0.265,0.11,2011.111111111111
-0.305,0.105,2013.888888888889
-0.315,0.11,2016.6666666666667
-0.315,0.095,2019.4444444444443
-0.315,0.1,2022.2222222222222
-0.305,0.095,2025.0
-0.32,0.085,2027.7777777777778
-0.315,0.1,2030.5555555555557
-0.305,0.11,2033.3333333333333
-0.29,0.11,2036.111111111111
-0.305,0.11,2038.888888888889
-0.315,0.105,2041.6666666666667
-0.325,0.1,2044.4444444444443
-0.315,0.105,2047.2222222222222
-0.315,0.115,2050.0
-0.305,0.11,2052.777777777778
-0.31,0.11,2055.5555555555557
-0.31,0.09,2058.3333333333335
-0.315,0.09,2061.1111111111113
-0.32,0.1,2063.8888888888887
-0.315,0.105,2066.6666666666665
-0.305,0.11,2069.4444444444443
-0.285,0.1,2072.222222222222
-0.285,0.1,2075.0
-0.31,0.09,2077.777777777778
-0.32,0.11,2080.5555555555557
-0.32,0.115,2083.3333333333335
-0.31,0.11,2086.1111111111113
-0.345,0.105,2088.8888888888887
-0.34,0.085,2091.6666666666665
-0.35,0.085,2094.4444444444443
-0.345,0.1,2097.222222222222
-0.345,0.115,2100.0
-0.32,0.11,2102.777777777778
-0.315,0.1,2105.5555555555557
-0.315,0.105,2108.3333333333335
-0.345,0.11,2111.1111111111113
-0.34,0.12,2113.8888888888887
-0.32,0.095,2116.6666666666665
-0.315,0.02,2119.4444444444443
-0.325,-0.06,2122.222222222222
-0.35,-0.175,2125.0
-0.34,-0.295,2127.777777777778
-0.32,-0.425,2130.5555555555557
-0.285,-0.605,2133.3333333333335
-0.27,-0.855,2136.1111111111113
-0.265,-1.14,2138.8888888888887
-0.28,-1.355,2141.6666666666665
-0.35,-1.44,2144.4444444444443
-0.425,-1.405,2147.222222222222
-0.465,-1.34,2150.0
-0.47,-1.29,2152.777777777778
-0.49,-1.24,2155.5555555555557
-0.51,-1.2,2158.3333333333335
-0.53,-1.155,2161.1111111111113
-0.565,-1.105,2163.8888888888887
-0.605,-1.075,2166.6666666666665
-0.625,-1.055,2169.4444444444443
-0.655,-1.02,2172.222222222222
-0.68,-0.99,2175.0
-0.705,-0.94,2177.777777777778
-0.76,-0.895,2180.5555555555557
-0.82,-0.84,2183.3333333333335
-0.86,-0.77,2186.1111111111113
-0.9,-0.72,2188.8888888888887
-0.915,-0.685,2191.6666666666665
-0.925,-0.62,2194.4444444444443
-0.895,-0.535,2197.222222222222
-0.84,-0.43,2200.0
-0.815,-0.35,2202.777777777778
-0.79,-0.275,2205.5555555555557
-0.745,-0.21,2208.3333333333335
-0.67,-0.155,2211.1111111111113
-0.58,-0.065,2213.8888888888887
-0.515,0.0,2216.6666666666665
-0.475,0.055,2219.4444444444443
-0.46,0.11,2222.222222222222
-0.425,0.145,2225.0
-0.395,0.195,2227.777777777778
-0.345,0.24,2230.5555555555557
-0.315,0.28,2233.3333333333335
-0.295,0.29,2236.1111111111113
-0.29,0.305,2238.8888888888887
-0.28,0.31,2241.6666666666665
-0.28,0.315,2244.4444444444443
-0.285,0.325,2247.222222222222
-0.27,0.345,2250.0
-0.26,0.34,2252.777777777778
-0.255,0.355,2255.5555555555557
-0.265,0.35,2258.3333333333335
-0.265,0.345,2261.1111111111113
-0.265,0.36,2263.8888888888887
-0.265,0.385,2266.6666666666665
-0.265,0.38,2269.4444444444443
-0.26,0.395,2272.222222222222
-0.27,0.385,2275.0
-0.285,0.395,2277.777777777778
-0.26,0.405,2280.5555555555557
-0.215,0.415,2283.3333333333335
-0.19,0.405,2286.1111111111113
-0.21,0.4,2288.8888888888887
-0.23,0.41,2291.6666666666665
-0.255,0.4,2294.4444444444443
-0.255,0.415,2297.222222222222
-0.23,0.41,2300.0
-0.235,0.43,2302.777777777778
-0.235,0.42,2305.5555555555557
-0.245,0.42,2308.3333333333335
-0.23,0.41,2311.1111111111113
-0.215,0.43,2313.8888888888887
-0.22,0.435,2316.6666666666665
-0.22,0.44,2319.4444444444443
-0.22,0.435,2322.222222222222
-0.225,0.435,2325.0
-0.23,0.44,2327.777777777778
-0.225,0.44,2330.5555555555557
-0.205,0.455,2333.3333333333335
-0.19,0.455,2336.1111111111113
-0.2,0.46,2338.8888888888887
-0.215,0.435,2341.6666666666665
-0.23,0.445,2344.4444444444443
-0.22,0.445,2347.222222222222
-0.185,0.455,2350.0
-0.17,0.46,2352.777777777778
-0.16,0.46,2355.5555555555557
-0.18,0.44,2358.3333333333335
-0.2,0.43,2361.1111111111113
-0.205,0.445,2363.8888888888887
-0.175,0.46,2366.6666666666665
-0.135,0.45,2369.4444444444443
-0.11,0.445,2372.222222222222
-0.145,0.445,2375.0
-0.175,0.435,2377.777777777778
-0.18,0.44,2380.5555555555557
-0.155,0.46,2383.3333333333335
-0.135,0.465,2386.1111111111113
-0.125,0.445,2388.8888888888887
-0.145,0.44,2391.6666666666665
-0.15,0.44,2394.4444444444443
-0.14,0.45,2397.222222222222
-0.145,0.45,2400.0
-0.12,0.44,2402.777777777778
-0.095,0.435,2405.5555555555557
-0.1,0.42,2408.3333333333335
-0.12,0.41,2411.1111111111113
-0.105,0.415,2413.8888888888887
-0.11,0.415,2416.6666666666665
-0.11,0.41,2419.4444444444443
-0.115,0.395,2422.222222222222
-0.115,0.37,2425.0
-0.125,0.37,2427.777777777778
-0.105,0.395,2430.5555555555557
-0.095,0.395,2433.3333333333335
-0.09,0.395,2436.1111111111113
-0.085,0.38,2438.8888888888887
-0.1,0.37,2441.6666666666665
-0.13,0.35,2444.4444444444443
-0.15,0.36,2447.222222222222
-0.14,0.345,2450.0
-0.11,0.345,2452.777777777778
-0.07,0.335,2455.5555555555557
-0.065,0.315,2458.3333333333335
-0.105,0.315,2461.1111111111113
-0.135,0.3,2463.8888888888887
-0.14,0.315,2466.6666666666665
-0.11,0.3,2469.4444444444443
-0.09,0.285,2472.222222222222
-0.105,0.26,2475.0
-0.125,0.255,2477.777777777778
-0.13,0.25,2480.5555555555557
-0.145,0.25,2483.3333333333335
-0.13,0.23,2486.1111111111113
-0.15,0.235,2488.8888888888887
-0.18,0.21,2491.6666666666665
-0.185,0.22,2494.4444444444443
-0.19,0.215,2497.222222222222
-0.185,0.23,2500.0
-0.17,0.215,2502.777777777778
-0.175,0.21,2505.5555555555557
-0.2,0.19,2508.3333333333335
-0.21,0.185,2511.1111111111113
-0.215,0.2,2513.8888888888887
-0.21,0.205,2516.6666666666665
-0.21,0.21,2519.4444444444443
-0.225,0.205,2522.222222222222
-0.235,0.185,2525.0
-0.245,0.185,2527.777777777778
-0.25,0.195,2530.5555555555557
-0.23,0.21,2533.3333333333335
-0.22,0.195,2536.1111111111113
-0.225,0.2,2538.8888888888887
-0.235,0.19,2541.6666666666665
-0.265,0.195,2544.4444444444443
-0.255,0.2,2547.222222222222
-0.25,0.215,2550.0
-0.24,0.215,2552.777777777778
-0.24,0.225,2555.5555555555557
-0.255,0.205,2558.3333333333335
-0.27,0.205,2561.1111111111113
-0.275,0.21,2563.8888888888887
-0.265,0.225,2566.6666666666665
-0.25,0.22,2569.4444444444443
-0.265,0.225,2572.222222222222
-0.27,0.21,2575.0
-0.3,0.205,2577.777777777778
-0.275,0.215,2580.5555555555557
-0.265,0.23,2583.3333333333335
-0.265,0.23,2586.1111111111113
-0.26,0.22,2588.8888888888887
-0.27,0.215,2591.6666666666665
-0.295,0.205,2594.4444444444443
-0.295,0.225,2597.222222222222
-0.285,0.24,2600.0
-0.275,0.235,2602.777777777778
-0.275,0.23,2605.5555555555557
-0.295,0.225,2608.3333333333335
-0.31,0.23,2611.1111111111113
-0.325,0.235,2613.8888888888887
-0.31,0.245,2616.6666666666665
-0.29,0.245,2619.4444444444443
-0.29,0.24,2622.222222222222
-0.295,0.235,2625.0
-0.305,0.235,2627.777777777778
-0.315,0.23,2630.5555555555557
-0.31,0.25,2633.3333333333335
-0.305,0.245,2636.1111111111113
-0.29,0.24,2638.8888888888887
-0.31,0.23,2641.6666666666665
-0.335,0.235,2644.4444444444443
-0.345,0.235,2647.222222222222
-0.345,0.245,2650.0
-0.335,0.235,2652.777777777778
-0.33,0.24,2655.5555555555557
-0.33,0.225,2658.3333333333335
-0.34,0.225,2661.1111111111113
-0.35,0.235,2663.8888888888887
-0.345,0.24,2666.6666666666665
-0.33,0.24,2669.4444444444443
-0.33,0.235,2672.222222222222
-0.345,0.225,2675.0
-0.375,0.22,2677.777777777778
-0.36,0.215,2680.5555555555557
-0.35,0.245,2683.3333333333335
-0.34,0.235,2686.1111111111113
-0.345,0.22,2688.8888888888887
-0.37,0.21,2691.6666666666665
-0.37,0.195,2694.4444444444443
-0.36,0.205,2697.222222222222
-0.365,0.22,2700.0
-0.345,0.21,2702.777777777778
-0.355,0.21,2705.5555555555557
-0.37,0.19,2708.3333333333335
-0.37,0.2,2711.1111111111113
-0.375,0.195,2713.8888888888887
-0.355,0.21,2716.6666666666665
-0.345,0.215,2719.4444444444443
-0.34,0.205,2722.222222222222
-0.35,0.2,2725.0
-0.365,0.205,2727.777777777778
-0.37,0.21,2730.5555555555557
-0.365,0.21,2733.3333333333335
-0.355,0.205,2736.1111111111113
-0.365,0.195,2738.8888888888887
-0.375,0.21,2741.6666666666665
-0.37,0.2,2744.4444444444443
-0.365,0.205,2747.222222222222
-0.34,0.215,2750.0
-0.315,0.205,2752.777777777778
-0.335,0.21,2755.5555555555557
-0.35,0.2,2758.3333333333335
-0.365,0.2,2761.1111111111113
-0.35,0.2,2763.8888888888887
-0.35,0.21,2766.6666666666665
-0.335,0.22,2769.4444444444443
-0.34,0.2,2772.222222222222
-0.355,0.19,2775.0
-0.35,0.205,2777.777777777778
-0.335,0.215,2780.5555555555557
-0.34,0.2,2783.3333333333335
-0.33,0.205,2786.1111111111113
-0.35,0.195,2788.8888888888887
-0.355,0.2,2791.6666666666665
-0.35,0.21,2794.4444444444443
-0.325,0.22,2797.222222222222
-0.315,0.215,2800.0
-0.325,0.2,2802.777777777778
-0.34,0.195,2805.5555555555557
-0.365,0.18,2808.3333333333335
-0.36,0.185,2811.1111111111113
-0.34,0.205,2813.8888888888887
-0.325,0.205,2816.6666666666665
-0.32,0.215,2819.4444444444443
-0.33,0.19,2822.222222222222
-0.34,0.195,2825.0
-0.355,0.195,2827.777777777778
-0.33,0.2,2830.5555555555557
-0.32,0.205,2833.3333333333335
-0.325,0.2,2836.1111111111113
-0.335,0.19,2838.8888888888887
-0.325,0.2,2841.6666666666665
-0.33,0.2,2844.4444444444443
-0.325,0.215,2847.222222222222
-0.32,0.205,2850.0
-0.33,0.21,2852.777777777778
-0.34,0.2,2855.5555555555557
-0.345,0.19,2858.3333333333335
-0.325,0.195,2861.1111111111113
-0.31,0.2,2863.8888888888887
-0.31,0.2,2866.6666666666665
-0.31,0.195,2869.4444444444443
-0.31,0.2,2872.222222222222
-0.325,0.19,2875.0
-0.32,0.2,2877.777777777778
-0.305,0.205,2880.5555555555557
-0.3,0.21,2883.3333333333335
-0.305,0.205,2886.1111111111113
-0.335,0.195,2888.8888888888887
-0.335,0.19,2891.6666666666665
-0.335,0.2,2894.4444444444443
-0.305,0.21,2897.222222222222
-0.29,0.215,2900.0
-0.3,0.23,2902.777777777778
-0.315,0.2,2905.5555555555557
-0.335,0.205,2908.3333333333335
-0.32,0.205,2911.1111111111113
-0.305,0.23,2913.8888888888887
-0.29,0.23,2916.6666666666665
-0.295,0.225,2919.4444444444443
-0.3,0.205,2922.222222222222
-0.32,0.21,2925.0
-0.305,0.215,2927.777777777778
-0.285,0.25,2930.5555555555557
-0.28,0.24,2933.3333333333335
-0.275,0.245,2936.1111111111113
-0.265,0.245,2938.8888888888887
-0.25,0.24,2941.6666666666665
-0.23,0.28,2944.4444444444443
-0.22,0.3,2947.222222222222
-0.21,0.295,2950.0
-0.195,0.3,2952.777777777778
-0.19,0.295,2955.5555555555557
-0.18,0.3,2958.3333333333335
-0.165,0.3,2961.1111111111113
-0.135,0.3,2963.8888888888887
-0.11,0.295,2966.6666666666665
-0.09,0.275,2969.4444444444443
-0.095,0.265,2972.222222222222
-0.1,0.265,2975.0
-0.11,0.25,2977.777777777778
-0.115,0.25,2980.5555555555557
-0.09,0.255,2983.3333333333335
-0.075,0.245,2986.1111111111113
-0.075,0.24,2988.8888888888887
-0.07,0.23,2991.6666666666665
-0.055,0.25,2994.4444444444443
-0.04,0.26,2997.222222222222
-0.065,0.24,3000.0
-0.115,0.245,3002.777777777778
-0.165,0.235,3005.5555555555557
-0.225,0.22,3008.3333333333335
-0.245,0.24,3011.1111111111113
-0.285,0.245,3013.8888888888887
-0.305,0.23,3016.6666666666665
-0.35,0.22,3019.4444444444443
-0.365,0.215,3022.222222222222
-0.37,0.19,3025.0
-0.355,0.2,3027.777777777778
-0.35,0.21,3030.5555555555557
-0.345,0.2,3033.3333333333335
-0.345,0.19,3036.1111111111113
-0.36,0.19,3038.8888888888887
-0.36,0.19,3041.6666666666665
-0.35,0.195,3044.4444444444443
-0.34,0.21,3047.222222222222
-0.335,0.21,3050.0
-0.355,0.195,3052.777777777778
-0.365,0.18,3055.5555555555557
-0.38,0.18,3058.3333333333335
-0.37,0.185,3061.1111111111113
-0.355,0.21,3063.8888888888887
-0.33,0.205,3066.6666666666665
-0.34,0.2,3069.4444444444443
-0.35,0.175,3072.222222222222
-0.355,0.185,3075.0
-0.355,0.19,3077.777777777778
-0.35,0.21,3080.5555555555557
-0.34,0.2,3083.3333333333335
-0.345,0.205,3086.1111111111113
-0.355,0.19,3088.8888888888887
-0.36,0.19,3091.6666666666665
-0.35,0.2,3094.4444444444443
-0.35,0.195,3097.222222222222
-0.33,0.195,3100.0
-0.335,0.195,3102.777777777778
-0.355,0.185,3105.5555555555557
-0.365,0.175,3108.3333333333335
-0.355,0.19,3111.1111111111113
-0.355,0.195,3113.8888888888887
-0.35,0.195,3116.6666666666665
-0.345,0.195,3119.4444444444443
-0.34,0.2,3122.222222222222
-0.34,0.2,3125.0
-0.35,0.185,3127.777777777778
-0.36,0.16,3130.5555555555557
-0.37,0.095,3133.3333333333335
-0.38,0.025,3136.1111111111113
-0.345,-0.07,3138.8888888888887
-0.325,-0.18,3141.6666666666665
-0.28,-0.31,3144.4444444444443
-0.24,-0.515,3147.222222222222
-0.22,-0.76,3150.0
-0.245,-1.025,3152.777777777778
-0.32,-1.2,3155.5555555555557
-0.44,-1.255,3158.3333333333335
-0.515,-1.225,3161.1111111111113
-0.515,-1.17,3163.8888888888887
-0.51,-1.135,3166.6666666666665
-0.5,-1.105,3169.4444444444443
-0.505,-1.08,3172.222222222222
-0.555,-1.04,3175.0
-0.6,-0.995,3177.777777777778
-0.635,-0.95,3180.5555555555557
-0.65,-0.945,3183.3333333333335
-0.675,-0.905,3186.1111111111113
-0.705,-0.865,3188.8888888888887
-0.745,-0.83,3191.6666666666665
-0.785,-0.775,3194.4444444444443
-0.845,-0.72,3197.222222222222
-0.87,-0.67,3200.0
-0.9,-0.635,3202.777777777778
-0.935,-0.605,3205.5555555555557
-0.945,-0.545,3208.3333333333335
-0.91,-0.44,3211.1111111111113
-0.87,-0.345,3213.8888888888887
-0.845,-0.26,3216.6666666666665
-0.82,-0.2,3219.4444444444443
-0.765,-0.13,3222.222222222222
-0.69,-0.055,3225.0
-0.61,0.02,3227.777777777778
-0.55,0.095,3230.5555555555557
-0.515,0.16,3233.3333333333335
-0.475,0.195,3236.1111111111113
-0.44,0.23,3238.8888888888887
-0.385,0.27,3241.6666666666665
-0.37,0.32,3244.4444444444443
-0.33,0.35,3247.222222222222
-0.305,0.39,3250.0
-0.28,0.4,3252.777777777778
-0.28,0.405,3255.5555555555557
-0.295,0.405,3258.3333333333335
-0.305,0.42,3261.1111111111113
-0.29,0.435,3263.8888888888887
-0.28,0.455,3266.6666666666665
-0.29,0.44,3269.4444444444443
-0.29,0.455,3272.222222222222
-0.29,0.445,3275.0
-0.285,0.465,3277.777777777778
-0.275,0.49,3280.5555555555557
-0.27,0.49,3283.3333333333335
-0.285,0.475,3286.1111111111113
-0.28,0.48,3288.8888888888887
-0.3,0.475,3291.6666666666665
-0.3,0.495,3294.4444444444443
-0.27,0.51,3297.222222222222
-0.255,0.52,3300.0
-0.26,0.525,3302.777777777778
-0.26,0.505,3305.5555555555557
-0.28,0.525,3308.3333333333335
-0.27,0.53,3311.1111111111113
-0.27,0.545,3313.8888888888887
-0.255,0.54,3316.6666666666665
-0.27,0.53,3319.4444444444443
-0.26,0.53,3322.222222222222
-0.28,0.525,3325.0
-0.275,0.535,3327.777777777778
-0.27,0.535,3330.5555555555557
-0.25,0.54,3333.3333333333335
-0.24,0.545,3336.1111111111113
-0.235,0.54,3338.8888888888887
-0.265,0.54,3341.6666666666665
-0.265,0.545,3344.4444444444443
-0.245,0.565,3347.222222222222
-0.245,0.565,3350.0
-0.24,0.55,3352.777777777778
-0.24,0.56,3355.5555555555557
-0.245,0.55,3358.3333333333335
-0.235,0.56,3361.1111111111113
-0.205,0.575,3363.8888888888887
-0.185,0.575,3366.6666666666665
-0.2,0.58,3369.4444444444443
-0.205,0.57,3372.222222222222
-0.22,0.575,3375.0
-0.215,0.585,3377.777777777778
-0.205,0.585,3380.5555555555557
-0.2,0.585,3383.3333333333335
-0.2,0.585,3386.1111111111113
-0.195,0.57,3388.8888888888887
-0.195,0.565,3391.6666666666665
-0.185,0.565,3394.4444444444443
-0.18,0.58,3397.222222222222
-0.18,0.575,3400.0
-0.17,0.57,3402.777777777778
-0.17,0.555,3405.5555555555557
-0.19,0.55,3408.3333333333335
-0.195,0.555,3411.1111111111113
-0.16,0.57,3413.8888888888887
-0.15,0.565,3416.6666666666665
-0.135,0.56,3419.4444444444443
-0.16,0.545,3422.222222222222
-0.17,0.55,3425.0
-0.16,0.53,3427.777777777778
-0.15,0.545,3430.5555555555557
-0.13,0.545,3433.3333333333335
-0.13,0.525,3436.1111111111113
-0.15,0.52,3438.8888888888887
-0.155,0.505,3441.6666666666665
-0.16,0.5,3444.4444444444443
-0.15,0.505,3447.222222222222
-0.16,0.505,3450.0
-0.16,0.485,3452.777777777778
-0.15,0.465,3455.5555555555557
-0.145,0.445,3458.3333333333335
-0.15,0.455,3461.1111111111113
-0.15,0.455,3463.8888888888887
-0.14,0.44,3466.6666666666665
-0.155,0.425,3469.4444444444443
-0.15,0.41,3472.222222222222
-0.175,0.405,3475.0
-0.18,0.39,3477.777777777778
-0.17,0.38,3480.5555555555557
-0.175,0.37,3483.3333333333335
-0.18,0.35,3486.1111111111113
-0.2,0.325,3488.8888888888887
-0.215,0.315,3491.6666666666665
-0.215,0.32,3494.4444444444443
-0.21,0.315,3497.222222222222
-0.2,0.31,3500.0
-0.21,0.29,3502.777777777778
-0.215,0.28,3505.5555555555557
-0.235,0.265,3508.3333333333335
-0.245,0.27,3511.1111111111113
-0.24,0.27,3513.8888888888887
-0.25,0.28,3516.6666666666665
-0.255,0.275,3519.4444444444443
-0.25,0.255,3522.222222222222
-0.265,0.245,3525.0
-0.26,0.265,3527.777777777778
-0.25,0.26,3530.5555555555557
-0.255,0.26,3533.3333333333335
-0.24,0.26,3536.1111111111113
-0.24,0.245,3538.8888888888887
-0.255,0.24,3541.6666666666665
-0.265,0.245,3544.4444444444443
-0.27,0.265,3547.222222222222
-0.255,0.255,3550.0
-0.255,0.255,3552.777777777778
-0.25,0.26,3555.5555555555557
-0.25,0.25,3558.3333333333335
-0.255,0.265,3561.1111111111113
-0.26,0.27,3563.8888888888887
-0.245,0.27,3566.6666666666665
-0.25,0.28,3569.4444444444443
-0.25,0.27,3572.222222222222
-0.275,0.265,3575.0
-0.265,0.28,3577.777777777778
-0.265,0.295,3580.5555555555557
-0.25,0.305,3583.3333333333335
-0.255,0.3,3586.1111111111113
-0.27,0.295,3588.8888888888887
-0.275,0.285,3591.6666666666665
-0.27,0.3,3594.4444444444443
-0.28,0.315,3597.222222222222
-0.265,0.3,3600.0
-0.265,0.3,3602.777777777778
-0.28,0.285,3605.5555555555557
-0.285,0.295,3608.3333333333335
-0.29,0.305,3611.1111111111113
-0.27,0.32,3613.8888888888887
-0.26,0.315,3616.6666666666665
-0.275,0.325,3619.4444444444443
-0.3,0.325,3622.222222222222
-0.295,0.315,3625.0
-0.275,0.33,3627.777777777778
-0.275,0.345,3630.5555555555557
-0.275,0.345,3633.3333333333335
-0.275,0.35,3636.1111111111113
-0.29,0.335,3638.8888888888887
-0.315,0.32,3641.6666666666665
-0.305,0.34,3644.4444444444443
-0.315,0.345,3647.222222222222
-0.29,0.34,3650.0
-0.285,0.35,3652.777777777778
-0.305,0.335,3655.5555555555557
-0.31,0.315,3658.3333333333335
-0.32,0.335,3661.1111111111113
-0.305,0.325,3663.8888888888887
-0.315,0.33,3666.6666666666665
-0.31,0.32,3669.4444444444443
-0.345,0.315,3672.222222222222
-0.355,0.315,3675.0
-0.35,0.33,3677.777777777778
-0.335,0.34,3680.5555555555557
-0.315,0.35,3683.3333333333335
-0.315,0.34,3686.1111111111113
-0.35,0.335,3688.8888888888887
-0.35,0.325,3691.6666666666665
-0.335,0.33,3694.4444444444443
-0.335,0.335,3697.222222222222
-0.325,0.33,3700.0
-0.325,0.315,3702.777777777778
-0.34,0.31,3705.5555555555557
-0.35,0.315,3708.3333333333335
-0.355,0.315,3711.1111111111113
-0.35,0.32,3713.8888888888887
-0.335,0.31,3716.6666666666665
-0.335,0.31,3719.4444444444443
-0.34,0.3,3722.222222222222
-0.375,0.295,3725.0
-0.37,0.295,3727.777777777778
-0.345,0.32,3730.5555555555557
-0.31,0.32,3733.3333333333335
-0.305,0.32,3736.1111111111113
-0.32,0.305,3738.8888888888887
-0.335,0.3,3741.6666666666665
-0.33,0.315,3744.4444444444443
-0.315,0.315,3747.222222222222
-0.3,0.315,3750.0
-0.29,0.31,3752.777777777778
-0.305,0.305,3755.5555555555557
-0.32,0.305,3758.3333333333335
-0.31,0.305,3761.1111111111113
-0.32,0.32,3763.8888888888887
-0.31,0.325,3766.6666666666665
-0.315,0.305,3769.4444444444443
-0.33,0.3,3772.222222222222
-0.32,0.29,3775.0
-0.32,0.31,3777.777777777778
-0.31,0.32,3780.5555555555557
-0.29,0.32,3783.3333333333335
-0.305,0.315,3786.1111111111113
-0.3,0.31,3788.8888888888887
-0.315,0.305,3791.6666666666665
-0.315,0.3,3794.4444444444443
-0.32,0.315,3797.222222222222
-0.31,0.305,3800.0
-0.305,0.3,3802.777777777778
-0.305,0.31,3805.5555555555557
-0.31,0.29,3808.3333333333335
-0.295,0.3,3811.1111111111113
-0.28,0.31,3813.8888888888887
-0.28,0.32,3816.6666666666665
-0.29,0.295,3819.4444444444443
-0.315,0.28,3822.222222222222
-0.34,0.28,3825.0
-0.34,0.3,3827.777777777778
-0.315,0.315,3830.5555555555557
-0.27,0.31,3833.3333333333335
-0.26,0.3,3836.1111111111113
-0.27,0.3,3838.8888888888887
-0.29,0.3,3841.6666666666665
-0.285,0.31,3844.4444444444443
-0.29,0.315,3847.222222222222
-0.28,0.315,3850.0
-0.28,0.31,3852.777777777778
-0.3,0.29,3855.5555555555557
-0.3,0.295,3858.3333333333335
-0.31,0.295,3861.1111111111113
-0.29,0.305,3863.8888888888887
-0.28,0.305,3866.6666666666665
-0.285,0.285,3869.4444444444443
-0.29,0.295,3872.222222222222
-0.305,0.29,3875.0
-0.31,0.3,3877.777777777778
-0.28,0.315,3880.5555555555557
-0.26,0.305,3883.3333333333335
-0.255,0.315,3886.1111111111113
-0.24,0.32,3888.8888888888887
-0.245,0.33,3891.6666666666665
-0.235,0.35,3894.4444444444443
-0.22,0.37,3897.222222222222
-0.215,0.375,3900.0
-0.21,0.395,3902.777777777778
-0.2,0.38,3905.5555555555557
-0.185,0.385,3908.3333333333335
-0.17,0.4,3911.1111111111113
-0.14,0.4,3913.8888888888887
-0.125,0.38,3916.6666666666665
-0.115,0.355,3919.4444444444443
-0.105,0.325,3922.222222222222
-0.1,0.325,3925.0
-0.08,0.33,3927.777777777778
-0.065,0.34,3930.5555555555557
-0.055,0.335,3933.3333333333335
-0.06,0.33,3936.1111111111113
-0.06,0.31,3938.8888888888887
-0.06,0.32,3941.6666666666665
-0.065,0.33,3944.4444444444443
-0.06,0.355,3947.222222222222
-0.055,0.36,3950.0
-0.07,0.34,3952.777777777778
-0.09,0.33,3955.5555555555557
-0.145,0.315,3958.3333333333335
-0.19,0.32,3961.1111111111113
-0.225,0.32,3963.8888888888887
-0.27,0.315,3966.6666666666665
-0.31,0.295,3969.4444444444443
-0.345,0.265,3972.222222222222
-0.36,0.265,3975.0
-0.36,0.27,3977.777777777778
-0.345,0.285,3980.5555555555557
-0.32,0.285,3983.3333333333335
-0.315,0.275,3986.1111111111113
-0.325,0.255,3988.8888888888887
-0.34,0.27,3991.6666666666665
-0.345,0.265,3994.4444444444443
-0.345,0.285,3997.222222222222
-0.34,0.275,4000.0
-0.345,0.28,4002.777777777778
-0.37,0.265,4005.5555555555557
-0.365,0.26,4008.3333333333335
-0.345,0.265,4011.1111111111113
-0.335,0.275,4013.8888888888887
-0.315,0.28,4016.6666666666665
-0.325,0.27,4019.4444444444443
-0.345,0.255,4022.222222222222
-0.37,0.265,4025.0
-0.36,0.27,4027.777777777778
-0.335,0.27,4030.5555555555557
-0.34,0.27,4033.3333333333335
-0.34,0.265,4036.1111111111113
-0.335,0.26,4038.8888888888887
-0.36,0.255,4041.6666666666665
-0.36,0.265,4044.4444444444443
-0.35,0.275,4047.222222222222
-0.33,0.265,4050.0
-0.335,0.275,4052.777777777778
-0.325,0.26,4055.5555555555557
-0.335,0.26,4058.3333333333335
-0.34,0.28,4061.1111111111113
-0.345,0.29,4063.8888888888887
-0.325,0.29,4066.6666666666665
-0.325,0.285,4069.4444444444443
-0.34,0.23,4072.222222222222
-0.375,0.16,4075.0
-0.39,0.095,4077.777777777778
-0.37,0.0,4080.5555555555557
-0.33,-0.125,4083.3333333333335
-0.31,-0.305,4086.1111111111113
-0.3,-0.56,4088.8888888888887
-0.29,-0.845,4091.6666666666665
-0.295,-1.11,4094.4444444444443
-0.345,-1.245,4097.222222222223
-0.445,-1.255,4100.0
-0.495,-1.205,4102.777777777777
-0.525,-1.17,4105.555555555556
-0.53,-1.13,4108.333333333333
-0.515,-1.08,4111.111111111111
-0.525,-1.025,4113.888888888889
-0.54,-0.965,4116.666666666667
-0.595,-0.945,4119.444444444444
-0.64,-0.925,4122.222222222223
-0.69,-0.925,4125.0
-0.71,-0.87,4127.777777777777
-0.73,-0.805,4130.555555555556
-0.76,-0.755,4133.333333333333
-0.825,-0.715,4136.111111111111
-0.875,-0.66,4138.888888888889
-0.915,-0.6,4141.666666666667
-0.92,-0.56,4144.444444444444
-0.915,-0.48,4147.222222222223
-0.88,-0.4,4150.0
-0.865,-0.3,4152.777777777777
-0.85,-0.21,4155.555555555556
-0.835,-0.125,4158.333333333333
-0.77,-0.03,4161.111111111111
-0.665,0.07,4163.888888888889
-0.585,0.145,4166.666666666667
-0.53,0.215,4169.444444444444
-0.485,0.265,4172.222222222223
-0.455,0.325,4175.0
-0.405,0.41,4177.777777777777
-0.355,0.45,4180.555555555556
-0.325,0.49,4183.333333333333
-0.3,0.485,4186.111111111111
-0.295,0.5,4188.888888888889
-0.3,0.52,4191.666666666667
-0.3,0.53,4194.444444444444
-0.29,0.56,4197.222222222223
-0.275,0.565,4200.0
-0.28,0.58,4202.777777777777
-0.285,0.57,4205.555555555556
-0.285,0.585,4208.333333333333
-0.265,0.61,4211.111111111111
-0.245,0.625,4213.888888888889
-0.245,0.64,4216.666666666667
-0.25,0.63,4219.444444444444
-0.28,0.63,4222.222222222223
-0.3,0.64,4225.0
-0.275,0.655,4227.777777777777
-0.23,0.67,4230.555555555556
-0.215,0.66,4233.333333333333
-0.21,0.675,4236.111111111111
-0.22,0.655,4238.888888888889
-0.24,0.65,4241.666666666667
-0.25,0.67,4244.444444444444
-0.255,0.68,4247.222222222223
-0.245,0.675,4250.0
-0.24,0.675,4252.777777777777
-0.25,0.675,4255.555555555556
-0.245,0.67,4258.333333333333
-0.245,0.695,4261.111111111111
-0.235,0.705,4263.888888888889
-0.23,0.7,4266.666666666667
-0.22,0.69,4269.444444444444
-0.225,0.69,4272.222222222223
-0.23,0.7,4275.0
-0.205,0.715,4277.777777777777
-0.2,0.72,4280.555555555556
-0.19,0.705,4283.333333333333
-0.185,0.71,4286.111111111111
-0.18,0.705,4288.888888888889
-0.195,0.715,4291.666666666667
-0.21,0.715,4294.444444444444
-0.215,0.73,4297.222222222223
-0.19,0.73,4300.0
-0.18,0.715,4302.777777777777
-0.175,0.72,4305.555555555556
-0.185,0.715,4308.333333333333
-0.195,0.73,4311.111111111111
-0.18,0.74,4313.888888888889
-0.16,0.735,4316.666666666667
-0.145,0.74,4319.444444444444
-0.16,0.74,4322.222222222223
-0.165,0.72,4325.0
-0.145,0.715,4327.777777777777
-0.145,0.745,4330.555555555556
-0.13,0.735,4333.333333333333
-0.16,0.735,4336.111111111111
-0.17,0.715,4338.888888888889
-0.185,0.73,4341.666666666667
-0.16,0.72,4344.444444444444
-0.115,0.725,4347.222222222223
-0.1,0.715,4350.0
-0.105,0.705,4352.777777777777
-0.125,0.69,4355.555555555556
-0.135,0.69,4358.333333333333
-0.105,0.695,4361.111111111111
-0.07,0.705,4363.888888888889
-0.045,0.705,4366.666666666667
-0.045,0.68,4369.444444444444
-0.1,0.655,4372.222222222223
-0.115,0.655,4375.0
-0.105,0.66,4377.777777777777
-0.095,0.655,4380.555555555556
-0.07,0.655,4383.333333333333
-0.075,0.63,4386.111111111111
-0.09,0.6,4388.888888888889
-0.115,0.59,4391.666666666667
-0.13,0.58,4394.444444444444
-0.125,0.57,4397.222222222223
-0.095,0.555,4400.0
-0.105,0.545,4402.777777777777
-0.145,0.515,4405.555555555556
-0.125,0.505,4408.333333333333
-0.1,0.51,4411.111111111111
-0.1,0.505,4413.888888888889
-0.12,0.505,4416.666666666667
-0.155,0.47,4419.444444444444
-0.165,0.44,4422.222222222223
-0.175,0.45,4425.0
-0.185,0.46,4427.777777777777
-0.17,0.475,4430.555555555556
-0.17,0.465,4433.333333333333
-0.195,0.445,4436.111111111111
-0.235,0.425,4438.888888888889
-0.24,0.425,4441.666666666667
-0.2,0.435,4444.444444444444
-0.165,0.45,4447.222222222223
-0.15,0.44,4450.0
-0.18,0.44,4452.777777777777
-0.205,0.435,4455.555555555556
-0.22,0.435,4458.333333333333
-0.185,0.445,4461.111111111111
-0.17,0.46,4463.888888888889
-0.16,0.45,4466.666666666667
-0.16,0.44,4469.444444444444
-0.19,0.435,4472.222222222223
-0.225,0.43,4475.0
-0.22,0.455,4477.777777777777
-0.2,0.475,4480.555555555556
-0.195,0.47,4483.333333333333
-0.215,0.47,4486.111111111111
-0.19,0.465,4488.888888888889
-0.2,0.455,4491.666666666667
-0.21,0.46,4494.444444444444
-0.215,0.47,4497.222222222223
-0.21,0.475,4500.0
-0.215,0.48,4502.777777777777
-0.22,0.455,4505.555555555556
-0.205,0.465,4508.333333333333
-0.195,0.48,4511.111111111111
-0.175,0.49,4513.888888888889
-0.15,0.485,4516.666666666667
-0.17,0.49,4519.444444444444
-0.2,0.475,4522.222222222223
-0.23,0.475,4525.0
-0.235,0.5,4527.777777777777
-0.225,0.51,4530.555555555556
-0.21,0.51,4533.333333333333
-0.21,0.505,4536.111111111111
-0.215,0.485,4538.888888888889
-0.23,0.49,4541.666666666667
-0.225,0.51,4544.444444444444
-0.22,0.515,4547.222222222223
-0.225,0.51,4550.0
-0.235,0.505,4552.777777777777
-0.24,0.5,4555.555555555556
-0.245,0.49,4558.333333333333
-0.24,0.495,4561.111111111111
-0.245,0.525,4563.888888888889
-0.25,0.515,4566.666666666667
-0.26,0.505,4569.444444444444
-0.275,0.505,4572.222222222223
-0.29,0.51,4575.0
-0.27,0.51,4577.777777777777
-0.23,0.515,4580.555555555556
-0.25,0.51,4583.333333333333
-0.28,0.505,4586.111111111111
-0.305,0.49,4588.888888888889
-0.295,0.49,4591.666666666667
-0.31,0.48,4594.444444444444
-0.33,0.495,4597.222222222223
-0.35,0.49,4600.0
-0.34,0.49,4602.777777777777
-0.345,0.48,4605.555555555556
-0.375,0.47,4608.333333333333
-0.41,0.475,4611.111111111111
-0.345,0.49,4613.888888888889
-0.26,0.49,4616.666666666667
-0.25,0.47,4619.444444444444
-0.3,0.465,4622.222222222223
-0.3,0.475,4625.0
-0.275,0.49,4627.777777777777
-0.245,0.49,4630.555555555556
-0.23,0.475,4633.333333333333
-0.245,0.47,4636.111111111111
-0.28,0.45,4638.888888888889
-0.285,0.44,4641.666666666667
-0.235,0.44,4644.444444444444
-0.195,0.465,4647.222222222223
-0.2,0.46,4650.0
-0.225,0.46,4652.777777777777
-0.24,0.45,4655.555555555556
-0.24,0.43,4658.333333333333
-0.23,0.43,4661.111111111111
-0.225,0.455,4663.888888888889
-0.23,0.445,4666.666666666667
-0.235,0.445,4669.444444444444
-0.245,0.43,4672.222222222223
-0.265,0.425,4675.0
-0.25,0.44,4677.777777777777
-0.22,0.45,4680.555555555556
-0.225,0.45,4683.333333333333
-0.22,0.44,4686.111111111111
-0.24,0.435,4688.888888888889
-0.255,0.42,4691.666666666667
-0.26,0.435,4694.444444444444
-0.235,0.44,4697.222222222223
-0.225,0.435,4700.0
-0.23,0.43,4702.777777777777
-0.245,0.435,4705.555555555556
-0.245,0.425,4708.333333333333
-0.245,0.43,4711.111111111111
-0.23,0.445,4713.888888888889
-0.23,0.425,4716.666666666667
-0.225,0.43,4719.444444444444
-0.245,0.425,4722.222222222223
-0.255,0.425,4725.0
-0.25,0.44,4727.777777777777
-0.235,0.455,4730.555555555556
-0.21,0.455,4733.333333333333
-0.22,0.45,4736.111111111111
-0.255,0.44,4738.888888888889
-0.265,0.43,4741.666666666667
-0.265,0.425,4744.444444444444
-0.26,0.435,4747.222222222223
-0.23,0.44,4750.0
-0.225,0.44,4752.777777777777
-0.225,0.43,4755.555555555556
-0.27,0.425,4758.333333333333
-0.255,0.425,4761.111111111111
-0.265,0.445,4763.888888888889
-0.26,0.425,4766.666666666667
-0.27,0.435,4769.444444444444
-0.25,0.42,4772.222222222223
-0.235,0.43,4775.0
-0.225,0.44,4777.777777777777
-0.25,0.445,4780.555555555556
-0.285,0.44,4783.333333333333
-0.3,0.44,4786.111111111111
-0.27,0.435,4788.888888888889
-0.205,0.44,4791.666666666667
-0.12,0.445,4794.444444444444
-0.105,0.465,4797.222222222223
-0.145,0.475,4800.0
-0.145,0.48,4802.777777777777
-0.14,0.475,4805.555555555556
-0.145,0.49,4808.333333333333
-0.15,0.505,4811.111111111111
-0.16,0.52,4813.888888888889
-0.145,0.535,4816.666666666667
-0.11,0.535,4819.444444444444
-0.09,0.525,4822.222222222223
-0.095,0.52,4825.0
-0.08,0.545,4827.777777777777
-0.065,0.53,4830.555555555556
-0.045,0.51,4833.333333333333
-0.035,0.5,4836.111111111111
-0.045,0.49,4838.888888888889
-0.035,0.485,4841.666666666667
-0.015,0.49,4844.444444444444
-0.005,0.49,4847.222222222223
0.0,0.485,4850.0
-0.015,0.48,4852.777777777777
0.0,0.47,4855.555555555556
0.005,0.455,4858.333333333333
0.01,0.485,4861.111111111111
0.01,0.5,4863.888888888889
0.005,0.475,4866.666666666667
-0.03,0.47,4869.444444444444
-0.08,0.455,4872.222222222223
-0.13,0.45,4875.0
-0.165,0.455,4877.777777777777
-0.205,0.45,4880.555555555556
-0.25,0.44,4883.333333333333
-0.28,0.435,4886.111111111111
-0.285,0.415,4888.888888888889
-0.275,0.42,4891.666666666667
-0.24,0.415,4894.444444444444
-0.22,0.44,4897.222222222223
-0.245,0.435,4900.0
-0.28,0.415,4902.777777777777
-0.315,0.405,4905.555555555556
-0.33,0.4,4908.333333333333
-0.3,0.405,4911.111111111111
-0.265,0.415,4913.888888888889
-0.25,0.415,4916.666666666667
-0.265,0.41,4919.444444444444
-0.31,0.395,4922.222222222223
-0.365,0.395,4925.0
-0.39,0.405,4927.777777777777
-0.39,0.42,4930.555555555556
-0.36,0.42,4933.333333333333
-0.3,0.42,4936.111111111111
-0.255,0.41,4938.888888888889
-0.27,0.415,4941.666666666667
-0.295,0.425,4944.444444444444
-0.285,0.445,4947.222222222223
-0.305,0.425,4950.0
-0.325,0.41,4952.777777777777
-0.28,0.405,4955.555555555556
-0.23,0.405,4958.333333333333
-0.205,0.425,4961.111111111111
-0.23,0.415,4963.888888888889
-0.255,0.415,4966.666666666667
-0.255,0.41,4969.444444444444
-0.27,0.39,4972.222222222223
-0.3,0.4,4975.0
-0.31,0.395,4977.777777777777
-0.28,0.41,4980.555555555556
-0.265,0.43,4983.333333333333
-0.26,0.42,4986.111111111111
-0.3,0.355,4988.888888888889
-0.385,0.255,4991.666666666667
-0.43,0.11,4994.444444444444
-0.4,-0.06,4997.222222222223
-0.36,-0.3,5000.0
-0.38,-0.555,5002.777777777777
-0.4,-0.875,5005.555555555556
-0.425,-1.165,5008.333333333333
-0.465,-1.385,5011.111111111111
-0.51,-1.46,5013.888888888889
-0.56,-1.43,5016.666666666667
-0.59,-1.36,5019.444444444444
-0.575,-1.315,5022.222222222223
-0.59,-1.265,5025.0
-0.61,-1.2,5027.777777777777
-0.63,-1.13,5030.555555555556
-0.675,-1.1,5033.333333333333
-0.705,-1.075,5036.111111111111
-0.73,-1.06,5038.888888888889
-0.735,-0.99,5041.666666666667
-0.75,-0.92,5044.444444444444
-0.78,-0.82,5047.222222222223
-0.84,-0.755,5050.0
-0.905,-0.69,5052.777777777777
-0.945,-0.63,5055.555555555556
-0.955,-0.565,5058.333333333333
-0.9,-0.47,5061.111111111111
-0.825,-0.335,5063.888888888889
-0.76,-0.22,5066.666666666667
-0.73,-0.095,5069.444444444444
-0.7,-0.01,5072.222222222223
-0.635,0.09,5075.0
-0.565,0.19,5077.777777777777
-0.5,0.285,5080.555555555556
-0.45,0.36,5083.333333333333
-0.405,0.44,5086.111111111111
-0.315,0.51,5088.888888888889
-0.235,0.585,5091.666666666667
-0.215,0.63,5094.444444444444
-0.21,0.675,5097.222222222223
-0.195,0.695,5100.0
-0.195,0.72,5102.777777777777
-0.195,0.72,5105.555555555556
-0.225,0.735,5108.333333333333
-0.215,0.755,5111.111111111111
-0.205,0.78,5113.888888888889
-0.175,0.775,5116.666666666667
-0.19,0.79,5119.444444444444
-0.215,0.79,5122.222222222223
-0.235,0.805,5125.0
-0.23,0.805,5127.777777777777
-0.205,0.83,5130.555555555556
-0.19,0.83,5133.333333333333
-0.18,0.835,5136.111111111111
-0.165,0.83,5138.888888888889
-0.15,0.84,5141.666666666667
-0.15,0.855,5144.444444444444
-0.175,0.865,5147.222222222223
-0.215,0.87,5150.0
-0.26,0.86,5152.777777777777
-0.235,0.87,5155.555555555556
-0.185,0.88,5158.333333333333
-0.115,0.895,5161.111111111111
-0.075,0.915,5163.888888888889
-0.065,0.92,5166.666666666667
-0.1,0.9,5169.444444444444
-0.125,0.88,5172.222222222223
-0.14,0.885,5175.0
-0.165,0.9,5177.777777777777
-0.14,0.915,5180.555555555556
-0.145,0.915,5183.333333333333
-0.135,0.91,5186.111111111111
-0.13,0.905,5188.888888888889
-0.13,0.905,5191.666666666667
-0.125,0.92,5194.444444444444
-0.12,0.935,5197.222222222223
-0.11,0.935,5200.0
-0.11,0.935,5202.777777777777
-0.11,0.935,5205.555555555556
-0.13,0.935,5208.333333333333
-0.12,0.945,5211.111111111111
-0.095,0.965,5213.888888888889
-0.07,0.965,5216.666666666667
-0.06,0.97,5219.444444444444
-0.06,0.95,5222.222222222223
-0.06,0.95,5225.0
-0.075,0.955,5227.777777777777
-0.08,0.955,5230.555555555556
-0.075,0.97,5233.333333333333
-0.07,0.955,5236.111111111111
-0.065,0.96,5238.888888888889
-0.065,0.94,5241.666666666667
-0.065,0.955,5244.444444444444
-0.07,0.96,5247.222222222223
-0.07,0.955,5250.0
-0.075,0.945,5252.777777777777
-0.035,0.945,5255.555555555556
-0.015,0.945,5258.333333333333
-0.03,0.95,5261.111111111111
-0.055,0.95,5263.888888888889
-0.045,0.955,5266.666666666667
-0.025,0.94,5269.444444444444
-0.015,0.93,5272.222222222223
-0.02,0.92,5275.0
-0.005,0.925,5277.777777777777
0.005,0.915,5280.555555555556
-0.01,0.9,5283.333333333333
-0.01,0.885,5286.111111111111
-0.01,0.875,5288.888888888889
-0.01,0.855,5291.666666666667
-0.015,0.845,5294.444444444444
-0.01,0.85,5297.222222222223
-0.01,0.835,5300.0
-0.04,0.815,5302.777777777777
-0.065,0.775,5305.555555555556
-0.08,0.76,5308.333333333333
-0.09,0.76,5311.111111111111
-0.09,0.76,5313.888888888889
-0.055,0.75,5316.666666666667
-0.035,0.715,5319.444444444444
-0.04,0.7,5322.222222222223
-0.075,0.68,5325.0
-0.1,0.675,5327.777777777777
-0.09,0.675,5330.555555555556
-0.075,0.655,5333.333333333333
-0.07,0.655,5336.111111111111
-0.085,0.64,5338.888888888889
-0.115,0.64,5341.666666666667
-0.13,0.635,5344.444444444444
-0.125,0.63,5347.222222222223
-0.125,0.61,5350.0
-0.135,0.605,5352.777777777777
-0.16,0.59,5355.555555555556
-0.17,0.595,5358.333333333333
-0.16,0.605,5361.111111111111
-0.16,0.6,5363.888888888889
-0.165,0.6,5366.666666666667
-0.155,0.615,5369.444444444444
-0.17,0.595,5372.222222222223
-0.18,0.585,5375.0
-0.18,0.595,5377.777777777777
-0.175,0.615,5380.555555555556
-0.18,0.62,5383.333333333333
-0.185,0.615,5386.111111111111
-0.195,0.605,5388.888888888889
-0.205,0.61,5391.666666666667
-0.21,0.605,5394.444444444444
-0.215,0.615,5397.222222222223
-0.205,0.62,5400.0
-0.2,0.61,5402.777777777777
-0.21,0.61,5405.555555555556
-0.21,0.605,5408.333333333333
-0.215,0.625,5411.111111111111
-0.225,0.64,5413.888888888889
-0.225,0.635,5416.666666666667
-0.255,0.64,5419.444444444444
-0.25,0.63,5422.222222222223
-0.255,0.645,5425.0
-0.245,0.655,5427.777777777777
-0.25,0.67,5430.555555555556
-0.25,0.66,5433.333333333333
-0.24,0.67,5436.111111111111
-0.215,0.66,5438.888888888889
-0.21,0.66,5441.666666666667
-0.22,0.66,5444.444444444444
-0.23,0.675,5447.222222222223
-0.225,0.685,5450.0
-0.225,0.685,5452.777777777777
-0.245,0.665,5455.555555555556
-0.27,0.675,5458.333333333333
-0.26,0.69,5461.111111111111
-0.255,0.69,5463.888888888889
-0.245,0.69,5466.666666666667
-0.245,0.685,5469.444444444444
-0.265,0.67,5472.222222222223
-0.285,0.675,5475.0
-0.285,0.69,5477.777777777777
-0.29,0.71,5480.555555555556
-0.285,0.715,5483.333333333333
-0.3,0.7,5486.111111111111
-0.31,0.705,5488.888888888889
-0.315,0.68,5491.666666666667
-0.315,0.695,5494.444444444444
-0.305,0.705,5497.222222222223
-0.305,0.71,5500.0
-0.315,0.7,5502.777777777777
-0.34,0.695,5505.555555555556
-0.35,0.675,5508.333333333333
-0.35,0.69,5511.111111111111
-0.33,0.71,5513.888888888889
-0.325,0.71,5516.666666666667
-0.325,0.705,5519.444444444444
-0.335,0.69,5522.222222222223
-0.37,0.695,5525.0
-0.37,0.7,5527.777777777777
-0.37,0.7,5530.555555555556
-0.345,0.7,5533.333333333333
-0.345,0.695,5536.111111111111
-0.35,0.685,5538.888888888889
-0.365,0.67,5541.666666666667
-0.375,0.69,5544.444444444444
-0.365,0.69,5547.222222222223
-0.355,0.68,5550.0
-0.36,0.67,5552.777777777777
-0.36,0.67,5555.555555555556
-0.355,0.675,5558.333333333333
-0.345,0.685,5561.111111111111
-0.365,0.685,5563.888888888889
-0.405,0.67,5566.666666666667
-0.41,0.675,5569.444444444444
-0.365,0.66,5572.222222222223
-0.33,0.655,5575.0
-0.32,0.67,5577.777777777777
-0.33,0.675,5580.555555555556
-0.36,0.68,5583.333333333333
-0.37,0.68,5586.111111111111
-0.37,0.66,5588.888888888889
-0.37,0.655,5591.666666666667
-0.37,0.66,5594.444444444444
-0.37,0.67,5597.222222222223
-0.365,0.68,5600.0
-0.375,0.675,5602.777777777777
-0.37,0.675,5605.555555555556
-0.38,0.65,5608.333333333333
-0.36,0.665,5611.111111111111
-0.345,0.655,5613.888888888889
-0.34,0.665,5616.666666666667
-0.33,0.65,5619.444444444444
-0.335,0.645,5622.222222222223
-0.36,0.64,5625.0
-0.37,0.65,5627.777777777777
-0.35,0.655,5630.555555555556
-0.34,0.655,5633.333333333333
-0.35,0.655,5636.111111111111
-0.37,0.64,5638.888888888889
-0.39,0.63,5641.666666666667
-0.385,0.63,5644.444444444444
-0.36,0.645,5647.222222222223
-0.35,0.635,5650.0
-0.35,0.635,5652.777777777777
-0.35,0.625,5655.555555555556
-0.36,0.62,5658.333333333333
-0.355,0.615,5661.111111111111
-0.34,0.63,5663.888888888889
-0.355,0.615,5666.666666666667
-0.36,0.615,5669.444444444444
-0.375,0.6,5672.222222222223
-0.36,0.61,5675.0
-0.355,0.6,5677.777777777777
-0.365,0.61,5680.555555555556
-0.375,0.6,5683.333333333333
-0.38,0.59,5686.111111111111
-0.37,0.58,5688.888888888889
-0.355,0.575,5691.666666666667
-0.35,0.58,5694.444444444444
-0.35,0.595,5697.222222222223
-0.36,0.6,5700.0
-0.365,0.58,5702.777777777777
-0.375,0.58,5705.555555555556
-0.375,0.585,5708.333333333333
-0.355,0.59,5711.111111111111
-0.35,0.61,5713.888888888889
-0.345,0.59,5716.666666666667
-0.345,0.58,5719.444444444444
-0.365,0.57,5722.222222222223
-0.37,0.565,5725.0
-0.34,0.56,5727.777777777777
-0.305,0.58,5730.555555555556
-0.3,0.585,5733.333333333333
-0.32,0.585,5736.111111111111
-0.34,0.575,5738.888888888889
-0.33,0.585,5741.666666666667
-0.29,0.605,5744.444444444444
-0.26,0.615,5747.222222222223
-0.26,0.61,5750.0
-0.275,0.615,5752.777777777777
-0.285,0.615,5755.555555555556
-0.29,0.63,5758.333333333333
-0.295,0.64,5761.111111111111
-0.27,0.65,5763.888888888889
-0.24,0.665,5766.666666666667
-0.175,0.665,5769.444444444444
-0.15,0.645,5772.222222222223
-0.155,0.625,5775.0
-0.155,0.6,5777.777777777777
-0.14,0.61,5780.555555555556
-0.12,0.59,5783.333333333333
-0.125,0.575,5786.111111111111
-0.135,0.56,5788.888888888889
-0.125,0.565,5791.666666666667
-0.125,0.57,5794.444444444444
-0.115,0.575,5797.222222222223
-0.1,0.575,5800.0
-0.105,0.565,5802.777777777777
-0.135,0.56,5805.555555555556
-0.175,0.545,5808.333333333333
-0.2,0.555,5811.111111111111
-0.21,0.57,5813.888888888889
-0.235,0.56,5816.666666666667
-0.28,0.545,5819.444444444444
-0.34,0.53,5822.222222222223
-0.39,0.52,5825.0
-0.41,0.515,5827.777777777777
-0.405,0.52,5830.555555555556
-0.385,0.505,5833.333333333333
-0.38,0.505,5836.111111111111
-0.385,0.49,5838.888888888889
-0.395,0.475,5841.666666666667
-0.38,0.495,5844.444444444444
-0.37,0.495,5847.222222222223
-0.365,0.505,5850.0
-0.385,0.505,5852.777777777777
-0.395,0.475,5855.555555555556
-0.4,0.475,5858.333333333333
-0.37,0.495,5861.111111111111
-0.37,0.5,5863.888888888889
-0.37,0.49,5866.666666666667
-0.37,0.485,5869.444444444444
-0.375,0.48,5872.222222222223
-0.385,0.46,5875.0
-0.4,0.475,5877.777777777777
-0.39,0.48,5880.555555555556
-0.36,0.485,5883.333333333333
-0.365,0.47,5886.111111111111
-0.38,0.46,5888.888888888889
-0.395,0.46,5891.666666666667
-0.405,0.48,5894.444444444444
-0.39,0.465,5897.222222222223
-0.365,0.465,5900.0
-0.355,0.46,5902.777777777777
-0.36,0.435,5905.555555555556
-0.38,0.45,5908.333333333333
-0.39,0.465,5911.111111111111
-0.365,0.475,5913.888888888889
-0.345,0.48,5916.666666666667
-0.355,0.45,5919.444444444444
-0.39,0.39,5922.222222222223
-0.445,0.29,5925.0
-0.445,0.19,5927.777777777777
-0.415,0.06,5930.555555555556
-0.385,-0.11,5933.333333333333
-0.39,-0.33,5936.111111111111
-0.395,-0.655,5938.888888888889
-0.425,-0.98,5941.666666666667
-0.465,-1.18,5944.444444444444
-0.545,-1.235,5947.222222222223
-0.61,-1.195,5950.0
-0.64,-1.145,5952.777777777777
-0.64,-1.11,5955.555555555556
-0.65,-1.055,5958.333333333333
-0.655,-1.0,5961.111111111111
-0.68,-0.94,5963.888888888889
-0.72,-0.91,5966.666666666667
-0.76,-0.885,5969.444444444444
-0.82,-0.86,5972.222222222223
-0.86,-0.83,5975.0
-0.84,-0.755,5977.777777777777
-0.85,-0.675,5980.555555555556
-0.9,-0.625,5983.333333333333
-0.945,-0.56,5986.111111111111
-0.985,-0.52,5988.888888888889
-1.0,-0.48,5991.666666666667
-0.96,-0.37,5994.444444444444
-0.895,-0.25,5997.222222222223
-0.855,-0.14,6000.0
-0.84,-0.035,6002.777777777777
-0.805,0.035,6005.555555555556
-0.745,0.125,6008.333333333333
-0.665,0.21,6011.111111111111
-0.62,0.3,6013.888888888889
-0.565,0.38,6016.666666666667
-0.52,0.445,6019.444444444444
-0.445,0.48,6022.222222222223
-0.4,0.535,6025.0
-0.355,0.585,6027.777777777777
-0.345,0.625,6030.555555555556
-0.335,0.65,6033.333333333333
-0.33,0.65,6036.111111111111
-0.335,0.64,6038.888888888889
-0.34,0.66,6041.666666666667
-0.315,0.665,6044.444444444444
-0.295,0.69,6047.222222222223
-0.285,0.695,6050.0
-0.285,0.695,6052.777777777777
-0.31,0.7,6055.555555555556
-0.325,0.7,6058.333333333333
-0.315,0.715,6061.111111111111
-0.285,0.725,6063.888888888889
-0.275,0.74,6066.666666666667
-0.28,0.725,6069.444444444444
-0.3,0.725,6072.222222222223
-0.315,0.735,6075.0
-0.3,0.75,6077.777777777777
-0.305,0.75,6080.555555555556
-0.285,0.76,6083.333333333333
-0.265,0.745,6086.111111111111
-0.275,0.745,6088.888888888889
-0.28,0.755,6091.666666666667
-0.28,0.745,6094.444444444444
-0.275,0.76,6097.222222222223
-0.28,0.75,6100.0
-0.29,0.765,6102.777777777777
-0.3,0.75,6105.555555555556
-0.31,0.75,6108.333333333333
-0.285,0.755,6111.111111111111
-0.25,0.77,6113.888888888889
-0.22,0.77,6116.666666666667
-0.225,0.77,6119.444444444444
-0.245,0.76,6122.222222222223
-0.265,0.76,6125.0
-0.25,0.775,6127.777777777777
-0.24,0.795,6130.555555555556
-0.225,0.785,6133.333333333333
-0.225,0.79,6136.111111111111
-0.215,0.795,6138.888888888889
-0.225,0.78,6141.666666666667
-0.22,0.785,6144.444444444444
-0.215,0.785,6147.222222222223
-0.2,0.79,6150.0
-0.2,0.79,6152.777777777777
-0.2,0.77,6155.555555555556
-0.205,0.775,6158.333333333333
-0.205,0.79,6161.111111111111
-0.205,0.785,6163.888888888889
-0.19,0.79,6166.666666666667
-0.195,0.77,6169.444444444444
-0.19,0.765,6172.222222222223
-0.205,0.76,6175.0
-0.19,0.76,6177.777777777777
-0.16,0.78,6180.555555555556
-0.135,0.775,6183.333333333333
-0.125,0.775,6186.111111111111
-0.145,0.755,6188.888888888889
-0.155,0.75,6191.666666666667
-0.14,0.76,6194.444444444444
-0.14,0.765,6197.222222222223
-0.13,0.755,6200.0
-0.135,0.755,6202.777777777777
-0.15,0.74,6205.555555555556
-0.155,0.74,6208.333333333333
-0.15,0.73,6211.111111111111
-0.125,0.73,6213.888888888889
-0.1,0.73,6216.666666666667
-0.11,0.715,6219.444444444444
-0.11,0.705,6222.222222222223
-0.14,0.685,6225.0
-0.13,0.68,6227.777777777777
-0.13,0.67,6230.555555555556
-0.11,0.675,6233.333333333333
-0.13,0.66,6236.111111111111
-0.12,0.645,6238.888888888889
-0.15,0.63,6241.666666666667
-0.145,0.62,6244.444444444444
-0.135,0.615,6247.222222222223
-0.135,0.6,6250.0
-0.155,0.58,6252.777777777777
-0.175,0.555,6255.555555555556
-0.165,0.53,6258.333333333333
-0.14,0.53,6261.111111111111
-0.135,0.535,6263.888888888889
-0.15,0.53,6266.666666666667
-0.175,0.495,6269.444444444444
-0.2,0.475,6272.222222222223
-0.205,0.46,6275.0
-0.2,0.46,6277.777777777777
-0.19,0.465,6280.555555555556
-0.19,0.45,6283.333333333333
-0.215,0.435,6286.111111111111
-0.215,0.425,6288.888888888889
-0.245,0.41,6291.666666666667
-0.235,0.41,6294.444444444444
-0.245,0.42,6297.222222222223
-0.245,0.41,6300.0
-0.25,0.405,6302.777777777777
-0.255,0.395,6305.555555555556
-0.265,0.39,6308.333333333333
-0.25,0.405,6311.111111111111
-0.23,0.415,6313.888888888889
-0.23,0.395,6316.666666666667
-0.25,0.385,6319.444444444444
-0.26,0.365,6322.222222222223
-0.28,0.37,6325.0
-0.26,0.38,6327.777777777777
-0.265,0.39,6330.555555555556
-0.265,0.39,6333.333333333333
-0.295,0.395,6336.111111111111
-0.315,0.385,6338.888888888889
-0.3,0.375,6341.666666666667
-0.255,0.385,6344.444444444444
-0.225,0.405,6347.222222222223
-0.23,0.4,6350.0
-0.26,0.4,6352.777777777777
-0.285,0.4,6355.555555555556
-0.31,0.4,6358.333333333333
-0.305,0.4,6361.111111111111
-0.28,0.42,6363.888888888889
-0.26,0.415,6366.666666666667
-0.245,0.405,6369.444444444444
-0.25,0.41,6372.222222222223
-0.28,0.4,6375.0
-0.28,0.41,6377.777777777777
-0.285,0.42,6380.555555555556
-0.275,0.425,6383.333333333333
-0.28,0.42,6386.111111111111
-0.28,0.405,6388.888888888889
-0.295,0.41,6391.666666666667
-0.305,0.43,6394.444444444444
-0.285,0.445,6397.222222222223
-0.275,0.45,6400.0
-0.275,0.445,6402.777777777777
-0.295,0.42,6405.555555555556
-0.315,0.43,6408.333333333333
-0.31,0.445,6411.111111111111
-0.29,0.45,6413.888888888889
-0.275,0.445,6416.666666666667
-0.295,0.45,6419.444444444444
-0.31,0.445,6422.222222222223
-0.325,0.435,6425.0
-0.305,0.46,6427.777777777777
-0.3,0.45,6430.555555555556
-0.28,0.45,6433.333333333333
-0.31,0.44,6436.111111111111
-0.32,0.425,6438.888888888889
-0.33,0.435,6441.666666666667
-0.305,0.44,6444.444444444444
-0.31,0.455,6447.222222222223
-0.305,0.455,6450.0
-0.315,0.43,6452.777777777777
-0.345,0.425,6455.555555555556
-0.345,0.425,6458.333333333333
-0.34,0.42,6461.111111111111
-0.33,0.44,6463.888888888889
-0.32,0.43,6466.666666666667
-0.33,0.43,6469.444444444444
-0.345,0.425,6472.222222222223
-0.35,0.43,6475.0
-0.35,0.43,6477.777777777777
-0.345,0.43,6480.555555555556
-0.345,0.415,6483.333333333333
-0.345,0.415,6486.111111111111
-0.37,0.405,6488.888888888889
-0.385,0.39,6491.666666666667
-0.375,0.395,6494.444444444444
-0.35,0.4,6497.222222222223
-0.335,0.4,6500.0
-0.325,0.4,6502.777777777777
-0.345,0.38,6505.555555555556
-0.365,0.385,6508.333333333333
-0.38,0.39,6511.111111111111
-0.385,0.395,6513.888888888889
-0.375,0.39,6516.666666666667
-0.37,0.375,6519.444444444444
-0.365,0.365,6522.222222222223
-0.355,0.36,6525.0
-0.35,0.38,6527.777777777777
-0.345,0.395,6530.555555555556
-0.33,0.39,6533.333333333333
-0.345,0.385,6536.111111111111
-0.36,0.38,6538.888888888889
-0.365,0.365,6541.666666666667
-0.35,0.37,6544.444444444444
-0.35,0.39,6547.222222222223
-0.35,0.39,6550.0
-0.365,0.38,6552.777777777777
-0.375,0.35,6555.555555555556
-0.385,0.34,6558.333333333333
-0.375,0.355,6561.111111111111
-0.35,0.365,6563.888888888889
-0.325,0.365,6566.666666666667
-0.32,0.36,6569.444444444444
-0.325,0.355,6572.222222222223
-0.34,0.355,6575.0
-0.34,0.36,6577.777777777777
-0.335,0.355,6580.555555555556
-0.33,0.365,6583.333333333333
-0.33,0.365,6586.111111111111
-0.315,0.355,6588.888888888889
-0.33,0.365,6591.666666666667
-0.33,0.37,6594.444444444444
-0.325,0.375,6597.222222222223
-0.32,0.37,6600.0
-0.32,0.36,6602.777777777777
-0.33,0.34,6605.555555555556
-0.335,0.345,6608.333333333333
-0.32,0.35,6611.111111111111
-0.325,0.36,6613.888888888889
-0.3,0.355,6616.666666666667
-0.31,0.36,6619.444444444444
-0.315,0.345,6622.222222222223
-0.325,0.34,6625.0
-0.32,0.355,6627.777777777777
-0.31,0.355,6630.555555555556
-0.305,0.345,6633.333333333333
-0.3,0.335,6636.111111111111
-0.31,0.335,6638.888888888889
-0.315,0.34,6641.666666666667
-0.305,0.35,6644.444444444444
-0.3,0.365,6647.222222222223
-0.29,0.355,6650.0
-0.28,0.355,6652.777777777777
-0.3,0.33,6655.555555555556
-0.315,0.35,6658.333333333333
-0.315,0.35,6661.111111111111
-0.305,0.345,6663.888888888889
-0.29,0.34,6666.666666666667
-0.305,0.335,6669.444444444444
-0.305,0.32,6672.222222222223
-0.315,0.33,6675.0
-0.315,0.34,6677.777777777777
-0.31,0.345,6680.555555555556
-0.29,0.335,6683.333333333333
-0.295,0.33,6686.111111111111
-0.31,0.32,6688.888888888889
-0.315,0.315,6691.666666666667
-0.305,0.33,6694.444444444444
-0.295,0.335,6697.222222222223
-0.3,0.335,6700.0
-0.305,0.33,6702.777777777777
-0.29,0.325,6705.555555555556
-0.315,0.32,6708.333333333333
-0.32,0.34,6711.111111111111
-0.3,0.345,6713.888888888889
-0.245,0.365,6716.666666666667
-0.22,0.355,6719.444444444444
-0.21,0.355,6722.222222222223
-0.22,0.36,6725.0
-0.22,0.38,6727.777777777777
-0.21,0.41,6730.555555555556
-0.19,0.41,6733.333333333333
-0.2,0.4,6736.111111111111
-0.17,0.4,6738.888888888889
-0.165,0.4,6741.666666666667
-0.13,0.405,6744.444444444444
-0.12,0.39,6747.222222222223
-0.11,0.375,6750.0
-0.085,0.355,6752.777777777777
-0.095,0.35,6755.555555555556
-0.095,0.34,6758.333333333333
-0.1,0.345,6761.111111111111
-0.095,0.335,6763.888888888889
-0.085,0.345,6766.666666666667
-0.075,0.33,6769.444444444444
-0.07,0.325,6772.222222222223
-0.06,0.33,6775.0
-0.06,0.33,6777.777777777777
-0.045,0.33,6780.555555555556
-0.07,0.33,6783.333333333333
-0.105,0.3,6786.111111111111
-0.16,0.29,6788.888888888889
-0.2,0.3,6791.666666666667
-0.215,0.305,6794.444444444444
-0.25,0.31,6797.222222222223
-0.28,0.295,6800.0
-0.32,0.295,6802.777777777777
-0.335,0.27,6805.555555555556
-0.35,0.26,6808.333333333333
-0.345,0.26,6811.111111111111
-0.33,0.265,6813.888888888889
-0.34,0.27,6816.666666666667
-0.34,0.265,6819.444444444444
-0.36,0.26,6822.222222222223
-0.36,0.255,6825.0
-0.38,0.26,6827.777777777777
-0.36,0.25,6830.555555555556
-0.32,0.265,6833.333333333333
-0.3,0.24,6836.111111111111
-0.315,0.25,6838.888888888889
-0.33,0.24,6841.666666666667
-0.345,0.25,6844.444444444444
-0.35,0.275,6847.222222222223
-0.33,0.245,6850.0
-0.34,0.245,6852.777777777777
-0.36,0.23,6855.555555555556
-0.35,0.24,6858.333333333333
-0.35,0.245,6861.111111111111
-0.345,0.25,6863.888888888889
-0.345,0.25,6866.666666666667
-0.35,0.245,6869.444444444444
-0.36,0.23,6872.222222222223
-0.365,0.22,6875.0
-0.355,0.235,6877.777777777777
-0.34,0.235,6880.555555555556
-0.335,0.225,6883.333333333333
-0.34,0.225,6886.111111111111
-0.34,0.21,6888.888888888889
-0.335,0.22,6891.666666666667
-0.35,0.22,6894.444444444444
-0.35,0.215,6897.222222222223
-0.355,0.215,6900.0
-0.35,0.22,6902.777777777777
-0.35,0.23,6905.555555555556
-0.375,0.225,6908.333333333333
-0.39,0.215,6911.111111111111
-0.375,0.165,6913.888888888889
-0.38,0.095,6916.666666666667
-0.4,-0.01,6919.444444444444
-0.42,-0.155,6922.222222222223
-0.425,-0.31,6925.0
-0.415,-0.49,6927.777777777777
-0.415,-0.695,6930.555555555556
-0.39,-0.995,6933.333333333333
-0.385,-1.26,6936.111111111111
-0.435,-1.475,6938.888888888889
-0.53,-1.55,6941.666666666667
-0.585,-1.505,6944.444444444444
-0.61,-1.445,6947.222222222223
-0.585,-1.39,6950.0
-0.575,-1.35,6952.777777777777
-0.605,-1.305,6955.555555555556
-0.635,-1.26,6958.333333333333
-0.665,-1.2,6961.111111111111
-0.7,-1.16,6963.888888888889
-0.725,-1.145,6966.666666666667
-0.76,-1.13,6969.444444444444
-0.79,-1.09,6972.222222222223
-0.795,-1.055,6975.0
-0.8,-0.995,6977.777777777777
-0.85,-0.915,6980.555555555556
-0.91,-0.875,6983.333333333333
-0.955,-0.815,6986.111111111111
-0.965,-0.78,6988.888888888889
-0.975,-0.72,6991.666666666667
-0.95,-0.635,6994.444444444444
-0.91,-0.535,6997.222222222223
-0.87,-0.425,7000.0
-0.84,-0.33,7002.777777777777
-0.81,-0.25,7005.555555555556
-0.775,-0.165,7008.333333333333
-0.695,-0.075,7011.111111111111
-0.615,0.02,7013.888888888889
-0.555,0.085,7016.666666666667
-0.51,0.135,7019.444444444444
-0.485,0.19,7022.222222222223
-0.44,0.275,7025.0
-0.36,0.345,7027.777777777777
-0.335,0.4,7030.555555555556
-0.315,0.425,7033.333333333333
-0.295,0.445,7036.111111111111
-0.285,0.445,7038.888888888889
-0.285,0.445,7041.666666666667
-0.285,0.46,7044.444444444444
-0.275,0.485,7047.222222222223
-0.265,0.495,7050.0
-0.245,0.51,7052.777777777777
-0.255,0.5,7055.555555555556
-0.26,0.5,7058.333333333333
-0.26,0.51,7061.111111111111
-0.24,0.53,7063.888888888889
-0.225,0.545,7066.666666666667
-0.245,0.56,7069.444444444444
-0.25,0.535,7072.222222222223
-0.27,0.525,7075.0
-0.27,0.53,7077.777777777777
-0.25,0.545,7080.555555555556
-0.24,0.555,7083.333333333333
-0.22,0.55,7086.111111111111
-0.245,0.54,7088.888888888889
-0.25,0.535,7091.666666666667
-0.24,0.54,7094.444444444444
-0.23,0.55,7097.222222222223
-0.22,0.575,7100.0
-0.22,0.57,7102.777777777777
-0.22,0.555,7105.555555555556
-0.235,0.545,7108.333333333333
-0.215,0.56,7111.111111111111
-0.215,0.58,7113.888888888889
-0.215,0.585,7116.666666666667
-0.2,0.575,7119.444444444444
-0.215,0.56,7122.222222222223
-0.22,0.565,7125.0
-0.215,0.565,7127.777777777777
-0.225,0.565,7130.555555555556
-0.215,0.55,7133.333333333333
-0.215,0.55,7136.111111111111
-0.22,0.555,7138.888888888889
-0.23,0.565,7141.666666666667
-0.21,0.57,7144.444444444444
-0.195,0.57,7147.222222222223
-0.2,0.565,7150.0
-0.2,0.56,7152.777777777777
-0.185,0.545,7155.555555555556
-0.18,0.545,7158.333333333333
-0.17,0.565,7161.111111111111
-0.18,0.57,7163.888888888889
-0.19,0.575,7166.666666666667
-0.185,0.57,7169.444444444444
-0.175,0.565,7172.222222222223
-0.195,0.56,7175.0
-0.17,0.575,7177.777777777777
-0.165,0.595,7180.555555555556
-0.14,0.58,7183.333333333333
-0.13,0.57,7186.111111111111
-0.13,0.55,7188.888888888889
-0.13,0.545,7191.666666666667
-0.135,0.535,7194.444444444444
-0.13,0.53,7197.222222222223
-0.135,0.525,7200.0
-0.125,0.53,7202.777777777777
-0.12,0.535,7205.555555555556
-0.115,0.555,7208.333333333333
-0.115,0.525,7211.111111111111
-0.13,0.505,7213.888888888889
-0.115,0.485,7216.666666666667
-0.115,0.48,7219.444444444444
-0.11,0.48,7222.222222222223
-0.115,0.485,7225.0
-0.085,0.5,7227.777777777777
-0.07,0.5,7230.555555555556
-0.08,0.485,7233.333333333333
-0.08,0.485,7236.111111111111
-0.105,0.465,7238.888888888889
-0.115,0.47,7241.666666666667
-0.115,0.46,7244.444444444444
-0.115,0.445,7247.222222222223
-0.12,0.42,7250.0
-0.12,0.405,7252.777777777777
-0.12,0.4,7255.555555555556
-0.125,0.385,7258.333333333333
-0.13,0.38,7261.111111111111
-0.13,0.375,7263.888888888889
-0.135,0.37,7266.666666666667
-0.14,0.345,7269.444444444444
-0.155,0.33,7272.222222222223
-0.155,0.3,7275.0
-0.145,0.29,7277.777777777777
-0.145,0.295,7280.555555555556
-0.155,0.29,7283.333333333333
-0.19,0.27,7286.111111111111
-0.205,0.245,7288.888888888889
-0.22,0.235,7291.666666666667
-0.21,0.24,7294.444444444444
-0.215,0.245,7297.222222222223
-0.23,0.215,7300.0
-0.24,0.19,7302.777777777777
-0.245,0.17,7305.555555555556
-0.24,0.165,7308.333333333333
-0.25,0.18,7311.111111111111
-0.255,0.185,7313.888888888889
-0.23,0.17,7316.666666666667
-0.235,0.17,7319.444444444444
-0.25,0.15,7322.222222222223
-0.28,0.145,7325.0
-0.27,0.145,7327.777777777777
-0.265,0.145,7330.555555555556
-0.265,0.155,7333.333333333333
-0.285,0.135,7336.111111111111
-0.275,0.115,7338.888888888889
-0.28,0.125,7341.666666666667
-0.255,0.145,7344.444444444444
-0.26,0.16,7347.222222222223
-0.27,0.145,7350.0
-0.275,0.14,7352.777777777777
-0.29,0.14,7355.555555555556
-0.29,0.14,7358.333333333333
-0.305,0.145,7361.111111111111
-0.315,0.135,7363.888888888889
-0.305,0.14,7366.666666666667
-0.3,0.13,7369.444444444444
-0.3,0.125,7372.222222222223
-0.3,0.13,7375.0
-0.3,0.12,7377.777777777777
-0.28,0.14,7380.555555555556
-0.28,0.15,7383.333333333333
-0.28,0.15,7386.111111111111
-0.3,0.15,7388.888888888889
-0.31,0.145,7391.666666666667
-0.305,0.155,7394.444444444444
-0.3,0.17,7397.222222222223
-0.29,0.15,7400.0
-0.31,0.13,7402.777777777777
-0.345,0.135,7405.555555555556
-0.355,0.145,7408.333333333333
-0.335,0.16,7411.111111111111
-0.315,0.17,7413.888888888889
-0.32,0.16,7416.666666666667
-0.325,0.145,7419.444444444444
-0.34,0.14,7422.222222222223
-0.345,0.15,7425.0
-0.365,0.175,7427.777777777777
-0.355,0.175,7430.555555555556
-0.32,0.175,7433.333333333333
-0.32,0.15,7436.111111111111
-0.34,0.135,7438.888888888889
-0.355,0.13,7441.666666666667
-0.35,0.155,7444.444444444444
-0.33,0.165,7447.222222222223
-0.31,0.18,7450.0
-0.315,0.175,7452.777777777777
-0.335,0.16,7455.555555555556
-0.365,0.155,7458.333333333333
-0.37,0.15,7461.111111111111
-0.355,0.16,7463.888888888889
-0.345,0.155,7466.666666666667
-0.345,0.155,7469.444444444444
-0.38,0.14,7472.222222222223
-0.405,0.145,7475.0
-0.395,0.15,7477.777777777777
-0.39,0.15,7480.555555555556
-0.38,0.13,7483.333333333333
-0.385,0.13,7486.111111111111
-0.39,0.12,7488.888888888889
-0.41,0.13,7491.666666666667
-0.4,0.14,7494.444444444444
-0.4,0.15,7497.222222222223
-0.41,0.14,7500.0
-0.405,0.13,7502.777777777777
-0.395,0.11,7505.555555555556
-0.4,0.12,7508.333333333333
-0.385,0.135,7511.111111111111
-0.39,0.13,7513.888888888889
-0.39,0.12,7516.666666666667
-0.395,0.105,7519.444444444444
-0.41,0.095,7522.222222222223
-0.41,0.105,7525.0
-0.405,0.13,7527.777777777777
-0.38,0.14,7530.555555555556
-0.385,0.135,7533.333333333333
-0.405,0.115,7536.111111111111
-0.41,0.08,7538.888888888889
-0.415,0.075,7541.666666666667
-0.4,0.095,7544.444444444444
-0.395,0.095,7547.222222222223
-0.4,0.095,7550.0
-0.395,0.095,7552.777777777777
-0.395,0.085,7555.555555555556
-0.41,0.08,7558.333333333333
-0.41,0.065,7561.111111111111
-0.4,0.08,7563.888888888889
-0.385,0.08,7566.666666666667
-0.375,0.085,7569.444444444444
-0.375,0.065,7572.222222222223
-0.39,0.075,7575.0
-0.4,0.075,7577.777777777777
-0.385,0.09,7580.555555555556
-0.38,0.085,7583.333333333333
-0.375,0.085,7586.111111111111
-0.39,0.07,7588.888888888889
-0.4,0.07,7591.666666666667
-0.375,0.08,7594.444444444444
-0.37,0.085,7597.222222222223
-0.38,0.075,7600.0
-0.4,0.065,7602.777777777777
-0.4,0.055,7605.555555555556
-0.375,0.06,7608.333333333333
-0.345,0.07,7611.111111111111
-0.33,0.075,7613.888888888889
-0.33,0.08,7616.666666666667
-0.36,0.06,7619.444444444444
-0.39,0.05,7622.222222222223
-0.405,0.055,7625.0
-0.375,0.065,7627.777777777777
-0.35,0.075,7630.555555555556
-0.345,0.085,7633.333333333333
-0.36,0.065,7636.111111111111
-0.355,0.06,7638.888888888889
-0.365,0.075,7641.666666666667
-0.35,0.075,7644.444444444444
-0.335,0.09,7647.222222222223
-0.35,0.075,7650.0
-0.36,0.06,7652.777777777777
-0.36,0.045,7655.555555555556
-0.37,0.05,7658.333333333333
-0.355,0.065,7661.111111111111
-0.34,0.075,7663.888888888889
-0.345,0.07,7666.666666666667
-0.34,0.055,7669.444444444444
-0.35,0.045,7672.222222222223
-0.365,0.045,7675.0
-0.38,0.065,7677.777777777777
-0.37,0.07,7680.555555555556
-0.35,0.065,7683.333333333333
-0.325,0.04,7686.111111111111
-0.33,0.05,7688.888888888889
-0.35,0.055,7691.666666666667
-0.36,0.07,7694.444444444444
-0.35,0.07,7697.222222222223
-0.35,0.065,7700.0
-0.325,0.05,7702.777777777777
-0.31,0.055,7705.555555555556
-0.335,0.07,7708.333333333333
-0.345,0.065,7711.111111111111
-0.35,0.04,7713.888888888889
-0.345,0.05,7716.666666666667
-0.355,0.04,7719.444444444444
-0.35,0.04,7722.222222222223
-0.36,0.035,7725.0
-0.355,0.055,7727.777777777777
-0.345,0.055,7730.555555555556
-0.34,0.06,7733.333333333333
-0.335,0.055,7736.111111111111
-0.345,0.065,7738.888888888889
-0.365,0.07,7741.666666666667
-0.39,0.06,7744.444444444444
-0.38,0.06,7747.222222222223
-0.34,0.08,7750.0
-0.28,0.07,7752.777777777777
-0.26,0.06,7755.555555555556
-0.28,0.065,7758.333333333333
-0.28,0.075,7761.111111111111
-0.275,0.085,7763.888888888889
-0.26,0.105,7766.666666666667
-0.26,0.1,7769.444444444444
-0.27,0.105,7772.222222222223
-0.285,0.12,7775.0
-0.245,0.135,7777.777777777777
-0.23,0.155,7780.555555555556
-0.205,0.145,7783.333333333333
-0.195,0.135,7786.111111111111
-0.185,0.12,7788.888888888889
-0.18,0.11,7791.666666666667
-0.14,0.125,7794.444444444444
-0.13,0.135,7797.222222222223
-0.105,0.11,7800.0
-0.13,0.08,7802.777777777777
-0.15,0.055,7805.555555555556
-0.145,0.045,7808.333333333333
-0.12,0.065,7811.111111111111
-0.105,0.085,7813.888888888889
-0.07,0.075,7816.666666666667
-0.08,0.07,7819.444444444444
-0.085,0.065,7822.222222222223
-0.135,0.06,7825.0
-0.21,0.06,7827.777777777777
-0.25,0.05,7830.555555555556
-0.26,0.05,7833.333333333333
-0.285,0.04,7836.111111111111
-0.315,0.03,7838.888888888889
-0.36,0.01,7841.666666666667
-0.375,0.01,7844.444444444444
-0.385,0.025,7847.222222222223
-0.365,0.025,7850.0
-0.37,0.01,7852.777777777777
-0.37,0.0,7855.555555555556
-0.395,0.0,7858.333333333333
-0.385,0.015,7861.111111111111
-0.37,0.025,7863.888888888889
-0.375,0.03,7866.666666666667
-0.39,0.01,7869.444444444444
-0.395,-0.02,7872.222222222223
-0.4,-0.01,7875.0
-0.39,-0.015,7877.777777777777
-0.385,0.005,7880.555555555556
-0.385,-0.005,7883.333333333333
-0.38,-0.005,7886.111111111111
-0.4,-0.02,7888.888888888889
-0.4,-0.015,7891.666666666667
-0.385,0.0,7894.444444444444
-0.375,0.0,7897.222222222223
-0.36,0.0,7900.0
-0.375,0.005,7902.777777777777
-0.39,-0.005,7905.555555555556
-0.39,0.0,7908.333333333333
-0.405,0.005,7911.111111111111
-0.4,0.0,7913.888888888889
-0.39,0.005,7916.666666666667
-0.365,-0.005,7919.444444444444
-0.385,-0.01,7922.222222222223
-0.395,-0.015,7925.0
-0.4,-0.005,7927.777777777777
-0.395,0.005,7930.555555555556
-0.39,0.0,7933.333333333333
-0.385,-0.02,7936.111111111111
-0.385,-0.03,7938.888888888889
-0.4,-0.02,7941.666666666667
-0.385,0.0,7944.444444444444
-0.375,0.01,7947.222222222223
-0.385,-0.01,7950.0
-0.405,-0.075,7952.777777777777
-0.45,-0.165,7955.555555555556
-0.44,-0.255,7958.333333333333
-0.415,-0.36,7961.111111111111
-0.395,-0.48,7963.888888888889
-0.375,-0.665,7966.666666666667
-0.38,-0.91,7969.444444444444
-0.395,-1.2,7972.222222222223
-0.465,-1.46,7975.0
-0.54,-1.58,7977.777777777777
-0.6,-1.575,7980.555555555556
-0.62,-1.52,7983.333333333333
-0.64,-1.49,7986.111111111111
-0.655,-1.455,7988.888888888889
-0.65,-1.425,7991.666666666667
-0.65,-1.35,7994.444444444444
-0.68,-1.285,7997.222222222223
-0.735,-1.26,8000.0
-0.78,-1.25,8002.777777777777
-0.82,-1.25,8005.555555555556
-0.855,-1.215,8008.333333333333
-0.855,-1.14,8011.111111111111
-0.89,-1.065,8013.888888888889
-0.935,-1.015,8016.666666666667
-0.985,-0.985,8019.444444444444
-1.015,-0.945,8022.222222222223
-1.02,-0.89,8025.0
-1.015,-0.83,8027.777777777777
-0.985,-0.745,8030.555555555556
-0.93,-0.645,8033.333333333333
-0.885,-0.54,8036.111111111111
-0.88,-0.47,8038.888888888889
-0.835,-0.39,8041.666666666667
-0.74,-0.3,8044.444444444444
-0.655,-0.2,8047.222222222223
-0.585,-0.14,8050.0
-0.545,-0.07,8052.777777777777
-0.525,-0.025,8055.555555555556
-0.505,0.03,8058.333333333333
-0.45,0.1,8061.111111111111
-0.39,0.15,8063.888888888889
-0.335,0.185,8066.666666666667
-0.315,0.2,8069.444444444444
-0.31,0.215,8072.222222222223
-0.32,0.215,8075.0
-0.31,0.25,8077.777777777777
-0.3,0.265,8080.555555555556
-0.285,0.275,8083.333333333333
-0.285,0.275,8086.111111111111
-0.285,0.29,8088.888888888889
-0.305,0.295,8091.666666666667
-0.29,0.31,8094.444444444444
-0.28,0.305,8097.222222222223
-0.28,0.3,8100.0
-0.275,0.31,8102.777777777777
-0.28,0.3,8105.555555555556
-0.3,0.31,8108.333333333333
-0.29,0.33,8111.111111111111
-0.275,0.35,8113.888888888889
-0.26,0.35,8116.666666666667
-0.265,0.34,8119.444444444444
-0.27,0.32,8122.222222222223
-0.28,0.325,8125.0
-0.285,0.35,8127.777777777777
-0.285,0.355,8130.555555555556
-0.275,0.36,8133.333333333333
-0.25,0.345,8136.111111111111
-0.25,0.36,8138.888888888889
-0.26,0.35,8141.666666666667
-0.28,0.365,8144.444444444444
-0.265,0.375,8147.222222222223
-0.25,0.37,8150.0
-0.26,0.38,8152.777777777777
-0.255,0.36,8155.555555555556
-0.255,0.355,8158.333333333333
-0.26,0.365,8161.111111111111
-0.245,0.375,8163.888888888889
-0.245,0.375,8166.666666666667
-0.24,0.37,8169.444444444444
-0.23,0.37,8172.222222222223
-0.235,0.37,8175.0
-0.225,0.37,8177.777777777777
-0.225,0.38,8180.555555555556
-0.2,0.375,8183.333333333333
-0.21,0.38,8186.111111111111
-0.225,0.365,8188.888888888889
-0.235,0.38,8191.666666666667
-0.23,0.405,8194.444444444445
-0.225,0.41,8197.222222222223
-0.2,0.405,8200.0
-0.18,0.395,8202.777777777777
-0.185,0.38,8205.555555555555
-0.185,0.39,8208.333333333334
-0.19,0.39,8211.111111111111
-0.2,0.4,8213.888888888889
-0.185,0.39,8216.666666666666
-0.17,0.375,8219.444444444445
-0.16,0.38,8222.222222222223
-0.17,0.37,8225.0
-0.17,0.39,8227.777777777777
-0.155,0.395,8230.555555555555
-0.155,0.375,8233.333333333334
-0.15,0.365,8236.111111111111
-0.15,0.36,8238.888888888889
-0.165,0.365,8241.666666666666
-0.16,0.385,8244.444444444445
-0.15,0.38,8247.222222222223
-0.15,0.37,8250.0
-0.15,0.355,8252.777777777777
-0.15,0.34,8255.555555555555
-0.145,0.335,8258.333333333334
-0.135,0.36,8261.111111111111
-0.145,0.355,8263.888888888889
-0.15,0.335,8266.666666666666
-0.145,0.32,8269.444444444445
-0.15,0.31,8272.222222222223
-0.165,0.285,8275.0
-0.15,0.29,8277.777777777777
-0.13,0.285,8280.555555555555
-0.12,0.275,8283.333333333334
-0.13,0.27,8286.111111111111
-0.135,0.255,8288.888888888889
-0.145,0.245,8291.666666666666
-0.145,0.24,8294.444444444445
-0.15,0.24,8297.222222222223
-0.155,0.23,8300.0
-0.165,0.22,8302.777777777777
-0.175,0.2,8305.555555555555
-0.2,0.175,8308.333333333334
-0.215,0.16,8311.111111111111
-0.22,0.175,8313.888888888889
-0.205,0.16,8316.666666666666
-0.21,0.155,8319.444444444445
-0.22,0.13,8322.222222222223
-0.23,0.115,8325.0
-0.235,0.105,8327.777777777777
-0.245,0.1,8330.555555555555
-0.235,0.1,8333.333333333334
-0.25,0.095,8336.111111111111
-0.27,0.075,8338.888888888889
-0.27,0.07,8341.666666666666
-0.28,0.09,8344.444444444445
-0.265,0.09,8347.222222222223
-0.255,0.075,8350.0
-0.255,0.06,8352.777777777777
-0.285,0.04,8355.555555555555
-0.29,0.06,8358.333333333334
-0.28,0.07,8361.111111111111
-0.275,0.07,8363.888888888889
-0.27,0.06,8366.666666666666
-0.275,0.07,8369.444444444445
-0.265,0.06,8372.222222222223
-0.275,0.065,8375.0
-0.285,0.075,8377.777777777777
-0.275,0.075,8380.555555555555
-0.265,0.07,8383.333333333334
-0.28,0.075,8386.111111111111
-0.29,0.065,8388.888888888889
-0.295,0.06,8391.666666666666
-0.285,0.075,8394.444444444445
-0.265,0.08,8397.222222222223
-0.27,0.08,8400.0
-0.28,0.07,8402.777777777777
-0.295,0.07,8405.555555555555
-0.305,0.075,8408.333333333334
-0.3,0.08,8411.111111111111
-0.28,0.115,8413.888888888889
-0.285,0.125,8416.666666666666
-0.285,0.115,8419.444444444445
-0.305,0.095,8422.222222222223
-0.315,0.095,8425.0
-0.315,0.105,8427.777777777777
-0.295,0.125,8430.555555555555
-0.295,0.12,8433.333333333334
-0.295,0.115,8436.111111111111
-0.3,0.1,8438.888888888889
-0.31,0.11,8441.666666666666
-0.32,0.13,8444.444444444445
-0.305,0.13,8447.222222222223
-0.3,0.145,8450.0
-0.305,0.135,8452.777777777777
-0.305,0.115,8455.555555555555
-0.33,0.105,8458.333333333334
-0.335,0.115,8461.111111111111
-0.335,0.13,8463.888888888889
-0.315,0.145,8466.666666666666
-0.315,0.14,8469.444444444445
-0.33,0.13,8472.222222222223
-0.355,0.135,8475.0
-0.335,0.14,8477.777777777777
-0.325,0.145,8480.555555555555
-0.325,0.135,8483.333333333334
-0.325,0.125,8486.111111111111
-0.33,0.135,8488.888888888889
-0.355,0.12,8491.666666666666
-0.36,0.13,8494.444444444445
-0.35,0.125,8497.222222222223
-0.35,0.145,8500.0
-0.345,0.13,8502.777777777777
-0.355,0.115,8505.555555555555
-0.38,0.11,8508.333333333334
-0.375,0.115,8511.111111111111
-0.37,0.12,8513.888888888889
-0.365,0.105,8516.666666666666
-0.37,0.105,8519.444444444445
-0.385,0.1,8522.222222222223
-0.405,0.1,8525.0
-0.4,0.11,8527.777777777777
-0.395,0.115,8530.555555555555
-0.37,0.11,8533.333333333334
-0.37,0.11,8536.111111111111
-0.39,0.1,8538.888888888889
-0.41,0.09,8541.666666666666
-0.4,0.11,8544.444444444445
-0.405,0.11,8547.222222222223
-0.385,0.1,8550.0
-0.365,0.1,8552.777777777777
-0.375,0.08,8555.555555555555
-0.395,0.065,8558.333333333334
-0.405,0.085,8561.111111111111
-0.4,0.1,8563.888888888889
-0.38,0.11,8566.666666666666
-0.365,0.105,8569.444444444445
-0.365,0.1,8572.222222222223
-0.385,0.09,8575.0
-0.395,0.075,8577.777777777777
-0.4,0.085,8580.555555555555
-0.385,0.09,8583.333333333334
-0.375,0.09,8586.111111111111
-0.39,0.08,8588.888888888889
-0.38,0.07,8591.666666666666
-0.355,0.085,8594.444444444445
-0.34,0.09,8597.222222222223
-0.36,0.08,8600.0
-0.38,0.065,8602.777777777777
-0.39,0.05,8605.555555555555
-0.38,0.06,8608.333333333334
-0.365,0.075,8611.111111111111
-0.365,0.085,8613.888888888889
-0.355,0.075,8616.666666666666
-0.355,0.065,8619.444444444445
-0.37,0.05,8622.222222222223
-0.375,0.045,8625.0
-0.385,0.055,8627.777777777777
-0.375,0.08,8630.555555555555
-0.375,0.07,8633.333333333334
-0.375,0.065,8636.111111111111
-0.345,0.07,8638.888888888889
-0.345,0.065,8641.666666666666
-0.35,0.07,8644.444444444445
-0.35,0.075,8647.222222222223
-0.35,0.055,8650.0
-0.355,0.045,8652.777777777777
-0.345,0.05,8655.555555555555
-0.355,0.055,8658.333333333334
-0.35,0.05,8661.111111111111
-0.355,0.06,8663.888888888889
-0.355,0.045,8666.666666666666
-0.37,0.055,8669.444444444445
-0.36,0.05,8672.222222222223
-0.365,0.045,8675.0
-0.36,0.04,8677.777777777777
-0.35,0.07,8680.555555555555
-0.345,0.06,8683.333333333334
-0.36,0.065,8686.111111111111
-0.355,0.05,8688.888888888889
-0.375,0.045,8691.666666666666
-0.36,0.075,8694.444444444445
-0.355,0.09,8697.222222222223
-0.36,0.065,8700.0
-0.365,0.04,8702.777777777777
-0.36,0.035,8705.555555555555
-0.365,0.045,8708.333333333334
-0.36,0.05,8711.111111111111
-0.35,0.06,8713.888888888889
-0.34,0.05,8716.666666666666
-0.335,0.055,8719.444444444445
-0.335,0.05,8722.222222222223
-0.35,0.04,8725.0
-0.33,0.055,8727.777777777777
-0.31,0.08,8730.555555555555
-0.32,0.095,8733.333333333334
-0.31,0.095,8736.111111111111
-0.305,0.095,8738.888888888889
-0.32,0.095,8741.666666666666
-0.31,0.115,8744.444444444445
-0.285,0.145,8747.222222222223
-0.275,0.145,8750.0
-0.265,0.155,8752.777777777777
-0.22,0.15,8755.555555555555
-0.19,0.135,8758.333333333334
-0.17,0.125,8761.111111111111
-0.185,0.105,8763.888888888889
-0.175,0.1,8766.666666666666
-0.155,0.095,8769.444444444445
-0.15,0.085,8772.222222222223
-0.155,0.075,8775.0
-0.155,0.07,8777.777777777777
-0.145,0.08,8780.555555555555
-0.12,0.07,8783.333333333334
-0.1,0.08,8786.111111111111
-0.11,0.075,8788.888888888889
-0.14,0.08,8791.666666666666
-0.15,0.09,8794.444444444445
-0.185,0.08,8797.222222222223
-0.21,0.075,8800.0
-0.245,0.065,8802.777777777777
-0.285,0.05,8805.555555555555
-0.325,0.045,8808.333333333334
-0.37,0.05,8811.111111111111
-0.395,0.03,8813.888888888889
-0.4,0.015,8816.666666666666
-0.42,0.015,8819.444444444445
-0.41,-0.015,8822.222222222223
-0.415,0.0,8825.0
-0.425,0.015,8827.777777777777
-0.405,0.025,8830.555555555555
-0.405,0.02,8833.333333333334
-0.405,0.015,8836.111111111111
-0.415,0.015,8838.888888888889
-0.425,0.005,8841.666666666666
-0.44,0.01,8844.444444444445
-0.44,0.015,8847.222222222223
-0.41,0.005,8850.0
-0.395,0.015,8852.777777777777
-0.405,-0.01,8855.555555555555
-0.43,-0.015,8858.333333333334
-0.43,0.0,8861.111111111111
-0.425,0.01,8863.888888888889
-0.405,0.0,8866.666666666666
-0.42,-0.005,8869.444444444445
-0.41,-0.01,8872.222222222223
-0.405,-0.005,8875.0
-0.4,0.015,8877.777777777777
-0.4,0.01,8880.555555555555
-0.4,-0.01,8883.333333333334
-0.42,-0.03,8886.111111111111
-0.43,-0.03,8888.888888888889
-0.44,-0.03,8891.666666666666
-0.43,-0.02,8894.444444444445
-0.42,-0.01,8897.222222222223
-0.425,-0.005,8900.0
-0.41,0.005,8902.777777777777
-0.4,-0.005,8905.555555555555
-0.42,-0.01,8908.333333333334
-0.415,-0.025,8911.111111111111
-0.415,0.0,8913.888888888889
-0.41,-0.005,8916.666666666666
-0.425,-0.06,8919.444444444445
-0.445,-0.11,8922.222222222223
-0.475,-0.185,8925.0
-0.46,-0.275,8927.777777777777
-0.42,-0.38,8930.555555555555
-0.38,-0.505,8933.333333333334
-0.39,-0.675,8936.111111111111
-0.41,-0.92,8938.888888888889
-0.405,-1.215,8941.666666666666
-0.435,-1.46,8944.444444444445
-0.505,-1.575,8947.222222222223
-0.605,-1.6,8950.0
-0.65,-1.56,8952.777777777777
-0.665,-1.51,8955.555555555555
-0.665,-1.47,8958.333333333334
-0.68,-1.415,8961.111111111111
-0.69,-1.35,8963.888888888889
-0.695,-1.3,8966.666666666666
-0.74,-1.275,8969.444444444445
-0.795,-1.25,8972.222222222223
-0.845,-1.235,8975.0
-0.885,-1.185,8977.777777777777
-0.9,-1.12,8980.555555555555
-0.915,-1.065,8983.333333333334
-0.965,-1.005,8986.111111111111
-1.02,-0.96,8988.888888888889
-1.07,-0.915,8991.666666666666
-1.065,-0.855,8994.444444444445
-1.045,-0.79,8997.222222222223
-1.005,-0.705,9000.0
-0.955,-0.61,9002.777777777777
-0.925,-0.525,9005.555555555555
-0.915,-0.445,9008.333333333334
-0.875,-0.365,9011.111111111111
-0.79,-0.27,9013.888888888889
-0.695,-0.19,9016.666666666666
-0.63,-0.125,9019.444444444445
-0.6,-0.08,9022.222222222223
-0.575,-0.02,9025.0
-0.515,0.055,9027.777777777777
-0.44,0.13,9030.555555555555
-0.395,0.175,9033.333333333334
-0.38,0.185,9036.111111111111
-0.385,0.195,9038.888888888889
-0.385,0.205,9041.666666666666
-0.375,0.23,9044.444444444445
-0.36,0.245,9047.222222222223
-0.34,0.255,9050.0
-0.33,0.275,9052.777777777777
-0.34,0.255,9055.555555555555
-0.35,0.25,9058.333333333334
-0.35,0.265,9061.111111111111
-0.33,0.3,9063.888888888889
-0.325,0.3,9066.666666666666
-0.33,0.3,9069.444444444445
-0.335,0.285,9072.222222222223
-0.335,0.29,9075.0
-0.325,0.315,9077.777777777777
-0.305,0.33,9080.555555555555
-0.295,0.325,9083.333333333334
-0.295,0.315,9086.111111111111
-0.305,0.32,9088.888888888889
-0.32,0.325,9091.666666666666
-0.32,0.34,9094.444444444445
-0.33,0.325,9097.222222222223
-0.31,0.305,9100.0
-0.305,0.32,9102.777777777777
-0.295,0.32,9105.555555555555
-0.31,0.335,9108.333333333334
-0.3,0.34,9111.111111111111
-0.3,0.355,9113.888888888889
-0.29,0.35,9116.666666666666
-0.28,0.345,9119.444444444445
-0.285,0.345,9122.222222222223
-0.29,0.35,9125.0
-0.28,0.355,9127.777777777777
-0.265,0.345,9130.555555555555
-0.25,0.36,9133.333333333334
-0.26,0.36,9136.111111111111
-0.27,0.36,9138.888888888889
-0.28,0.35,9141.666666666666
-0.26,0.355,9144.444444444445
-0.255,0.375,9147.222222222223
-0.27,0.355,9150.0
-0.265,0.345,9152.777777777777
-0.255,0.345,9155.555555555555
-0.245,0.35,9158.333333333334
-0.235,0.36,9161.111111111111
-0.24,0.36,9163.888888888889
-0.23,0.355,9166.666666666666
-0.21,0.36,9169.444444444445
-0.21,0.365,9172.222222222223
-0.22,0.36,9175.0
-0.225,0.375,9177.777777777777
-0.215,0.38,9180.555555555555
-0.205,0.36,9183.333333333334
-0.205,0.355,9186.111111111111
-0.205,0.355,9188.888888888889
-0.21,0.36,9191.666666666666
-0.2,0.365,9194.444444444445
-0.21,0.355,9197.222222222223
-0.19,0.34,9200.0
-0.19,0.335,9202.777777777777
-0.19,0.33,9205.555555555555
-0.2,0.33,9208.333333333334
-0.21,0.32,9211.111111111111
-0.215,0.325,9213.888888888889
-0.175,0.325,9216.666666666666
-0.155,0.315,9219.444444444445
-0.165,0.305,9222.222222222223
-0.185,0.285,9225.0
-0.18,0.3,9227.777777777777
-0.165,0.315,9230.555555555555
-0.15,0.3,9233.333333333334
-0.15,0.29,9236.111111111111
-0.165,0.27,9238.888888888889
-0.18,0.255,9241.666666666666
-0.19,0.25,9244.444444444445
-0.18,0.255,9247.222222222223
-0.185,0.245,9250.0
-0.21,0.21,9252.777777777777
-0.22,0.19,9255.555555555555
-0.235,0.175,9258.333333333334
-0.235,0.185,9261.111111111111
-0.23,0.185,9263.888888888889
-0.225,0.165,9266.666666666666
-0.24,0.155,9269.444444444445
-0.255,0.13,9272.222222222223
-0.265,0.12,9275.0
-0.275,0.12,9277.777777777777
-0.265,0.115,9280.555555555555
-0.27,0.1,9283.333333333334
-0.285,0.1,9286.111111111111
-0.295,0.085,9288.888888888889
-0.31,0.085,9291.666666666666
-0.305,0.085,9294.444444444445
-0.3,0.09,9297.222222222223
-0.305,0.085,9300.0
-0.305,0.07,9302.777777777777
-0.325,0.06,9305.555555555555
-0.365,0.04,9308.333333333334
-0.345,0.045,9311.111111111111
-0.33,0.065,9313.888888888889
-0.315,0.07,9316.666666666666
-0.335,0.065,9319.444444444445
-0.32,0.04,9322.222222222223
-0.35,0.045,9325.0
-0.335,0.065,9327.777777777777
-0.34,0.075,9330.555555555555
-0.33,0.07,9333.333333333334
-0.34,0.06,9336.111111111111
-0.35,0.045,9338.888888888889
-0.355,0.05,9341.666666666666
-0.375,0.065,9344.444444444445
-0.36,0.07,9347.222222222223
-0.335,0.08,9350.0
-0.335,0.065,9352.777777777777
-0.34,0.045,9355.555555555555
-0.36,0.045,9358.333333333334
-0.355,0.065,9361.111111111111
-0.36,0.085,9363.888888888889
-0.345,0.085,9366.666666666666
-0.35,0.085,9369.444444444445
-0.35,0.07,9372.222222222223
-0.365,0.08,9375.0
-0.355,0.085,9377.777777777777
-0.36,0.095,9380.555555555555
-0.345,0.085,9383.333333333334
-0.355,0.09,9386.111111111111
-0.355,0.09,9388.888888888889
-0.365,0.09,9391.666666666666
-0.375,0.1,9394.444444444445
-0.365,0.1,9397.222222222223
-0.35,0.1,9400.0
-0.36,0.1,9402.777777777777
-0.345,0.095,9405.555555555555
-0.37,0.1,9408.333333333334
-0.365,0.115,9411.111111111111
-0.35,0.13,9413.888888888889
-0.34,0.12,9416.666666666666
-0.35,0.125,9419.444444444445
-0.37,0.115,9422.222222222223
-0.385,0.125,9425.0
-0.39,0.12,9427.777777777777
-0.375,0.125,9430.555555555555
-0.365,0.125,9433.333333333334
-0.375,0.105,9436.111111111111
-0.395,0.085,9438.888888888889
-0.405,0.09,9441.666666666666
-0.41,0.11,9444.444444444445
-0.405,0.125,9447.222222222223
-0.4,0.12,9450.0
-0.4,0.115,9452.777777777777
-0.405,0.105,9455.555555555555
-0.425,0.095,9458.333333333334
-0.41,0.115,9461.111111111111
-0.405,0.12,9463.888888888889
-0.385,0.115,9466.666666666666
-0.395,0.115,9469.444444444445
-0.405,0.105,9472.222222222223
-0.41,0.1,9475.0
-0.42,0.1,9477.777777777777
-0.41,0.11,9480.555555555555
-0.41,0.105,9483.333333333334
-0.405,0.085,9486.111111111111
-0.4,0.08,9488.888888888889
-0.41,0.08,9491.666666666666
-0.42,0.085,9494.444444444445
-0.415,0.105,9497.222222222223
-0.415,0.08,9500.0
-0.43,0.07,9502.777777777777
-0.425,0.07,9505.555555555555
-0.43,0.07,9508.333333333334
-0.435,0.07,9511.111111111111
-0.425,0.095,9513.888888888889
-0.415,0.075,9516.666666666666
-0.41,0.085,9519.444444444445
-0.395,0.085,9522.222222222223
-0.41,0.07,9525.0
-0.43,0.06,9527.777777777777
-0.45,0.05,9530.555555555555
-0.42,0.055,9533.333333333334
-0.425,0.055,9536.111111111111
-0.42,0.045,9538.888888888889
-0.435,0.04,9541.666666666666
-0.42,0.05,9544.444444444445
-0.425,0.055,9547.222222222223
-0.42,0.055,9550.0
-0.43,0.05,9552.777777777777
-0.425,0.05,9555.555555555555
-0.425,0.05,9558.333333333334
-0.4,0.075,9561.111111111111
-0.395,0.075,9563.888888888889
-0.405,0.065,9566.666666666666
-0.41,0.035,9569.444444444445
-0.4,0.05,9572.222222222223
-0.395,0.055,9575.0
-0.38,0.06,9577.777777777777
-0.37,0.075,9580.555555555555
-0.375,0.07,9583.333333333334
-0.385,0.07,9586.111111111111
-0.405,0.06,9588.888888888889
-0.41,0.045,9591.666666666666
-0.41,0.055,9594.444444444445
-0.405,0.06,9597.222222222223
-0.39,0.035,9600.0
-0.395,0.035,9602.777777777777
-0.41,0.04,9605.555555555555
-0.42,0.035,9608.333333333334
-0.39,0.05,9611.111111111111
-0.385,0.05,9613.888888888889
-0.38,0.045,9616.666666666666
-0.375,0.045,9619.444444444445
-0.38,0.035,9622.222222222223
-0.395,0.035,9625.0
-0.39,0.06,9627.777777777777
-0.385,0.075,9630.555555555555
-0.39,0.07,9633.333333333334
-0.4,0.055,9636.111111111111
-0.415,0.035,9638.888888888889
-0.4,0.03,9641.666666666666
-0.41,0.04,9644.444444444445
-0.395,0.045,9647.222222222223
-0.4,0.04,9650.0
-0.395,0.04,9652.777777777777
-0.405,0.03,9655.555555555555
-0.395,0.03,9658.333333333334
-0.37,0.04,9661.111111111111
-0.365,0.055,9663.888888888889
-0.36,0.05,9666.666666666666
-0.37,0.04,9669.444444444445
-0.385,0.025,9672.222222222223
-0.395,0.025,9675.0
-0.39,0.04,9677.777777777777
-0.375,0.06,9680.555555555555
-0.365,0.055,9683.333333333334
-0.375,0.04,9686.111111111111
-0.395,0.025,9688.888888888889
-0.39,0.02,9691.666666666666
-0.385,0.04,9694.444444444445
-0.375,0.045,9697.222222222223
-0.365,0.05,9700.0
-0.36,0.035,9702.777777777777
-0.37,0.04,9705.555555555555
-0.38,0.055,9708.333333333334
-0.36,0.06,9711.111111111111
-0.32,0.08,9713.888888888889
-0.29,0.095,9716.666666666666
-0.285,0.085,9719.444444444445
-0.31,0.095,9722.222222222223
-0.31,0.105,9725.0
-0.285,0.125,9727.777777777777
-0.26,0.145,9730.555555555555
-0.24,0.155,9733.333333333334
-0.22,0.15,9736.111111111111
-0.21,0.125,9738.888888888889
-0.205,0.115,9741.666666666666
-0.21,0.1,9744.444444444445
-0.185,0.105,9747.222222222223
-0.15,0.095,9750.0
-0.135,0.09,9752.777777777777
-0.14,0.075,9755.555555555555
-0.16,0.065,9758.333333333334
-0.17,0.065,9761.111111111111
-0.145,0.065,9763.888888888889
-0.13,0.07,9766.666666666666
-0.125,0.06,9769.444444444445
-0.12,0.065,9772.222222222223
-0.13,0.06,9775.0
-0.14,0.065,9777.777777777777
-0.18,0.07,9780.555555555555
-0.23,0.06,9783.333333333334
-0.27,0.055,9786.111111111111
-0.31,0.04,9788.888888888889
-0.355,0.05,9791.666666666666
-0.41,0.035,9794.444444444445
-0.425,0.04,9797.222222222223
-0.42,0.015,9800.0
-0.41,0.025,9802.777777777777
-0.41,0.005,9805.555555555555
-0.41,0.005,9808.333333333334
-0.405,0.03,9811.111111111111
-0.395,0.03,9813.888888888889
-0.4,0.025,9816.666666666666
-0.4,-0.01,9819.444444444445
-0.42,-0.01,9822.222222222223
-0.415,-0.005,9825.0
-0.415,0.015,9827.777777777777
-0.42,0.01,9830.555555555555
-0.43,-0.005,9833.333333333334
-0.44,-0.015,9836.111111111111
-0.43,-0.02,9838.888888888889
-0.42,-0.01,9841.666666666666
-0.415,0.005,9844.444444444445
-0.4,0.015,9847.222222222223
-0.405,0.015,9850.0
-0.41,0.015,9852.777777777777
-0.415,0.0,9855.555555555555
-0.415,-0.01,9858.333333333334
-0.41,-0.005,9861.111111111111
-0.4,0.005,9863.888888888889
-0.395,0.01,9866.666666666666
-0.405,-0.005,9869.444444444445
-0.41,-0.005,9872.222222222223
-0.42,-0.01,9875.0
-0.415,-0.005,9877.777777777777
-0.41,0.005,9880.555555555555
-0.41,-0.01,9883.333333333334
-0.4,-0.01,9886.111111111111
-0.405,-0.025,9888.888888888889
-0.425,-0.01,9891.666666666666
-0.405,0.02,9894.444444444445
-0.39,0.03,9897.222222222223
-0.385,0.015,9900.0
-0.39,-0.015,9902.777777777777
-0.415,-0.08,9905.555555555555
-0.435,-0.165,9908.333333333334
-0.43,-0.255,9911.111111111111
-0.385,-0.34,9913.888888888889
-0.36,-0.475,9916.666666666666
-0.365,-0.685,9919.444444444445
-0.375,-0.93,9922.222222222223
-0.385,-1.19,9925.0
-0.42,-1.39,9927.777777777777
-0.505,-1.47,9930.555555555555
-0.57,-1.49,9933.333333333334
-0.62,-1.455,9936.111111111111
-0.62,-1.42,9938.888888888889
-0.635,-1.38,9941.666666666666
-0.635,-1.335,9944.444444444445
-0.645,-1.27,9947.222222222223
-0.68,-1.24,9950.0
-0.725,-1.22,9952.777777777777
-0.765,-1.19,9955.555555555555
-0.785,-1.165,9958.333333333334
-0.82,-1.12,9961.111111111111
-0.825,-1.05,9963.888888888889
-0.86,-1.0,9966.666666666666
-0.895,-0.955,9969.444444444445
-0.93,-0.915,9972.222222222223
-0.96,-0.865,9975.0
-0.98,-0.82,9977.777777777777
-0.985,-0.77,9980.555555555555
-0.985,-0.725,9983.333333333334
-0.94,-0.63,9986.111111111111
-0.895,-0.53,9988.888888888889
-0.88,-0.425,9991.666666666666
-0.85,-0.355,9994.444444444445
-0.78,-0.28,9997.222222222223
-0.69,-0.22,10000.0
-0.625,-0.15,10002.777777777777
-0.6,-0.1,10005.555555555555
-0.575,-0.03,10008.333333333334
-0.54,0.025,10011.111111111111
-0.485,0.095,10013.888888888889
-0.435,0.13,10016.666666666666
-0.37,0.18,10019.444444444445
-0.335,0.195,10022.222222222223
-0.335,0.2,10025.0
-0.32,0.23,10027.777777777777
-0.305,0.255,10030.555555555555
-0.305,0.25,10033.333333333334
-0.305,0.265,10036.111111111111
-0.32,0.26,10038.888888888889
-0.33,0.275,10041.666666666666
-0.34,0.285,10044.444444444445
-0.315,0.29,10047.222222222223
-0.29,0.3,10050.0
-0.275,0.31,10052.777777777777
-0.28,0.3,10055.555555555555
-0.295,0.32,10058.333333333334
-0.295,0.32,10061.111111111111
-0.285,0.315,10063.888888888889
-0.27,0.325,10066.666666666666
-0.265,0.325,10069.444444444445
-0.26,0.33,10072.222222222223
-0.275,0.34,10075.0
-0.265,0.34,10077.777777777777
-0.27,0.355,10080.555555555555
-0.275,0.335,10083.333333333334
-0.275,0.34,10086.111111111111
-0.27,0.355,10088.888888888889
-0.27,0.345,10091.666666666666
-0.26,0.365,10094.444444444445
-0.265,0.375,10097.222222222223
-0.255,0.37,10100.0
-0.25,0.375,10102.777777777777
-0.265,0.37,10105.555555555555
-0.27,0.35,10108.333333333334
-0.26,0.385,10111.111111111111
-0.245,0.39,10113.888888888889
-0.255,0.38,10116.666666666666
-0.26,0.38,10119.444444444445
-0.25,0.375,10122.222222222223
-0.25,0.375,10125.0
-0.225,0.39,10127.777777777777
-0.215,0.405,10130.555555555555
-0.215,0.41,10133.333333333334
-0.22,0.41,10136.111111111111
-0.225,0.395,10138.888888888889
-0.22,0.405,10141.666666666666
-0.195,0.415,10144.444444444445
-0.21,0.41,10147.222222222223
-0.21,0.39,10150.0
-0.21,0.38,10152.777777777777
-0.205,0.375,10155.555555555555
-0.21,0.4,10158.333333333334
-0.205,0.39,10161.111111111111
-0.185,0.415,10163.888888888889
-0.18,0.4,10166.666666666666
-0.17,0.39,10169.444444444445
-0.175,0.375,10172.222222222223
-0.18,0.38,10175.0
-0.175,0.39,10177.777777777777
-0.16,0.395,10180.555555555555
-0.155,0.39,10183.333333333334
-0.155,0.39,10186.111111111111
-0.16,0.37,10188.888888888889
-0.155,0.375,10191.666666666666
-0.155,0.38,10194.444444444445
-0.15,0.39,10197.222222222223
-0.145,0.37,10200.0
-0.145,0.355,10202.777777777777
-0.155,0.345,10205.555555555555
-0.165,0.32,10208.333333333334
-0.17,0.335,10211.111111111111
-0.14,0.33,10213.888888888889
-0.13,0.32,10216.666666666666
-0.135,0.31,10219.444444444445
-0.15,0.295,10222.222222222223
-0.165,0.285,10225.0
-0.155,0.285,10227.777777777777
-0.16,0.275,10230.555555555555
-0.17,0.255,10233.333333333334
-0.175,0.24,10236.111111111111
-0.185,0.215,10238.888888888889
-0.2,0.21,10241.666666666666
-0.19,0.21,10244.444444444445
-0.2,0.205,10247.222222222223
-0.2,0.195,10250.0
-0.205,0.175,10252.777777777777
-0.21,0.16,10255.555555555555
-0.225,0.135,10258.333333333334
-0.225,0.14,10261.111111111111
-0.225,0.135,10263.888888888889
-0.215,0.135,10266.666666666666
-0.23,0.115,10269.444444444445
-0.235,0.095,10272.222222222223
-0.25,0.1,10275.0
-0.25,0.09,10277.777777777777
-0.245,0.11,10280.555555555555
-0.245,0.085,10283.333333333334
-0.255,0.095,10286.111111111111
-0.265,0.085,10288.888888888889
-0.28,0.08,10291.666666666666
-0.27,0.085,10294.444444444445
-0.265,0.085,10297.222222222223
-0.25,0.09,10300.0
-0.25,0.075,10302.777777777777
-0.265,0.065,10305.555555555555
-0.28,0.065,10308.333333333334
-0.275,0.08,10311.111111111111
-0.265,0.1,10313.888888888889
-0.26,0.1,10316.666666666666
-0.275,0.09,10319.444444444445
-0.285,0.07,10322.222222222223
-0.29,0.075,10325.0
-0.28,0.095,10327.777777777777
-0.26,0.1,10330.555555555555
-0.255,0.1,10333.333333333334
-0.265,0.095,10336.111111111111
-0.265,0.085,10338.888888888889
-0.27,0.1,10341.666666666666
-0.28,0.115,10344.444444444445
-0.27,0.12,10347.222222222223
-0.255,0.125,10350.0
-0.265,0.12,10352.777777777777
-0.28,0.12,10355.555555555555
-0.285,0.115,10358.333333333334
-0.29,0.12,10361.111111111111
-0.285,0.13,10363.888888888889
-0.275,0.13,10366.666666666666
-0.275,0.11,10369.444444444445
-0.275,0.115,10372.222222222223
-0.28,0.115,10375.0
-0.27,0.135,10377.777777777777
-0.27,0.14,10380.555555555555
-0.27,0.14,10383.333333333334
-0.275,0.12,10386.111111111111
-0.3,0.14,10388.888888888889
-0.29,0.15,10391.666666666666
-0.295,0.165,10394.444444444445
-0.28,0.18,10397.222222222223
-0.28,0.165,10400.0
-0.3,0.15,10402.777777777777
-0.32,0.135,10405.555555555555
-0.32,0.135,10408.333333333334
-0.31,0.145,10411.111111111111
-0.295,0.15,10413.888888888889
-0.3,0.13,10416.666666666666
-0.31,0.135,10419.444444444445
-0.305,0.125,10422.222222222223
-0.32,0.125,10425.0
-0.32,0.145,10427.777777777777
-0.33,0.145,10430.555555555555
-0.325,0.135,10433.333333333334
-0.325,0.12,10436.111111111111
-0.32,0.13,10438.888888888889
-0.345,0.135,10441.666666666666
-0.325,0.135,10444.444444444445
-0.315,0.135,10447.222222222223
-0.31,0.135,10450.0
-0.315,0.125,10452.777777777777
-0.34,0.115,10455.555555555555
-0.335,0.11,10458.333333333334
-0.335,0.115,10461.111111111111
-0.325,0.125,10463.888888888889
-0.325,0.12,10466.666666666666
-0.34,0.1,10469.444444444445
-0.34,0.1,10472.222222222223
-0.35,0.085,10475.0
-0.35,0.09,10477.777777777777
-0.33,0.115,10480.555555555555
-0.32,0.1,10483.333333333334
-0.305,0.095,10486.111111111111
-0.33,0.085,10488.888888888889
-0.34,0.085,10491.666666666666
-0.32,0.1,10494.444444444445
-0.305,0.115,10497.222222222223
-0.3,0.12,10500.0
-0.31,0.1,10502.777777777777
-0.325,0.11,10505.555555555555
-0.325,0.08,10508.333333333334
-0.33,0.08,10511.111111111111
-0.31,0.09,10513.888888888889
-0.295,0.09,10516.666666666666
-0.305,0.09,10519.444444444445
-0.32,0.08,10522.222222222223
-0.345,0.075,10525.0
-0.31,0.08,10527.777777777777
-0.315,0.095,10530.555555555555
-0.315,0.085,10533.333333333334
-0.31,0.09,10536.111111111111
-0.305,0.08,10538.888888888889
-0.315,0.075,10541.666666666666
-0.31,0.1,10544.444444444445
-0.3,0.105,10547.222222222223
-0.295,0.095,10550.0
-0.305,0.09,10552.777777777777
-0.3,0.08,10555.555555555555
-0.32,0.08,10558.333333333334
-0.315,0.095,10561.111111111111
-0.31,0.095,10563.888888888889
-0.295,0.095,10566.666666666666
-0.3,0.08,10569.444444444445
-0.32,0.07,10572.222222222223
-0.32,0.055,10575.0
-0.325,0.08,10577.777777777777
-0.305,0.095,10580.555555555555
-0.29,0.09,10583.333333333334
-0.28,0.075,10586.111111111111
-0.295,0.06,10588.888888888889
-0.31,0.065,10591.666666666666
-0.305,0.065,10594.444444444445
-0.285,0.085,10597.222222222223
-0.28,0.08,10600.0
-0.28,0.08,10602.777777777777
-0.295,0.075,10605.555555555555
-0.31,0.06,10608.333333333334
-0.285,0.075,10611.111111111111
-0.285,0.09,10613.888888888889
-0.265,0.08,10616.666666666666
-0.275,0.075,10619.444444444445
-0.28,0.065,10622.222222222223
-0.285,0.065,10625.0
-0.285,0.07,10627.777777777777
-0.27,0.09,10630.555555555555
-0.26,0.085,10633.333333333334
-0.265,0.075,10636.111111111111
-0.26,0.08,10638.888888888889
-0.255,0.08,10641.666666666666
-0.255,0.1,10644.444444444445
-0.215,0.12,10647.222222222223
-0.21,0.13,10650.0
-0.215,0.135,10652.777777777777
-0.22,0.13,10655.555555555555
-0.22,0.135,10658.333333333334
-0.205,0.17,10661.111111111111
-0.19,0.175,10663.888888888889
-0.17,0.175,10666.666666666666
-0.14,0.17,10669.444444444445
-0.13,0.165,10672.222222222223
-0.12,0.145,10675.0
-0.1,0.13,10677.777777777777
-0.08,0.13,10680.555555555555
-0.065,0.12,10683.333333333334
-0.06,0.11,10686.111111111111
-0.06,0.1,10688.888888888889
-0.07,0.09,10691.666666666666
-0.06,0.1,10694.444444444445
-0.035,0.115,10697.222222222223
-0.01,0.11,10700.0
-0.035,0.105,10702.777777777777
-0.035,0.105,10705.555555555555
-0.065,0.1,10708.333333333334
-0.11,0.09,10711.111111111111
-0.14,0.1,10713.888888888889
-0.18,0.09,10716.666666666666
-0.2,0.085,10719.444444444445
-0.255,0.08,10722.222222222223
-0.3,0.065,10725.0
-0.315,0.05,10727.777777777777
-0.315,0.055,10730.555555555555
-0.3,0.045,10733.333333333334
-0.305,0.035,10736.111111111111
-0.315,0.025,10738.888888888889
-0.31,0.035,10741.666666666666
-0.305,0.04,10744.444444444445
-0.29,0.06,10747.222222222223
-0.3,0.05,10750.0
-0.315,0.045,10752.777777777777
-0.32,0.02,10755.555555555555
-0.32,0.025,10758.333333333334
-0.32,0.04,10761.111111111111
-0.305,0.055,10763.888888888889
-0.315,0.045,10766.666666666666
-0.32,0.035,10769.444444444445
-0.32,0.035,10772.222222222223
-0.315,0.02,10775.0
-0.305,0.04,10777.777777777777
-0.29,0.035,10780.555555555555
-0.28,0.04,10783.333333333334
-0.3,0.025,10786.111111111111
-0.32,0.015,10788.888888888889
-0.31,0.03,10791.666666666666
-0.295,0.02,10794.444444444445
-0.295,0.04,10797.222222222223
-0.29,0.03,10800.0
-0.3,0.015,10802.777777777777
-0.31,0.005,10805.555555555555
-0.32,0.015,10808.333333333334
-0.305,0.02,10811.111111111111
-0.295,0.035,10813.888888888889
-0.295,0.025,10816.666666666666
-0.31,0.025,10819.444444444445
-0.31,0.03,10822.222222222223
-0.32,0.045,10825.0
-0.295,0.045,10827.777777777777
-0.285,0.025,10830.555555555555
-0.295,-0.06,10833.333333333334
-0.32,-0.16,10836.111111111111
-0.33,-0.265,10838.888888888889
-0.315,-0.425,10841.666666666666
-0.28,-0.58,10844.444444444445
-0.27,-0.775,10847.222222222223
-0.255,-1.07,10850.0
-0.27,-1.365,10852.777777777777
-0.35,-1.555,10855.555555555555
-0.43,-1.595,10858.333333333334
-0.495,-1.545,10861.111111111111
-0.51,-1.47,10863.888888888889
-0.515,-1.415,10866.666666666666
-0.515,-1.375,10869.444444444445
-0.53,-1.335,10872.222222222223
-0.58,-1.28,10875.0
-0.62,-1.225,10877.777777777777
-0.655,-1.19,10880.555555555555
-0.675,-1.165,10883.333333333334
-0.72,-1.15,10886.111111111111
-0.765,-1.12,10888.888888888889
-0.83,-1.045,10891.666666666666
-0.85,-0.96,10894.444444444445
-0.88,-0.89,10897.222222222223
-0.875,-0.845,10900.0
-0.885,-0.79,10902.777777777777
-0.865,-0.71,10905.555555555555
-0.84,-0.6,10908.333333333334
-0.785,-0.485,10911.111111111111
-0.76,-0.395,10913.888888888889
-0.705,-0.31,10916.666666666666
-0.63,-0.23,10919.444444444445
-0.535,-0.16,10922.222222222223
-0.5,-0.09,10925.0
-0.445,0.01,10927.777777777777
-0.4,0.075,10930.555555555555
-0.35,0.13,10933.333333333334
-0.3,0.185,10936.111111111111
-0.255,0.215,10938.888888888889
-0.255,0.24,10941.666666666666
-0.225,0.27,10944.444444444445
-0.215,0.305,10947.222222222223
-0.215,0.295,10950.0
-0.205,0.295,10952.777777777777
-0.22,0.305,10955.555555555555
-0.23,0.305,10958.333333333334
-0.21,0.33,10961.111111111111
-0.2,0.35,10963.888888888889
-0.18,0.36,10966.666666666666
-0.18,0.355,10969.444444444445
-0.2,0.365,10972.222222222223
-0.205,0.365,10975.0
-0.195,0.375,10977.777777777777
-0.19,0.38,10980.555555555555
-0.175,0.37,10983.333333333334
-0.175,0.39,10986.111111111111
-0.17,0.4,10988.888888888889
-0.18,0.405,10991.666666666666
-0.17,0.42,10994.444444444445
-0.16,0.41,10997.222222222223
-0.17,0.4,11000.0
-0.165,0.405,11002.777777777777
-0.165,0.395,11005.555555555555
-0.18,0.405,11008.333333333334
-0.18,0.42,11011.111111111111
-0.185,0.425,11013.888888888889
-0.16,0.43,11016.666666666666
-0.16,0.425,11019.444444444445
-0.155,0.42,11022.222222222223
-0.17,0.44,11025.0
-0.165,0.45,11027.777777777777
-0.16,0.46,11030.555555555555
-0.14,0.455,11033.333333333334
-0.14,0.455,11036.111111111111
-0.14,0.45,11038.888888888889
-0.145,0.455,11041.666666666666
-0.125,0.465,11044.444444444445
-0.11,0.48,11047.222222222223
-0.115,0.46,11050.0
-0.105,0.45,11052.777777777777
-0.125,0.45,11055.555555555555
-0.125,0.45,11058.333333333334
-0.115,0.46,11061.111111111111
-0.095,0.475,11063.888888888889
-0.08,0.48,11066.666666666666
-0.085,0.465,11069.444444444445
-0.095,0.45,11072.222222222223
-0.085,0.46,11075.0
-0.075,0.47,11077.777777777777
-0.055,0.475,11080.555555555555
-0.05,0.47,11083.333333333334
-0.05,0.46,11086.111111111111
-0.07,0.445,11088.888888888889
-0.075,0.455,11091.666666666666
-0.045,0.45,11094.444444444445
-0.04,0.455,11097.222222222223
-0.045,0.44,11100.0
-0.05,0.43,11102.777777777777
-0.045,0.415,11105.555555555555
-0.035,0.41,11108.333333333334
-0.03,0.415,11111.111111111111
-0.01,0.415,11113.888888888889
-0.01,0.41,11116.666666666666
-0.015,0.4,11119.444444444445
-0.03,0.37,11122.222222222223
-0.055,0.36,11125.0
-0.055,0.36,11127.777777777777
-0.04,0.36,11130.555555555555
-0.035,0.345,11133.333333333334
-0.05,0.33,11136.111111111111
-0.06,0.305,11138.888888888889
-0.085,0.3,11141.666666666666
-0.085,0.28,11144.444444444445
-0.065,0.26,11147.222222222223
-0.075,0.255,11150.0
-0.08,0.245,11152.777777777777
-0.095,0.23,11155.555555555555
-0.115,0.22,11158.333333333334
-0.13,0.21,11161.111111111111
-0.13,0.205,11163.888888888889
-0.13,0.19,11166.666666666666
-0.15,0.165,11169.444444444445
-0.155,0.155,11172.222222222223
-0.195,0.16,11175.0
-0.17,0.165,11177.777777777777
-0.165,0.165,11180.555555555555
-0.155,0.17,11183.333333333334
-0.16,0.135,11186.111111111111
-0.175,0.115,11188.888888888889
-0.18,0.12,11191.666666666666
-0.18,0.13,11194.444444444445
-0.185,0.13,11197.222222222223
-0.18,0.125,11200.0
-0.19,0.12,11202.777777777777
-0.19,0.12,11205.555555555555
-0.17,0.125,11208.333333333334
-0.19,0.135,11211.111111111111
-0.19,0.14,11213.888888888889
-0.19,0.14,11216.666666666666
-0.19,0.13,11219.444444444445
-0.205,0.125,11222.222222222223
-0.205,0.135,11225.0
-0.205,0.135,11227.777777777777
-0.195,0.16,11230.555555555555
-0.185,0.16,11233.333333333334
-0.18,0.165,11236.111111111111
-0.19,0.145,11238.888888888889
-0.21,0.15,11241.666666666666
-0.215,0.145,11244.444444444445
-0.2,0.16,11247.222222222223
-0.195,0.165,11250.0
-0.21,0.17,11252.777777777777
-0.21,0.16,11255.555555555555
-0.24,0.155,11258.333333333334
-0.22,0.16,11261.111111111111
-0.21,0.175,11263.888888888889
-0.215,0.18,11266.666666666666
-0.21,0.17,11269.444444444445
-0.225,0.175,11272.222222222223
-0.25,0.165,11275.0
-0.23,0.185,11277.777777777777
-0.225,0.21,11280.555555555555
-0.22,0.215,11283.333333333334
-0.225,0.21,11286.111111111111
-0.23,0.185,11288.888888888889
-0.25,0.175,11291.666666666666
-0.245,0.175,11294.444444444445
-0.24,0.195,11297.222222222223
-0.24,0.185,11300.0
-0.245,0.195,11302.777777777777
-0.25,0.18,11305.555555555555
-0.25,0.175,11308.333333333334
-0.235,0.175,11311.111111111111
-0.22,0.185,11313.888888888889
-0.245,0.195,11316.666666666666
-0.27,0.185,11319.444444444445
-0.27,0.19,11322.222222222223
-0.265,0.185,11325.0
-0.255,0.175,11327.777777777777
-0.245,0.195,11330.555555555555
-0.25,0.19,11333.333333333334
-0.27,0.185,11336.111111111111
-0.305,0.17,11338.888888888889
-0.355,0.165,11341.666666666666
-0.39,0.155,11344.444444444445
-0.415,0.125,11347.222222222223
-0.425,0.08,11350.0
-0.45,0.04,11352.777777777777
-0.46,-0.005,11355.555555555555
-0.455,-0.035,11358.333333333334
-0.425,-0.065,11361.111111111111
-0.39,-0.08,11363.888888888889
-0.355,-0.085,11366.666666666666
-0.29,-0.115,11369.444444444445
-0.225,-0.13,11372.222222222223
-0.185,-0.12,11375.0
-0.125,-0.1,11377.777777777777
-0.065,-0.065,11380.555555555555
-0.01,-0.04,11383.333333333334
0.035,-0.01,11386.111111111111
0.065,0.035,11388.888888888889
0.13,0.08,11391.666666666666
0.22,0.145,11394.444444444445
0.255,0.165,11397.222222222223
0.19,0.195,11400.0
0.13,0.22,11402.777777777777
0.145,0.265,11405.555555555555
0.21,0.34,11408.333333333334
0.245,0.45,11411.111111111111
0.205,0.54,11413.888888888889
0.12,0.62,11416.666666666666
0.035,0.68,11419.444444444445
-0.03,0.71,11422.222222222223
-0.145,0.745,11425.0
