MLII,V1,time_ms
0.175,0.635,0.0
0.175,0.635,2.7777777777777777
0.175,0.635,5.555555555555555
0.175,0.635,8.333333333333334
0.175,0.635,11.11111111111111
0.175,0.635,13.88888888888889
0.175,0.635,16.666666666666668
0.175,0.635,19.444444444444443
0.175,0.635,22.22222222222222
0.18,0.635,25.0
0.185,0.645,27.77777777777778
0.21,0.62,30.555555555555557
0.23,0.615,33.333333333333336
0.22,0.595,36.111111111111114
0.195,0.58,38.888888888888886
0.16,0.57,41.666666666666664
0.095,0.58,44.44444444444444
0.06,0.595,47.22222222222222
0.085,0.59,50.0
0.15,0.585,52.77777777777778
0.195,0.58,55.55555555555556
0.16,0.575,58.333333333333336
0.065,0.59,61.111111111111114
0.055,0.59,63.888888888888886
0.12,0.585,66.66666666666667
0.22,0.57,69.44444444444444
0.24,0.545,72.22222222222223
0.2,0.56,75.0
0.16,0.575,77.77777777777777
0.14,0.59,80.55555555555556
0.14,0.6,83.33333333333333
0.125,0.6,86.11111111111111
0.11,0.575,88.88888888888889
0.1,0.585,91.66666666666667
0.11,0.595,94.44444444444444
0.135,0.62,97.22222222222223
0.14,0.625,100.0
0.105,0.62,102.77777777777777
0.055,0.6,105.55555555555556
0.03,0.6,108.33333333333333
0.01,0.595,111.11111111111111
0.015,0.61,113.88888888888889
-0.015,0.61,116.66666666666667
-0.035,0.615,119.44444444444444
-0.06,0.61,122.22222222222223
-0.09,0.595,125.0
-0.125,0.62,127.77777777777777
-0.125,0.655,130.55555555555554
-0.11,0.66,133.33333333333334
-0.11,0.65,136.11111111111111
-0.11,0.605,138.88888888888889
-0.13,0.565,141.66666666666666
-0.13,0.545,144.44444444444446
-0.135,0.55,147.22222222222223
-0.14,0.565,150.0
-0.15,0.58,152.77777777777777
-0.175,0.58,155.55555555555554
-0.16,0.58,158.33333333333334
-0.165,0.58,161.11111111111111
-0.17,0.585,163.88888888888889
-0.185,0.585,166.66666666666666
-0.195,0.58,169.44444444444446
-0.18,0.57,172.22222222222223
-0.165,0.555,175.0
-0.175,0.56,177.77777777777777
-0.2,0.59,180.55555555555554
-0.215,0.59,183.33333333333334
-0.215,0.575,186.11111111111111
-0.185,0.57,188.88888888888889
-0.17,0.555,191.66666666666666
-0.19,0.55,194.44444444444446
-0.23,0.545,197.22222222222223
-0.23,0.565,200.0
-0.21,0.565,202.77777777777777
-0.175,0.545,205.55555555555554
-0.16,0.525,208.33333333333334
-0.17,0.525,211.11111111111111
-0.19,0.56,213.88888888888889
-0.195,0.56,216.66666666666666
-0.19,0.55,219.44444444444446
-0.165,0.53,222.22222222222223
-0.16,0.525,225.0
-0.18,0.54,227.77777777777777
-0.19,0.545,230.55555555555554
-0.175,0.535,233.33333333333334
-0.18,0.52,236.11111111111111
-0.175,0.52,238.88888888888889
-0.195,0.515,241.66666666666666
-0.2,0.535,244.44444444444446
-0.18,0.57,247.22222222222223
-0.185,0.57,250.0
-0.195,0.575,252.77777777777777
-0.21,0.59,255.55555555555554
-0.245,0.61,258.3333333333333
-0.24,0.625,261.1111111111111
-0.185,0.63,263.8888888888889
-0.08,0.605,266.6666666666667
0.025,0.56,269.44444444444446
0.11,0.49,272.22222222222223
0.17,0.4,275.0
0.2,0.345,277.77777777777777
0.205,0.31,280.55555555555554
0.235,0.225,283.3333333333333
0.33,0.1,286.1111111111111
0.425,-0.085,288.8888888888889
0.535,-0.26,291.6666666666667
0.6,-0.37,294.44444444444446
0.63,-0.395,297.22222222222223
0.61,-0.365,300.0
0.575,-0.365,302.77777777777777
0.55,-0.375,305.55555555555554
0.535,-0.34,308.3333333333333
0.52,-0.285,311.1111111111111
0.49,-0.22,313.8888888888889
0.445,-0.18,316.6666666666667
0.39,-0.13,319.44444444444446
0.33,-0.095,322.22222222222223
0.27,-0.06,325.0
0.22,-0.01,327.77777777777777
0.175,0.045,330.55555555555554
0.095,0.07,333.3333333333333
-0.02,0.095,336.1111111111111
-0.145,0.1,338.8888888888889
-0.28,0.13,341.6666666666667
-0.405,0.17,344.44444444444446
-0.49,0.2,347.22222222222223
-0.545,0.23,350.0
-0.57,0.255,352.77777777777777
-0.62,0.265,355.55555555555554
-0.66,0.285,358.3333333333333
-0.7,0.31,361.1111111111111
-0.69,0.325,363.8888888888889
-0.67,0.345,366.6666666666667
-0.66,0.355,369.44444444444446
-0.655,0.36,372.22222222222223
-0.66,0.38,375.0
-0.64,0.41,377.77777777777777
-0.615,0.445,380.55555555555554
-0.595,0.45,383.3333333333333
-0.59,0.47,386.1111111111111
-0.575,0.465,388.8888888888889
-0.58,0.47,391.6666666666667
-0.58,0.485,394.44444444444446
-0.56,0.515,397.22222222222223
-0.515,0.51,400.0
-0.485,0.53,402.77777777777777
-0.475,0.515,405.55555555555554
-0.485,0.51,408.3333333333333
-0.485,0.52,411.1111111111111
-0.465,0.525,413.8888888888889
-0.46,0.535,416.6666666666667
-0.46,0.52,419.44444444444446
-0.46,0.52,422.22222222222223
-0.47,0.51,425.0
-0.475,0.535,427.77777777777777
-0.465,0.535,430.55555555555554
-0.47,0.535,433.3333333333333
-0.485,0.535,436.1111111111111
-0.485,0.525,438.8888888888889
-0.505,0.52,441.6666666666667
-0.505,0.535,444.44444444444446
-0.5,0.545,447.22222222222223
-0.49,0.535,450.0
-0.49,0.53,452.77777777777777
-0.495,0.525,455.55555555555554
-0.505,0.53,458.3333333333333
-0.53,0.535,461.1111111111111
-0.53,0.56,463.8888888888889
-0.52,0.56,466.6666666666667
-0.5,0.555,469.44444444444446
-0.495,0.525,472.22222222222223
-0.505,0.53,475.0
-0.52,0.525,477.77777777777777
-0.515,0.535,480.55555555555554
-0.505,0.53,483.3333333333333
-0.505,0.525,486.1111111111111
-0.515,0.52,488.8888888888889
-0.515,0.51,491.6666666666667
-0.52,0.53,494.44444444444446
-0.5,0.535,497.22222222222223
-0.485,0.535,500.0
-0.495,0.53,502.77777777777777
-0.49,0.515,505.55555555555554
-0.485,0.51,508.3333333333333
-0.48,0.495,511.1111111111111
-0.48,0.505,513.8888888888889
-0.48,0.51,516.6666666666666
-0.455,0.505,519.4444444444445
-0.45,0.49,522.2222222222222
-0.435,0.48,525.0
-0.445,0.485,527.7777777777778
-0.415,0.49,530.5555555555555
-0.415,0.485,533.3333333333334
-0.405,0.475,536.1111111111111
-0.395,0.465,538.8888888888889
-0.385,0.46,541.6666666666666
-0.385,0.465,544.4444444444445
-0.37,0.48,547.2222222222222
-0.35,0.475,550.0
-0.35,0.47,552.7777777777778
-0.365,0.44,555.5555555555555
-0.375,0.43,558.3333333333334
-0.35,0.42,561.1111111111111
-0.305,0.45,563.8888888888889
-0.265,0.43,566.6666666666666
-0.255,0.42,569.4444444444445
-0.275,0.42,572.2222222222222
-0.285,0.39,575.0
-0.28,0.38,577.7777777777778
-0.24,0.39,580.5555555555555
-0.21,0.38,583.3333333333334
-0.215,0.37,586.1111111111111
-0.225,0.36,588.8888888888889
-0.22,0.34,591.6666666666666
-0.24,0.355,594.4444444444445
-0.23,0.35,597.2222222222222
-0.2,0.345,600.0
-0.19,0.32,602.7777777777778
-0.18,0.3,605.5555555555555
-0.185,0.305,608.3333333333334
-0.195,0.295,611.1111111111111
-0.185,0.31,613.8888888888889
-0.155,0.295,616.6666666666666
-0.16,0.285,619.4444444444445
-0.175,0.27,622.2222222222222
-0.185,0.26,625.0
-0.185,0.25,627.7777777777778
-0.18,0.265,630.5555555555555
-0.17,0.25,633.3333333333334
-0.17,0.25,636.1111111111111
-0.18,0.24,638.8888888888889
-0.175,0.24,641.6666666666666
-0.165,0.24,644.4444444444445
-0.145,0.255,647.2222222222222
-0.125,0.255,650.0
-0.125,0.23,652.7777777777778
-0.135,0.23,655.5555555555555
-0.16,0.21,658.3333333333334
-0.185,0.225,661.1111111111111
-0.195,0.21,663.8888888888889
-0.16,0.225,666.6666666666666
-0.145,0.215,669.4444444444445
-0.15,0.18,672.2222222222222
-0.18,0.17,675.0
-0.21,0.175,677.7777777777778
-0.19,0.19,680.5555555555555
-0.18,0.185,683.3333333333334
-0.185,0.18,686.1111111111111
-0.215,0.16,688.8888888888889
-0.235,0.15,691.6666666666666
-0.24,0.155,694.4444444444445
-0.2,0.16,697.2222222222222
-0.16,0.17,700.0
-0.145,0.165,702.7777777777778
-0.175,0.155,705.5555555555555
-0.195,0.16,708.3333333333334
-0.2,0.16,711.1111111111111
-0.19,0.175,713.8888888888889
-0.17,0.18,716.6666666666666
-0.185,0.17,719.4444444444445
-0.205,0.15,722.2222222222222
-0.22,0.15,725.0
-0.215,0.16,727.7777777777778
-0.195,0.175,730.5555555555555
-0.185,0.17,733.3333333333334
-0.195,0.165,736.1111111111111
-0.21,0.17,738.8888888888889
-0.24,0.16,741.6666666666666
-0.265,0.185,744.4444444444445
-0.275,0.175,747.2222222222222
-0.295,0.175,750.0
-0.32,0.185,752.7777777777778
-0.355,0.175,755.5555555555555
-0.375,0.16,758.3333333333334
-0.405,0.165,761.1111111111111
-0.425,0.185,763.8888888888889
-0.435,0.175,766.6666666666666
-0.45,0.18,769.4444444444445
-0.44,0.16,772.2222222222222
-0.44,0.15,775.0
-0.44,0.155,777.7777777777778
-0.43,0.17,780.5555555555555
-0.42,0.17,783.3333333333334
-0.43,0.16,786.1111111111111
-0.435,0.15,788.8888888888889
-0.455,0.14,791.6666666666666
-0.47,0.155,794.4444444444445
-0.475,0.155,797.2222222222222
-0.455,0.155,800.0
-0.46,0.135,802.7777777777778
-0.465,0.12,805.5555555555555
-0.485,0.12,808.3333333333334
-0.485,0.12,811.1111111111111
-0.47,0.125,813.8888888888889
-0.455,0.125,816.6666666666666
-0.45,0.13,819.4444444444445
-0.46,0.11,822.2222222222222
-0.46,0.105,825.0
-0.45,0.12,827.7777777777778
-0.44,0.125,830.5555555555555
-0.435,0.125,833.3333333333334
-0.455,0.12,836.1111111111111
-0.475,0.1,838.8888888888889
-0.48,0.105,841.6666666666666
-0.475,0.11,844.4444444444445
-0.445,0.11,847.2222222222222
-0.43,0.11,850.0
-0.47,0.1,852.7777777777778
-0.49,0.08,855.5555555555555
-0.505,0.075,858.3333333333334
-0.485,0.105,861.1111111111111
-0.445,0.105,863.8888888888889
-0.425,0.095,866.6666666666666
-0.43,0.08,869.4444444444445
-0.45,0.075,872.2222222222222
-0.47,0.06,875.0
-0.465,0.07,877.7777777777778
-0.455,0.085,880.5555555555555
-0.44,0.085,883.3333333333334
-0.46,0.075,886.1111111111111
-0.485,0.085,888.8888888888889
-0.485,0.085,891.6666666666666
-0.495,0.1,894.4444444444445
-0.485,0.155,897.2222222222222
-0.495,0.16,900.0
-0.495,0.17,902.7777777777778
-0.485,0.155,905.5555555555555
-0.415,0.125,908.3333333333334
-0.315,0.09,911.1111111111111
-0.205,0.07,913.8888888888889
-0.125,-0.01,916.6666666666666
-0.085,-0.09,919.4444444444445
-0.05,-0.165,922.2222222222222
-0.035,-0.235,925.0
0.03,-0.325,927.7777777777778
0.14,-0.465,930.5555555555555
0.255,-0.61,933.3333333333334
0.315,-0.745,936.1111111111111
0.37,-0.84,938.8888888888889
0.395,-0.875,941.6666666666666
0.4,-0.885,944.4444444444445
0.39,-0.885,947.2222222222222
0.395,-0.87,950.0
0.365,-0.845,952.7777777777778
0.345,-0.81,955.5555555555555
0.29,-0.755,958.3333333333334
0.22,-0.695,961.1111111111111
0.19,-0.63,963.8888888888889
0.17,-0.575,966.6666666666666
0.105,-0.525,969.4444444444445
0.02,-0.48,972.2222222222222
-0.065,-0.44,975.0
-0.17,-0.38,977.7777777777778
-0.305,-0.345,980.5555555555555
-0.415,-0.31,983.3333333333334
-0.555,-0.285,986.1111111111111
-0.665,-0.28,988.8888888888889
-0.75,-0.245,991.6666666666666
-0.805,-0.21,994.4444444444445
-0.845,-0.185,997.2222222222222
-0.885,-0.16,1000.0
-0.91,-0.15,1002.7777777777778
-0.905,-0.15,1005.5555555555555
-0.91,-0.12,1008.3333333333334
-0.925,-0.085,1011.1111111111111
-0.905,-0.045,1013.8888888888889
-0.88,-0.025,1016.6666666666666
-0.85,-0.01,1019.4444444444445
-0.84,-0.005,1022.2222222222222
-0.83,0.0,1025.0
-0.83,0.035,1027.7777777777778
-0.81,0.055,1030.5555555555557
-0.77,0.06,1033.3333333333333
-0.76,0.06,1036.111111111111
-0.745,0.07,1038.888888888889
-0.73,0.07,1041.6666666666667
-0.71,0.085,1044.4444444444443
-0.71,0.09,1047.2222222222222
-0.68,0.1,1050.0
-0.69,0.11,1052.7777777777778
-0.69,0.09,1055.5555555555557
-0.695,0.09,1058.3333333333333
-0.695,0.095,1061.111111111111
-0.7,0.1,1063.888888888889
-0.69,0.1,1066.6666666666667
-0.695,0.1,1069.4444444444443
-0.71,0.095,1072.2222222222222
-0.705,0.09,1075.0
-0.715,0.095,1077.7777777777778
-0.715,0.12,1080.5555555555557
-0.71,0.11,1083.3333333333333
-0.72,0.115,1086.111111111111
-0.725,0.1,1088.888888888889
-0.735,0.11,1091.6666666666667
-0.735,0.11,1094.4444444444443
-0.715,0.12,1097.2222222222222
-0.71,0.135,1100.0
-0.72,0.145,1102.7777777777778
-0.735,0.12,1105.5555555555557
-0.75,0.13,1108.3333333333333
-0.755,0.125,1111.111111111111
-0.74,0.13,1113.888888888889
-0.72,0.14,1116.6666666666667
-0.73,0.15,1119.4444444444443
-0.735,0.12,1122.2222222222222
-0.735,0.13,1125.0
-0.74,0.13,1127.7777777777778
-0.73,0.145,1130.5555555555557
-0.7,0.135,1133.3333333333333
-0.71,0.14,1136.111111111111
-0.71,0.13,1138.888888888889
-0.715,0.125,1141.6666666666667
-0.72,0.135,1144.4444444444443
-0.695,0.155,1147.2222222222222
-0.675,0.155,1150.0
-0.665,0.155,1152.7777777777778
-0.655,0.135,1155.5555555555557
-0.665,0.115,1158.3333333333333
-0.66,0.11,1161.111111111111
-0.655,0.115,1163.888888888889
-0.625,0.13,1166.6666666666667
-0.605,0.125,1169.4444444444443
-0.605,0.125,1172.2222222222222
-0.605,0.12,1175.0
-0.605,0.11,1177.7777777777778
-0.59,0.115,1180.5555555555557
-0.555,0.12,1183.3333333333333
-0.535,0.105,1186.111111111111
-0.53,0.095,1188.888888888889
-0.525,0.085,1191.6666666666667
-0.53,0.07,1194.4444444444443
-0.505,0.095,1197.2222222222222
-0.47,0.075,1200.0
-0.455,0.075,1202.7777777777778
-0.46,0.045,1205.5555555555557
-0.455,0.035,1208.3333333333333
-0.45,0.04,1211.111111111111
-0.42,0.035,1213.888888888889
-0.4,0.035,1216.6666666666667
-0.4,0.035,1219.4444444444443
-0.39,0.015,1222.2222222222222
-0.39,-0.005,1225.0
-0.39,0.0,1227.7777777777778
-0.38,-0.005,1230.5555555555557
-0.37,-0.005,1233.3333333333333
-0.365,-0.02,1236.111111111111
-0.37,-0.06,1238.888888888889
-0.365,-0.055,1241.6666666666667
-0.355,-0.06,1244.4444444444443
-0.345,-0.055,1247.2222222222222
-0.315,-0.07,1250.0
-0.315,-0.08,1252.7777777777778
-0.32,-0.1,1255.5555555555557
-0.34,-0.105,1258.3333333333333
-0.345,-0.11,1261.111111111111
-0.34,-0.105,1263.888888888889
-0.315,-0.115,1266.6666666666667
-0.31,-0.115,1269.4444444444443
-0.295,-0.115,1272.2222222222222
-0.285,-0.13,1275.0
-0.27,-0.135,1277.7777777777778
-0.27,-0.135,1280.5555555555557
-0.295,-0.14,1283.3333333333333
-0.31,-0.135,1286.111111111111
-0.32,-0.14,1288.888888888889
-0.34,-0.135,1291.6666666666667
-0.36,-0.14,1294.4444444444443
-0.365,-0.14,1297.2222222222222
-0.36,-0.135,1300.0
-0.36,-0.135,1302.7777777777778
-0.355,-0.15,1305.5555555555557
-0.36,-0.145,1308.3333333333333
-0.36,-0.145,1311.111111111111
-0.335,-0.13,1313.888888888889
-0.31,-0.125,1316.6666666666667
-0.31,-0.14,1319.4444444444443
-0.295,-0.165,1322.2222222222222
-0.3,-0.165,1325.0
-0.29,-0.19,1327.7777777777778
-0.31,-0.175,1330.5555555555557
-0.335,-0.185,1333.3333333333333
-0.365,-0.18,1336.111111111111
-0.375,-0.18,1338.888888888889
-0.4,-0.16,1341.6666666666667
-0.4,-0.15,1344.4444444444443
-0.39,-0.125,1347.2222222222222
-0.37,-0.115,1350.0
-0.385,-0.11,1352.7777777777778
-0.375,-0.13,1355.5555555555557
-0.385,-0.14,1358.3333333333333
-0.39,-0.14,1361.111111111111
-0.385,-0.135,1363.888888888889
-0.375,-0.125,1366.6666666666667
-0.41,-0.135,1369.4444444444443
-0.455,-0.135,1372.2222222222222
-0.49,-0.11,1375.0
-0.535,-0.08,1377.7777777777778
-0.55,-0.05,1380.5555555555557
-0.57,-0.06,1383.3333333333333
-0.59,-0.06,1386.111111111111
-0.605,-0.095,1388.888888888889
-0.62,-0.12,1391.6666666666667
-0.62,-0.13,1394.4444444444443
-0.61,-0.13,1397.2222222222222
-0.595,-0.155,1400.0
-0.615,-0.155,1402.7777777777778
-0.61,-0.165,1405.5555555555557
-0.62,-0.18,1408.3333333333333
-0.615,-0.165,1411.111111111111
-0.62,-0.175,1413.888888888889
-0.615,-0.185,1416.6666666666667
-0.64,-0.175,1419.4444444444443
-0.655,-0.175,1422.2222222222222
-0.665,-0.185,1425.0
-0.665,-0.165,1427.7777777777778
-0.645,-0.15,1430.5555555555557
-0.63,-0.165,1433.3333333333333
-0.63,-0.185,1436.111111111111
-0.64,-0.19,1438.888888888889
-0.64,-0.19,1441.6666666666667
-0.635,-0.17,1444.4444444444443
-0.59,-0.145,1447.2222222222222
-0.57,-0.135,1450.0
-0.57,-0.16,1452.7777777777778
-0.59,-0.18,1455.5555555555557
-0.615,-0.205,1458.3333333333333
-0.625,-0.19,1461.111111111111
-0.625,-0.16,1463.888888888889
-0.63,-0.155,1466.6666666666667
-0.63,-0.155,1469.4444444444443
-0.605,-0.155,1472.2222222222222
-0.61,-0.155,1475.0
-0.605,-0.12,1477.7777777777778
-0.62,-0.085,1480.5555555555557
-0.61,-0.06,1483.3333333333333
-0.59,-0.04,1486.111111111111
-0.555,0.0,1488.888888888889
-0.54,0.005,1491.6666666666667
-0.54,0.01,1494.4444444444443
-0.575,-0.015,1497.2222222222222
-0.59,-0.055,1500.0
-0.62,-0.1,1502.7777777777778
-0.655,-0.155,1505.5555555555557
-0.665,-0.215,1508.3333333333333
-0.68,-0.235,1511.111111111111
-0.645,-0.25,1513.888888888889
-0.6,-0.255,1516.6666666666667
-0.62,-0.27,1519.4444444444443
-0.655,-0.25,1522.2222222222222
-0.72,-0.23,1525.0
-0.74,-0.17,1527.7777777777778
-0.74,-0.15,1530.5555555555557
-0.72,-0.14,1533.3333333333333
-0.665,-0.155,1536.111111111111
-0.575,-0.185,1538.888888888889
-0.445,-0.225,1541.6666666666667
-0.34,-0.26,1544.4444444444443
-0.23,-0.32,1547.2222222222222
-0.145,-0.385,1550.0
-0.095,-0.445,1552.7777777777778
-0.05,-0.5,1555.5555555555557
-0.005,-0.58,1558.3333333333333
0.075,-0.67,1561.111111111111
0.2,-0.8,1563.888888888889
0.305,-0.92,1566.6666666666667
0.41,-1.045,1569.4444444444443
0.5,-1.155,1572.2222222222222
0.56,-1.215,1575.0
0.59,-1.225,1577.7777777777778
0.585,-1.225,1580.5555555555557
0.585,-1.23,1583.3333333333333
0.555,-1.21,1586.111111111111
0.535,-1.18,1588.888888888889
0.48,-1.125,1591.6666666666667
0.385,-1.055,1594.4444444444443
0.31,-0.98,1597.2222222222222
0.225,-0.9,1600.0
0.16,-0.795,1602.7777777777778
0.085,-0.745,1605.5555555555557
0.035,-0.69,1608.3333333333333
-0.05,-0.635,1611.111111111111
-0.185,-0.53,1613.888888888889
-0.365,-0.455,1616.6666666666667
-0.575,-0.365,1619.4444444444443
-0.76,-0.32,1622.2222222222222
-0.905,-0.285,1625.0
-1.025,-0.255,1627.7777777777778
-1.11,-0.22,1630.5555555555557
-1.15,-0.26,1633.3333333333333
-1.19,-0.345,1636.111111111111
-1.205,-0.445,1638.888888888889
-1.2,-0.505,1641.6666666666667
-1.205,-0.515,1644.4444444444443
-1.18,-0.52,1647.2222222222222
-1.165,-0.505,1650.0
-1.15,-0.5,1652.7777777777778
-1.125,-0.505,1655.5555555555557
-1.14,-0.47,1658.3333333333333
-1.155,-0.405,1661.111111111111
-1.165,-0.325,1663.888888888889
-1.155,-0.28,1666.6666666666667
-1.13,-0.255,1669.4444444444443
-1.095,-0.26,1672.2222222222222
-1.06,-0.25,1675.0
-1.01,-0.23,1677.7777777777778
-0.98,-0.195,1680.5555555555557
-0.965,-0.175,1683.3333333333333
-0.975,-0.165,1686.111111111111
-0.98,-0.155,1688.888888888889
-0.995,-0.16,1691.6666666666667
-0.99,-0.145,1694.4444444444443
-0.985,-0.145,1697.2222222222222
-0.975,-0.145,1700.0
-0.98,-0.15,1702.7777777777778
-0.96,-0.18,1705.5555555555557
-0.925,-0.175,1708.3333333333333
-0.915,-0.18,1711.111111111111
-0.91,-0.15,1713.888888888889
-0.935,-0.16,1716.6666666666667
-0.985,-0.155,1719.4444444444443
-1.005,-0.165,1722.2222222222222
-1.03,-0.15,1725.0
-1.055,-0.14,1727.7777777777778
-1.06,-0.15,1730.5555555555557
-1.07,-0.13,1733.3333333333333
-1.075,-0.125,1736.111111111111
-1.08,-0.105,1738.888888888889
-1.085,-0.105,1741.6666666666667
-1.08,-0.085,1744.4444444444443
-1.055,-0.075,1747.2222222222222
-1.04,-0.05,1750.0
-1.04,-0.05,1752.7777777777778
-1.025,-0.075,1755.5555555555557
-1.035,-0.08,1758.3333333333333
-1.04,-0.055,1761.111111111111
-1.03,-0.02,1763.888888888889
-1.025,-0.015,1766.6666666666667
-1.01,-0.02,1769.4444444444443
-1.01,-0.08,1772.2222222222222
-1.01,-0.135,1775.0
-1.01,-0.145,1777.7777777777778
-0.995,-0.115,1780.5555555555557
-0.98,-0.04,1783.3333333333333
-0.995,0.045,1786.111111111111
-1.005,0.1,1788.888888888889
-1.015,0.09,1791.6666666666667
-1.0,0.06,1794.4444444444443
-0.95,-0.015,1797.2222222222222
-0.915,-0.095,1800.0
-0.875,-0.175,1802.7777777777778
-0.885,-0.235,1805.5555555555557
-0.935,-0.26,1808.3333333333333
-0.96,-0.265,1811.111111111111
-0.955,-0.255,1813.888888888889
-0.925,-0.23,1816.6666666666667
-0.875,-0.205,1819.4444444444443
-0.835,-0.2,1822.2222222222222
-0.835,-0.19,1825.0
-0.855,-0.16,1827.7777777777778
-0.865,-0.155,1830.5555555555557
-0.88,-0.14,1833.3333333333333
-0.88,-0.15,1836.111111111111
-0.87,-0.16,1838.888888888889
-0.835,-0.18,1841.6666666666667
-0.815,-0.165,1844.4444444444443
-0.8,-0.155,1847.2222222222222
-0.78,-0.145,1850.0
-0.76,-0.14,1852.7777777777778
-0.74,-0.18,1855.5555555555557
-0.72,-0.2,1858.3333333333333
-0.72,-0.2,1861.111111111111
-0.71,-0.19,1863.888888888889
-0.69,-0.19,1866.6666666666667
-0.685,-0.225,1869.4444444444443
-0.675,-0.24,1872.2222222222222
-0.685,-0.235,1875.0
-0.635,-0.21,1877.7777777777778
-0.6,-0.195,1880.5555555555557
-0.565,-0.205,1883.3333333333333
-0.57,-0.22,1886.111111111111
-0.595,-0.22,1888.888888888889
-0.605,-0.225,1891.6666666666667
-0.59,-0.25,1894.4444444444443
-0.555,-0.26,1897.2222222222222
-0.545,-0.265,1900.0
-0.555,-0.27,1902.7777777777778
-0.56,-0.29,1905.5555555555557
-0.565,-0.31,1908.3333333333333
-0.58,-0.315,1911.111111111111
-0.57,-0.3,1913.888888888889
-0.55,-0.265,1916.6666666666667
-0.515,-0.25,1919.4444444444443
-0.465,-0.24,1922.2222222222222
-0.46,-0.275,1925.0
-0.465,-0.315,1927.7777777777778
-0.495,-0.365,1930.5555555555557
-0.545,-0.41,1933.3333333333333
-0.58,-0.41,1936.111111111111
-0.57,-0.415,1938.888888888889
-0.565,-0.415,1941.6666666666667
-0.55,-0.385,1944.4444444444443
-0.51,-0.36,1947.2222222222222
-0.5,-0.345,1950.0
-0.515,-0.34,1952.7777777777778
-0.58,-0.355,1955.5555555555557
-0.615,-0.39,1958.3333333333333
-0.605,-0.41,1961.111111111111
-0.56,-0.4,1963.888888888889
-0.54,-0.385,1966.6666666666667
-0.55,-0.37,1969.4444444444443
-0.6,-0.37,1972.2222222222222
-0.64,-0.375,1975.0
-0.66,-0.38,1977.7777777777778
-0.64,-0.37,1980.5555555555557
-0.605,-0.355,1983.3333333333333
-0.595,-0.35,1986.111111111111
-0.575,-0.34,1988.888888888889
-0.58,-0.34,1991.6666666666667
-0.615,-0.335,1994.4444444444443
-0.63,-0.32,1997.2222222222222
-0.625,-0.35,2000.0
-0.61,-0.36,2002.7777777777778
-0.6,-0.385,2005.5555555555557
-0.61,-0.375,2008.3333333333333
-0.63,-0.33,2011.111111111111
-0.62,-0.26,2013.888888888889
-0.61,-0.21,2016.6666666666667
-0.615,-0.2,2019.4444444444443
-0.635,-0.23,2022.2222222222222
-0.665,-0.305,2025.0
-0.705,-0.325,2027.7777777777778
-0.735,-0.345,2030.5555555555557
-0.765,-0.355,2033.3333333333333
-0.81,-0.365,2036.111111111111
-0.815,-0.35,2038.888888888889
-0.815,-0.325,2041.6666666666667
-0.805,-0.27,2044.4444444444443
-0.795,-0.25,2047.2222222222222
-0.815,-0.3,2050.0
-0.86,-0.365,2052.777777777778
-0.885,-0.42,2055.5555555555557
-0.885,-0.425,2058.3333333333335
-0.855,-0.41,2061.1111111111113
-0.83,-0.395,2063.8888888888887
-0.82,-0.375,2066.6666666666665
-0.845,-0.385,2069.4444444444443
-0.87,-0.41,2072.222222222222
-0.845,-0.43,2075.0
-0.82,-0.42,2077.777777777778
-0.805,-0.395,2080.5555555555557
-0.82,-0.38,2083.3333333333335
-0.84,-0.385,2086.1111111111113
-0.865,-0.395,2088.8888888888887
-0.855,-0.4,2091.6666666666665
-0.86,-0.395,2094.4444444444443
-0.85,-0.38,2097.222222222222
-0.8,-0.38,2100.0
-0.775,-0.385,2102.777777777778
-0.77,-0.4,2105.5555555555557
-0.795,-0.405,2108.3333333333335
-0.845,-0.405,2111.1111111111113
-0.87,-0.405,2113.8888888888887
-0.87,-0.425,2116.6666666666665
-0.875,-0.455,2119.4444444444443
-0.89,-0.495,2122.222222222222
-0.915,-0.46,2125.0
-0.915,-0.425,2127.777777777778
-0.89,-0.36,2130.5555555555557
-0.85,-0.32,2133.3333333333335
-0.84,-0.31,2136.1111111111113
-0.855,-0.335,2138.8888888888887
-0.88,-0.365,2141.6666666666665
-0.895,-0.37,2144.4444444444443
-0.9,-0.35,2147.222222222222
-0.865,-0.32,2150.0
-0.85,-0.315,2152.777777777778
-0.855,-0.345,2155.5555555555557
-0.86,-0.365,2158.3333333333335
-0.895,-0.365,2161.1111111111113
-0.91,-0.345,2163.8888888888887
-0.885,-0.32,2166.6666666666665
-0.85,-0.33,2169.4444444444443
-0.83,-0.35,2172.222222222222
-0.84,-0.385,2175.0
-0.85,-0.405,2177.777777777778
-0.86,-0.375,2180.5555555555557
-0.87,-0.365,2183.3333333333335
-0.9,-0.345,2186.1111111111113
-0.93,-0.335,2188.8888888888887
-0.965,-0.345,2191.6666666666665
-0.93,-0.34,2194.4444444444443
-0.83,-0.34,2197.222222222222
-0.655,-0.39,2200.0
-0.48,-0.44,2202.777777777778
-0.36,-0.495,2205.5555555555557
-0.295,-0.575,2208.3333333333335
-0.23,-0.665,2211.1111111111113
-0.2,-0.715,2213.8888888888887
-0.18,-0.78,2216.6666666666665
-0.145,-0.87,2219.4444444444443
-0.08,-0.965,2222.222222222222
-0.025,-1.08,2225.0
0.06,-1.225,2227.777777777778
0.145,-1.34,2230.5555555555557
0.205,-1.435,2233.3333333333335
0.21,-1.495,2236.1111111111113
0.185,-1.525,2238.8888888888887
0.14,-1.505,2241.6666666666665
0.1,-1.48,2244.4444444444443
0.075,-1.44,2247.222222222222
0.05,-1.4,2250.0
-0.015,-1.37,2252.777777777778
-0.095,-1.325,2255.5555555555557
-0.175,-1.275,2258.3333333333335
-0.24,-1.21,2261.1111111111113
-0.295,-1.16,2263.8888888888887
-0.355,-1.115,2266.6666666666665
-0.45,-1.1,2269.4444444444443
-0.545,-1.04,2272.222222222222
-0.67,-0.975,2275.0
-0.84,-0.9,2277.777777777778
-0.995,-0.845,2280.5555555555557
-1.13,-0.805,2283.3333333333335
-1.24,-0.77,2286.1111111111113
-1.345,-0.755,2288.8888888888887
-1.46,-0.735,2291.6666666666665
-1.525,-0.675,2294.4444444444443
-1.555,-0.63,2297.222222222222
-1.575,-0.605,2300.0
-1.58,-0.6,2302.777777777778
-1.565,-0.6,2305.5555555555557
-1.545,-0.575,2308.3333333333335
-1.505,-0.545,2311.1111111111113
-1.495,-0.505,2313.8888888888887
-1.465,-0.49,2316.6666666666665
-1.47,-0.485,2319.4444444444443
-1.45,-0.485,2322.222222222222
-1.43,-0.465,2325.0
-1.405,-0.425,2327.777777777778
-1.375,-0.4,2330.5555555555557
-1.325,-0.38,2333.3333333333335
-1.3,-0.37,2336.1111111111113
-1.3,-0.365,2338.8888888888887
-1.295,-0.365,2341.6666666666665
-1.27,-0.35,2344.4444444444443
-1.24,-0.335,2347.222222222222
-1.205,-0.305,2350.0
-1.19,-0.31,2352.777777777778
-1.16,-0.31,2355.5555555555557
-1.155,-0.315,2358.3333333333335
-1.145,-0.305,2361.1111111111113
-1.13,-0.28,2363.8888888888887
-1.1,-0.28,2366.6666666666665
-1.105,-0.285,2369.4444444444443
-1.115,-0.295,2372.222222222222
-1.12,-0.295,2375.0
-1.12,-0.295,2377.777777777778
-1.11,-0.275,2380.5555555555557
-1.1,-0.265,2383.3333333333335
-1.1,-0.275,2386.1111111111113
-1.12,-0.29,2388.8888888888887
-1.115,-0.295,2391.6666666666665
-1.11,-0.265,2394.4444444444443
-1.1,-0.245,2397.222222222222
-1.095,-0.235,2400.0
-1.095,-0.24,2402.777777777778
-1.095,-0.26,2405.5555555555557
-1.1,-0.26,2408.3333333333335
-1.095,-0.24,2411.1111111111113
-1.1,-0.235,2413.8888888888887
-1.095,-0.245,2416.6666666666665
-1.11,-0.235,2419.4444444444443
-1.11,-0.24,2422.222222222222
-1.11,-0.245,2425.0
-1.1,-0.245,2427.777777777778
-1.09,-0.225,2430.5555555555557
-1.08,-0.225,2433.3333333333335
-1.085,-0.235,2436.1111111111113
-1.09,-0.24,2438.8888888888887
-1.09,-0.235,2441.6666666666665
-1.085,-0.225,2444.4444444444443
-1.07,-0.225,2447.222222222222
-1.06,-0.215,2450.0
-1.065,-0.2,2452.777777777778
-1.07,-0.21,2455.5555555555557
-1.07,-0.22,2458.3333333333335
-1.07,-0.205,2461.1111111111113
-1.045,-0.205,2463.8888888888887
-1.02,-0.21,2466.6666666666665
-1.02,-0.215,2469.4444444444443
-1.03,-0.205,2472.222222222222
-1.02,-0.215,2475.0
-1.03,-0.21,2477.777777777778
-0.99,-0.205,2480.5555555555557
-0.965,-0.21,2483.3333333333335
-0.96,-0.2,2486.1111111111113
-0.965,-0.21,2488.8888888888887
-0.955,-0.235,2491.6666666666665
-0.96,-0.215,2494.4444444444443
-0.93,-0.21,2497.222222222222
-0.9,-0.21,2500.0
-0.905,-0.215,2502.777777777778
-0.89,-0.22,2505.5555555555557
-0.885,-0.24,2508.3333333333335
-0.865,-0.235,2511.1111111111113
-0.855,-0.205,2513.8888888888887
-0.835,-0.22,2516.6666666666665
-0.825,-0.22,2519.4444444444443
-0.82,-0.23,2522.222222222222
-0.815,-0.24,2525.0
-0.805,-0.245,2527.777777777778
-0.79,-0.24,2530.5555555555557
-0.76,-0.245,2533.3333333333335
-0.755,-0.245,2536.1111111111113
-0.735,-0.26,2538.8888888888887
-0.74,-0.28,2541.6666666666665
-0.725,-0.275,2544.4444444444443
-0.72,-0.27,2547.222222222222
-0.7,-0.265,2550.0
-0.69,-0.28,2552.777777777778
-0.675,-0.29,2555.5555555555557
-0.675,-0.3,2558.3333333333335
-0.675,-0.31,2561.1111111111113
-0.655,-0.305,2563.8888888888887
-0.635,-0.33,2566.6666666666665
-0.635,-0.315,2569.4444444444443
-0.64,-0.33,2572.222222222222
-0.645,-0.33,2575.0
-0.64,-0.335,2577.777777777778
-0.625,-0.33,2580.5555555555557
-0.615,-0.325,2583.3333333333335
-0.6,-0.345,2586.1111111111113
-0.61,-0.355,2588.8888888888887
-0.61,-0.36,2591.6666666666665
-0.6,-0.345,2594.4444444444443
-0.575,-0.35,2597.222222222222
-0.57,-0.355,2600.0
-0.575,-0.36,2602.777777777778
-0.57,-0.37,2605.5555555555557
-0.575,-0.385,2608.3333333333335
-0.565,-0.375,2611.1111111111113
-0.555,-0.375,2613.8888888888887
-0.56,-0.38,2616.6666666666665
-0.56,-0.39,2619.4444444444443
-0.55,-0.405,2622.222222222222
-0.575,-0.43,2625.0
-0.585,-0.43,2627.777777777778
-0.595,-0.42,2630.5555555555557
-0.61,-0.44,2633.3333333333335
-0.6,-0.435,2636.1111111111113
-0.6,-0.455,2638.8888888888887
-0.59,-0.46,2641.6666666666665
-0.58,-0.435,2644.4444444444443
-0.57,-0.435,2647.222222222222
-0.55,-0.435,2650.0
-0.545,-0.445,2652.777777777778
-0.55,-0.46,2655.5555555555557
-0.565,-0.475,2658.3333333333335
-0.57,-0.45,2661.1111111111113
-0.555,-0.44,2663.8888888888887
-0.54,-0.435,2666.6666666666665
-0.555,-0.445,2669.4444444444443
-0.575,-0.435,2672.222222222222
-0.585,-0.445,2675.0
-0.585,-0.44,2677.777777777778
-0.585,-0.44,2680.5555555555557
-0.57,-0.445,2683.3333333333335
-0.56,-0.45,2686.1111111111113
-0.565,-0.47,2688.8888888888887
-0.58,-0.455,2691.6666666666665
-0.59,-0.455,2694.4444444444443
-0.6,-0.45,2697.222222222222
-0.615,-0.445,2700.0
-0.65,-0.475,2702.777777777778
-0.695,-0.5,2705.5555555555557
-0.735,-0.535,2708.3333333333335
-0.77,-0.55,2711.1111111111113
-0.785,-0.545,2713.8888888888887
-0.79,-0.505,2716.6666666666665
-0.82,-0.46,2719.4444444444443
-0.84,-0.41,2722.222222222222
-0.86,-0.41,2725.0
-0.865,-0.39,2727.777777777778
-0.87,-0.37,2730.5555555555557
-0.88,-0.35,2733.3333333333335
-0.87,-0.34,2736.1111111111113
-0.88,-0.34,2738.8888888888887
-0.885,-0.34,2741.6666666666665
-0.89,-0.34,2744.4444444444443
-0.865,-0.33,2747.222222222222
-0.855,-0.35,2750.0
-0.87,-0.37,2752.777777777778
-0.87,-0.37,2755.5555555555557
-0.87,-0.395,2758.3333333333335
-0.87,-0.39,2761.1111111111113
-0.865,-0.385,2763.8888888888887
-0.855,-0.375,2766.6666666666665
-0.85,-0.37,2769.4444444444443
-0.86,-0.39,2772.222222222222
-0.85,-0.39,2775.0
-0.845,-0.375,2777.777777777778
-0.83,-0.385,2780.5555555555557
-0.84,-0.38,2783.3333333333335
-0.835,-0.38,2786.1111111111113
-0.835,-0.39,2788.8888888888887
-0.83,-0.365,2791.6666666666665
-0.825,-0.365,2794.4444444444443
-0.815,-0.36,2797.222222222222
-0.815,-0.37,2800.0
-0.815,-0.38,2802.777777777778
-0.83,-0.385,2805.5555555555557
-0.815,-0.365,2808.3333333333335
-0.825,-0.35,2811.1111111111113
-0.8,-0.35,2813.8888888888887
-0.795,-0.36,2816.6666666666665
-0.815,-0.36,2819.4444444444443
-0.82,-0.365,2822.222222222222
-0.81,-0.34,2825.0
-0.8,-0.325,2827.777777777778
-0.79,-0.33,2830.5555555555557
-0.795,-0.33,2833.3333333333335
-0.805,-0.335,2836.1111111111113
-0.8,-0.33,2838.8888888888887
-0.8,-0.3,2841.6666666666665
-0.81,-0.285,2844.4444444444443
-0.815,-0.26,2847.222222222222
-0.815,-0.235,2850.0
-0.83,-0.22,2852.777777777778
-0.845,-0.215,2855.5555555555557
-0.83,-0.2,2858.3333333333335
-0.78,-0.195,2861.1111111111113
-0.675,-0.22,2863.8888888888887
-0.58,-0.27,2866.6666666666665
-0.485,-0.34,2869.4444444444443
-0.4,-0.41,2872.222222222222
-0.35,-0.48,2875.0
-0.33,-0.545,2877.777777777778
-0.295,-0.595,2880.5555555555557
-0.25,-0.7,2883.3333333333335
-0.155,-0.83,2886.1111111111113
-0.07,-0.995,2888.8888888888887
-0.01,-1.135,2891.6666666666665
0.08,-1.24,2894.4444444444443
0.135,-1.3,2897.222222222222
0.145,-1.33,2900.0
0.13,-1.345,2902.777777777778
0.125,-1.33,2905.5555555555557
0.115,-1.305,2908.3333333333335
0.115,-1.25,2911.1111111111113
0.1,-1.19,2913.8888888888887
0.045,-1.12,2916.6666666666665
-0.01,-1.08,2919.4444444444443
-0.085,-1.04,2922.222222222222
-0.13,-0.97,2925.0
-0.16,-0.905,2927.777777777778
-0.21,-0.885,2930.5555555555557
-0.275,-0.84,2933.3333333333335
-0.385,-0.835,2936.1111111111113
-0.495,-0.835,2938.8888888888887
-0.63,-0.805,2941.6666666666665
-0.75,-0.715,2944.4444444444443
-0.86,-0.6,2947.222222222222
-1.01,-0.495,2950.0
-1.115,-0.45,2952.777777777778
-1.19,-0.415,2955.5555555555557
-1.23,-0.385,2958.3333333333335
-1.23,-0.36,2961.1111111111113
-1.24,-0.34,2963.8888888888887
-1.24,-0.315,2966.6666666666665
-1.245,-0.29,2969.4444444444443
-1.235,-0.27,2972.222222222222
-1.24,-0.24,2975.0
-1.24,-0.205,2977.777777777778
-1.22,-0.19,2980.5555555555557
-1.195,-0.185,2983.3333333333335
-1.17,-0.155,2986.1111111111113
-1.14,-0.12,2988.8888888888887
-1.125,-0.075,2991.6666666666665
-1.1,-0.035,2994.4444444444443
-1.075,0.0,2997.222222222222
-1.045,0.025,3000.0
-1.04,0.03,3002.777777777778
-1.03,0.045,3005.5555555555557
-1.0,0.075,3008.3333333333335
-0.95,0.095,3011.1111111111113
-0.925,0.115,3013.8888888888887
-0.92,0.13,3016.6666666666665
-0.915,0.135,3019.4444444444443
-0.91,0.125,3022.222222222222
-0.905,0.11,3025.0
-0.895,0.13,3027.777777777778
-0.885,0.165,3030.5555555555557
-0.87,0.18,3033.3333333333335
-0.88,0.215,3036.1111111111113
-0.91,0.225,3038.8888888888887
-0.91,0.235,3041.6666666666665
-0.895,0.24,3044.4444444444443
-0.875,0.255,3047.222222222222
-0.89,0.24,3050.0
-0.885,0.25,3052.777777777778
-0.89,0.245,3055.5555555555557
-0.89,0.255,3058.3333333333335
-0.87,0.265,3061.1111111111113
-0.86,0.275,3063.8888888888887
-0.89,0.275,3066.6666666666665
-0.89,0.3,3069.4444444444443
-0.915,0.315,3072.222222222222
-0.89,0.34,3075.0
-0.87,0.385,3077.777777777778
-0.87,0.38,3080.5555555555557
-0.86,0.39,3083.3333333333335
-0.885,0.365,3086.1111111111113
-0.875,0.375,3088.8888888888887
-0.885,0.4,3091.6666666666665
-0.88,0.435,3094.4444444444443
-0.86,0.45,3097.222222222222
-0.855,0.455,3100.0
-0.865,0.44,3102.777777777778
-0.87,0.44,3105.5555555555557
-0.875,0.48,3108.3333333333335
-0.86,0.525,3111.1111111111113
-0.84,0.55,3113.8888888888887
-0.84,0.56,3116.6666666666665
-0.82,0.535,3119.4444444444443
-0.85,0.54,3122.222222222222
-0.84,0.55,3125.0
-0.82,0.55,3127.777777777778
-0.81,0.56,3130.5555555555557
-0.82,0.565,3133.3333333333335
-0.8,0.555,3136.1111111111113
-0.79,0.55,3138.8888888888887
-0.765,0.565,3141.6666666666665
-0.755,0.585,3144.4444444444443
-0.73,0.6,3147.222222222222
-0.73,0.605,3150.0
-0.725,0.595,3152.777777777778
-0.735,0.605,3155.5555555555557
-0.715,0.615,3158.3333333333335
-0.7,0.635,3161.1111111111113
-0.68,0.63,3163.8888888888887
-0.675,0.625,3166.6666666666665
-0.68,0.62,3169.4444444444443
-0.675,0.62,3172.222222222222
-0.67,0.62,3175.0
-0.65,0.65,3177.777777777778
-0.62,0.66,3180.5555555555557
-0.6,0.665,3183.3333333333335
-0.61,0.64,3186.1111111111113
-0.59,0.64,3188.8888888888887
-0.585,0.655,3191.6666666666665
-0.58,0.68,3194.4444444444443
-0.54,0.67,3197.222222222222
-0.53,0.665,3200.0
-0.535,0.66,3202.777777777778
-0.535,0.65,3205.5555555555557
-0.525,0.66,3208.3333333333335
-0.51,0.675,3211.1111111111113
-0.49,0.675,3213.8888888888887
-0.47,0.655,3216.6666666666665
-0.465,0.645,3219.4444444444443
-0.465,0.65,3222.222222222222
-0.47,0.645,3225.0
-0.45,0.665,3227.777777777778
-0.42,0.66,3230.5555555555557
-0.42,0.66,3233.3333333333335
-0.43,0.65,3236.1111111111113
-0.44,0.65,3238.8888888888887
-0.44,0.665,3241.6666666666665
-0.425,0.67,3244.4444444444443
-0.405,0.675,3247.222222222222
-0.41,0.67,3250.0
-0.41,0.665,3252.777777777778
-0.4,0.67,3255.5555555555557
-0.39,0.685,3258.3333333333335
-0.38,0.695,3261.1111111111113
-0.385,0.69,3263.8888888888887
-0.375,0.7,3266.6666666666665
-0.385,0.69,3269.4444444444443
-0.38,0.715,3272.222222222222
-0.35,0.71,3275.0
-0.355,0.74,3277.777777777778
-0.35,0.75,3280.5555555555557
-0.375,0.73,3283.3333333333335
-0.385,0.715,3286.1111111111113
-0.405,0.71,3288.8888888888887
-0.41,0.715,3291.6666666666665
-0.39,0.72,3294.4444444444443
-0.37,0.725,3297.222222222222
-0.37,0.735,3300.0
-0.38,0.715,3302.777777777778
-0.39,0.705,3305.5555555555557
-0.375,0.71,3308.3333333333335
-0.36,0.73,3311.1111111111113
-0.36,0.73,3313.8888888888887
-0.36,0.735,3316.6666666666665
-0.38,0.735,3319.4444444444443
-0.38,0.745,3322.222222222222
-0.375,0.76,3325.0
-0.38,0.78,3327.777777777778
-0.365,0.785,3330.5555555555557
-0.395,0.81,3333.3333333333335
-0.385,0.8,3336.1111111111113
-0.39,0.79,3338.8888888888887
-0.415,0.81,3341.6666666666665
-0.39,0.815,3344.4444444444443
-0.37,0.83,3347.222222222222
-0.36,0.83,3350.0
-0.365,0.825,3352.777777777778
-0.39,0.835,3355.5555555555557
-0.42,0.845,3358.3333333333335
-0.435,0.87,3361.1111111111113
-0.45,0.85,3363.8888888888887
-0.485,0.845,3366.6666666666665
-0.51,0.835,3369.4444444444443
-0.545,0.865,3372.222222222222
-0.58,0.89,3375.0
-0.595,0.925,3377.777777777778
-0.605,0.945,3380.5555555555557
-0.615,0.945,3383.3333333333335
-0.62,0.93,3386.1111111111113
-0.64,0.93,3388.8888888888887
-0.64,0.945,3391.6666666666665
-0.63,0.945,3394.4444444444443
-0.635,0.95,3397.222222222222
-0.65,0.955,3400.0
-0.66,0.95,3402.777777777778
-0.68,0.935,3405.5555555555557
-0.675,0.96,3408.3333333333335
-0.67,0.945,3411.1111111111113
-0.665,0.945,3413.8888888888887
-0.655,0.945,3416.6666666666665
-0.66,0.935,3419.4444444444443
-0.68,0.94,3422.222222222222
-0.695,0.945,3425.0
-0.685,0.96,3427.777777777778
-0.685,0.955,3430.5555555555557
-0.69,0.96,3433.3333333333335
-0.675,0.955,3436.1111111111113
-0.685,0.96,3438.8888888888887
-0.685,0.96,3441.6666666666665
-0.685,0.97,3444.4444444444443
-0.67,0.965,3447.222222222222
-0.665,0.955,3450.0
-0.66,0.95,3452.777777777778
-0.68,0.94,3455.5555555555557
-0.685,0.955,3458.3333333333335
-0.68,0.97,3461.1111111111113
-0.665,0.96,3463.8888888888887
-0.66,0.945,3466.6666666666665
-0.68,0.95,3469.4444444444443
-0.695,0.97,3472.222222222222
-0.685,0.99,3475.0
-0.665,1.015,3477.777777777778
-0.65,1.01,3480.5555555555557
-0.65,0.99,3483.3333333333335
-0.655,0.975,3486.1111111111113
-0.665,0.98,3488.8888888888887
-0.665,0.97,3491.6666666666665
-0.655,0.99,3494.4444444444443
-0.64,0.985,3497.222222222222
-0.64,0.985,3500.0
-0.65,0.995,3502.777777777778
-0.665,0.995,3505.5555555555557
-0.65,1.025,3508.3333333333335
-0.65,1.045,3511.1111111111113
-0.67,1.055,3513.8888888888887
-0.685,1.085,3516.6666666666665
-0.715,1.105,3519.4444444444443
-0.705,1.11,3522.222222222222
-0.675,1.125,3525.0
-0.595,1.115,3527.777777777778
-0.49,1.08,3530.5555555555557
-0.385,1.02,3533.3333333333335
-0.285,0.96,3536.1111111111113
-0.205,0.88,3538.8888888888887
-0.175,0.79,3541.6666666666665
-0.14,0.75,3544.4444444444443
-0.075,0.675,3547.222222222222
0.02,0.545,3550.0
0.105,0.365,3552.777777777778
0.19,0.21,3555.5555555555557
0.26,0.075,3558.3333333333335
0.32,0.0,3561.1111111111113
0.375,-0.035,3563.8888888888887
0.38,-0.04,3566.6666666666665
0.36,-0.035,3569.4444444444443
0.35,-0.045,3572.222222222222
0.325,-0.01,3575.0
0.315,0.04,3577.777777777778
0.3,0.08,3580.5555555555557
0.23,0.135,3583.3333333333335
0.145,0.18,3586.1111111111113
0.055,0.235,3588.8888888888887
-0.005,0.29,3591.6666666666665
-0.055,0.35,3594.4444444444443
-0.145,0.405,3597.222222222222
-0.25,0.46,3600.0
-0.41,0.505,3602.777777777778
-0.555,0.56,3605.5555555555557
-0.7,0.6,3608.3333333333335
-0.815,0.64,3611.1111111111113
-0.925,0.655,3613.8888888888887
-1.01,0.69,3616.6666666666665
-1.08,0.71,3619.4444444444443
-1.125,0.735,3622.222222222222
-1.155,0.76,3625.0
-1.16,0.785,3627.777777777778
-1.16,0.8,3630.5555555555557
-1.155,0.83,3633.3333333333335
-1.155,0.835,3636.1111111111113
-1.165,0.845,3638.8888888888887
-1.135,0.89,3641.6666666666665
-1.1,0.915,3644.4444444444443
-1.055,0.93,3647.222222222222
-1.035,0.955,3650.0
-1.015,0.97,3652.777777777778
-1.01,0.965,3655.5555555555557
-0.985,0.995,3658.3333333333335
-0.96,1.02,3661.1111111111113
-0.935,1.025,3663.8888888888887
-0.9,1.025,3666.6666666666665
-0.895,1.035,3669.4444444444443
-0.91,1.045,3672.222222222222
-0.88,1.065,3675.0
-0.865,1.07,3677.777777777778
-0.825,1.065,3680.5555555555557
-0.815,1.06,3683.3333333333335
-0.81,1.05,3686.1111111111113
-0.815,1.05,3688.8888888888887
-0.82,1.045,3691.6666666666665
-0.825,1.06,3694.4444444444443
-0.81,1.05,3697.222222222222
-0.82,1.04,3700.0
-0.825,1.035,3702.777777777778
-0.825,1.04,3705.5555555555557
-0.815,1.045,3708.3333333333335
-0.82,1.04,3711.1111111111113
-0.81,1.05,3713.8888888888887
-0.81,1.04,3716.6666666666665
-0.815,1.045,3719.4444444444443
-0.83,1.03,3722.222222222222
-0.82,1.05,3725.0
-0.81,1.03,3727.777777777778
-0.805,1.04,3730.5555555555557
-0.805,1.04,3733.3333333333335
-0.815,1.02,3736.1111111111113
-0.825,1.015,3738.8888888888887
-0.835,1.03,3741.6666666666665
-0.82,1.035,3744.4444444444443
-0.795,1.03,3747.222222222222
-0.795,1.03,3750.0
-0.805,1.02,3752.777777777778
-0.805,1.005,3755.5555555555557
-0.815,1.005,3758.3333333333335
-0.795,1.015,3761.1111111111113
-0.8,1.01,3763.8888888888887
-0.785,1.005,3766.6666666666665
-0.78,0.985,3769.4444444444443
-0.79,0.985,3772.222222222222
-0.78,0.985,3775.0
-0.77,0.995,3777.777777777778
-0.75,0.99,3780.5555555555557
-0.75,0.985,3783.3333333333335
-0.755,0.955,3786.1111111111113
-0.745,0.94,3788.8888888888887
-0.72,0.95,3791.6666666666665
-0.69,0.95,3794.4444444444443
-0.69,0.935,3797.222222222222
-0.68,0.93,3800.0
-0.685,0.91,3802.777777777778
-0.685,0.88,3805.5555555555557
-0.665,0.9,3808.3333333333335
-0.64,0.9,3811.1111111111113
-0.615,0.89,3813.8888888888887
-0.605,0.875,3816.6666666666665
-0.61,0.86,3819.4444444444443
-0.61,0.845,3822.222222222222
-0.595,0.835,3825.0
-0.595,0.825,3827.777777777778
-0.575,0.825,3830.5555555555557
-0.545,0.815,3833.3333333333335
-0.535,0.805,3836.1111111111113
-0.545,0.78,3838.8888888888887
-0.515,0.785,3841.6666666666665
-0.5,0.79,3844.4444444444443
-0.49,0.78,3847.222222222222
-0.475,0.755,3850.0
-0.46,0.725,3852.777777777778
-0.46,0.705,3855.5555555555557
-0.45,0.705,3858.3333333333335
-0.435,0.71,3861.1111111111113
-0.42,0.685,3863.8888888888887
-0.42,0.67,3866.6666666666665
-0.425,0.665,3869.4444444444443
-0.4,0.645,3872.222222222222
-0.405,0.635,3875.0
-0.4,0.63,3877.777777777778
-0.375,0.605,3880.5555555555557
-0.37,0.59,3883.3333333333335
-0.38,0.575,3886.1111111111113
-0.385,0.555,3888.8888888888887
-0.36,0.555,3891.6666666666665
-0.365,0.545,3894.4444444444443
-0.335,0.53,3897.222222222222
-0.34,0.515,3900.0
-0.33,0.48,3902.777777777778
-0.335,0.48,3905.5555555555557
-0.335,0.485,3908.3333333333335
-0.31,0.48,3911.1111111111113
-0.315,0.47,3913.8888888888887
-0.305,0.465,3916.6666666666665
-0.32,0.425,3919.4444444444443
-0.335,0.42,3922.222222222222
-0.33,0.435,3925.0
-0.31,0.425,3927.777777777778
-0.3,0.405,3930.5555555555557
-0.315,0.38,3933.3333333333335
-0.33,0.36,3936.1111111111113
-0.36,0.35,3938.8888888888887
-0.375,0.34,3941.6666666666665
-0.37,0.35,3944.4444444444443
-0.325,0.335,3947.222222222222
-0.315,0.33,3950.0
-0.315,0.325,3952.777777777778
-0.33,0.31,3955.5555555555557
-0.335,0.31,3958.3333333333335
-0.31,0.305,3961.1111111111113
-0.31,0.3,3963.8888888888887
-0.315,0.295,3966.6666666666665
-0.305,0.28,3969.4444444444443
-0.315,0.265,3972.222222222222
-0.325,0.27,3975.0
-0.32,0.28,3977.777777777778
-0.325,0.28,3980.5555555555557
-0.345,0.265,3983.3333333333335
-0.36,0.25,3986.1111111111113
-0.385,0.255,3988.8888888888887
-0.37,0.275,3991.6666666666665
-0.355,0.265,3994.4444444444443
-0.355,0.255,3997.222222222222
-0.365,0.275,4000.0
-0.365,0.255,4002.777777777778
-0.375,0.24,4005.5555555555557
-0.405,0.24,4008.3333333333335
-0.435,0.24,4011.1111111111113
-0.45,0.245,4013.8888888888887
-0.49,0.255,4016.6666666666665
-0.535,0.25,4019.4444444444443
-0.585,0.24,4022.222222222222
-0.585,0.245,4025.0
-0.595,0.265,4027.777777777778
-0.6,0.24,4030.5555555555557
-0.61,0.225,4033.3333333333335
-0.615,0.215,4036.1111111111113
-0.615,0.195,4038.8888888888887
-0.615,0.2,4041.6666666666665
-0.62,0.22,4044.4444444444443
-0.605,0.215,4047.222222222222
-0.605,0.195,4050.0
-0.62,0.175,4052.777777777778
-0.625,0.16,4055.5555555555557
-0.625,0.165,4058.3333333333335
-0.625,0.165,4061.1111111111113
-0.61,0.155,4063.8888888888887
-0.595,0.155,4066.6666666666665
-0.61,0.135,4069.4444444444443
-0.61,0.135,4072.222222222222
-0.61,0.13,4075.0
-0.6,0.14,4077.777777777778
-0.59,0.13,4080.5555555555557
-0.595,0.13,4083.3333333333335
-0.59,0.105,4086.1111111111113
-0.61,0.09,4088.8888888888887
-0.62,0.1,4091.6666666666665
-0.6,0.095,4094.4444444444443
-0.585,0.1,4097.222222222223
-0.595,0.075,4100.0
-0.605,0.08,4102.777777777777
-0.61,0.065,4105.555555555556
-0.615,0.07,4108.333333333333
-0.605,0.085,4111.111111111111
-0.58,0.065,4113.888888888889
-0.595,0.06,4116.666666666667
-0.595,0.045,4119.444444444444
-0.6,0.05,4122.222222222223
-0.6,0.05,4125.0
-0.595,0.045,4127.777777777777
-0.58,0.04,4130.555555555556
-0.575,0.045,4133.333333333333
-0.58,0.02,4136.111111111111
-0.585,0.015,4138.888888888889
-0.575,0.015,4141.666666666667
-0.565,0.005,4144.444444444444
-0.55,-0.015,4147.222222222223
-0.555,-0.01,4150.0
-0.565,0.0,4152.777777777777
-0.59,0.0,4155.555555555556
-0.58,0.035,4158.333333333333
-0.565,0.045,4161.111111111111
-0.555,0.06,4163.888888888889
-0.57,0.07,4166.666666666667
-0.575,0.06,4169.444444444444
-0.59,0.06,4172.222222222223
-0.57,0.06,4175.0
-0.505,0.035,4177.777777777777
-0.405,0.0,4180.555555555556
-0.28,-0.065,4183.333333333333
-0.15,-0.14,4186.111111111111
0.0,-0.235,4188.888888888889
0.115,-0.305,4191.666666666667
0.145,-0.39,4194.444444444444
0.14,-0.455,4197.222222222223
0.15,-0.535,4200.0
0.175,-0.63,4202.777777777777
0.205,-0.785,4205.555555555556
0.25,-0.915,4208.333333333333
0.32,-1.03,4211.111111111111
0.41,-1.14,4213.888888888889
0.46,-1.21,4216.666666666667
0.48,-1.24,4219.444444444444
0.475,-1.245,4222.222222222223
0.47,-1.24,4225.0
0.48,-1.215,4227.777777777777
0.475,-1.175,4230.555555555556
0.44,-1.135,4233.333333333333
0.35,-1.085,4236.111111111111
0.255,-1.03,4238.888888888889
0.17,-0.965,4241.666666666667
0.09,-0.895,4244.444444444444
0.035,-0.855,4247.222222222223
-0.055,-0.79,4250.0
-0.18,-0.765,4252.777777777777
-0.34,-0.7,4255.555555555556
-0.485,-0.645,4258.333333333333
-0.61,-0.595,4261.111111111111
-0.705,-0.56,4263.888888888889
-0.815,-0.535,4266.666666666667
-0.915,-0.505,4269.444444444444
-1.015,-0.485,4272.222222222223
-1.06,-0.435,4275.0
-1.08,-0.405,4277.777777777777
-1.085,-0.375,4280.555555555556
-1.085,-0.365,4283.333333333333
-1.09,-0.375,4286.111111111111
-1.08,-0.345,4288.888888888889
-1.075,-0.315,4291.666666666667
-1.055,-0.28,4294.444444444444
-1.035,-0.26,4297.222222222223
-1.025,-0.245,4300.0
-0.99,-0.235,4302.777777777777
-0.965,-0.215,4305.555555555556
-0.925,-0.2,4308.333333333333
-0.89,-0.155,4311.111111111111
-0.855,-0.145,4313.888888888889
-0.835,-0.12,4316.666666666667
-0.83,-0.115,4319.444444444444
-0.815,-0.095,4322.222222222223
-0.78,-0.085,4325.0
-0.755,-0.075,4327.777777777777
-0.72,-0.065,4330.555555555556
-0.7,-0.07,4333.333333333333
-0.69,-0.06,4336.111111111111
-0.685,-0.06,4338.888888888889
-0.675,-0.065,4341.666666666667
-0.655,-0.045,4344.444444444444
-0.655,-0.05,4347.222222222223
-0.645,-0.055,4350.0
-0.66,-0.08,4352.777777777777
-0.685,-0.07,4355.555555555556
-0.68,-0.06,4358.333333333333
-0.66,-0.05,4361.111111111111
-0.645,-0.065,4363.888888888889
-0.65,-0.06,4366.666666666667
-0.66,-0.075,4369.444444444444
-0.68,-0.07,4372.222222222223
-0.695,-0.07,4375.0
-0.685,-0.07,4377.777777777777
-0.68,-0.07,4380.555555555556
-0.675,-0.08,4383.333333333333
-0.68,-0.09,4386.111111111111
-0.695,-0.085,4388.888888888889
-0.715,-0.065,4391.666666666667
-0.71,-0.05,4394.444444444444
-0.68,-0.04,4397.222222222223
-0.68,-0.04,4400.0
-0.685,-0.06,4402.777777777777
-0.695,-0.065,4405.555555555556
-0.705,-0.055,4408.333333333333
-0.675,-0.06,4411.111111111111
-0.665,-0.055,4413.888888888889
-0.68,-0.055,4416.666666666667
-0.695,-0.055,4419.444444444444
-0.695,-0.07,4422.222222222223
-0.685,-0.07,4425.0
-0.675,-0.055,4427.777777777777
-0.675,-0.06,4430.555555555556
-0.665,-0.05,4433.333333333333
-0.66,-0.07,4436.111111111111
-0.66,-0.095,4438.888888888889
-0.655,-0.08,4441.666666666667
-0.64,-0.08,4444.444444444444
-0.63,-0.075,4447.222222222223
-0.62,-0.07,4450.0
-0.62,-0.085,4452.777777777777
-0.62,-0.095,4455.555555555556
-0.61,-0.075,4458.333333333333
-0.605,-0.075,4461.111111111111
-0.595,-0.065,4463.888888888889
-0.59,-0.08,4466.666666666667
-0.585,-0.09,4469.444444444444
-0.58,-0.115,4472.222222222223
-0.57,-0.11,4475.0
-0.535,-0.1,4477.777777777777
-0.515,-0.1,4480.555555555556
-0.51,-0.11,4483.333333333333
-0.495,-0.13,4486.111111111111
-0.505,-0.145,4488.888888888889
-0.475,-0.14,4491.666666666667
-0.475,-0.135,4494.444444444444
-0.45,-0.14,4497.222222222223
-0.435,-0.15,4500.0
-0.42,-0.165,4502.777777777777
-0.435,-0.175,4505.555555555556
-0.41,-0.175,4508.333333333333
-0.385,-0.16,4511.111111111111
-0.38,-0.16,4513.888888888889
-0.375,-0.175,4516.666666666667
-0.38,-0.195,4519.444444444444
-0.37,-0.21,4522.222222222223
-0.36,-0.23,4525.0
-0.345,-0.245,4527.777777777777
-0.33,-0.25,4530.555555555556
-0.325,-0.25,4533.333333333333
-0.315,-0.25,4536.111111111111
-0.33,-0.265,4538.888888888889
-0.305,-0.27,4541.666666666667
-0.28,-0.265,4544.444444444444
-0.265,-0.28,4547.222222222223
-0.26,-0.285,4550.0
-0.265,-0.3,4552.777777777777
-0.26,-0.305,4555.555555555556
-0.245,-0.305,4558.333333333333
-0.235,-0.315,4561.111111111111
-0.215,-0.345,4563.888888888889
-0.21,-0.36,4566.666666666667
-0.22,-0.365,4569.444444444444
-0.23,-0.345,4572.222222222223
-0.215,-0.335,4575.0
-0.2,-0.315,4577.777777777777
-0.19,-0.32,4580.555555555556
-0.19,-0.33,4583.333333333333
-0.195,-0.345,4586.111111111111
-0.21,-0.36,4588.888888888889
-0.21,-0.37,4591.666666666667
-0.205,-0.375,4594.444444444444
-0.195,-0.375,4597.222222222223
-0.205,-0.38,4600.0
-0.21,-0.39,4602.777777777777
-0.22,-0.42,4605.555555555556
-0.23,-0.435,4608.333333333333
-0.235,-0.425,4611.111111111111
-0.24,-0.45,4613.888888888889
-0.23,-0.455,4616.666666666667
-0.235,-0.485,4619.444444444444
-0.245,-0.46,4622.222222222223
-0.245,-0.435,4625.0
-0.22,-0.435,4627.777777777777
-0.2,-0.43,4630.555555555556
-0.2,-0.455,4633.333333333333
-0.205,-0.465,4636.111111111111
-0.22,-0.455,4638.888888888889
-0.22,-0.44,4641.666666666667
-0.225,-0.405,4644.444444444444
-0.205,-0.415,4647.222222222223
-0.21,-0.425,4650.0
-0.24,-0.44,4652.777777777777
-0.26,-0.45,4655.555555555556
-0.265,-0.455,4658.333333333333
-0.265,-0.46,4661.111111111111
-0.265,-0.46,4663.888888888889
-0.26,-0.46,4666.666666666667
-0.26,-0.47,4669.444444444444
-0.255,-0.455,4672.222222222223
-0.26,-0.44,4675.0
-0.27,-0.445,4677.777777777777
-0.295,-0.435,4680.555555555556
-0.32,-0.43,4683.333333333333
-0.35,-0.45,4686.111111111111
-0.38,-0.465,4688.888888888889
-0.41,-0.46,4691.666666666667
-0.43,-0.455,4694.444444444444
-0.455,-0.46,4697.222222222223
-0.455,-0.44,4700.0
-0.475,-0.455,4702.777777777777
-0.495,-0.445,4705.555555555556
-0.505,-0.44,4708.333333333333
-0.495,-0.43,4711.111111111111
-0.49,-0.41,4713.888888888889
-0.49,-0.43,4716.666666666667
-0.485,-0.445,4719.444444444444
-0.49,-0.455,4722.222222222223
-0.495,-0.465,4725.0
-0.505,-0.46,4727.777777777777
-0.5,-0.445,4730.555555555556
-0.51,-0.45,4733.333333333333
-0.525,-0.475,4736.111111111111
-0.52,-0.485,4738.888888888889
-0.51,-0.465,4741.666666666667
-0.49,-0.46,4744.444444444444
-0.49,-0.49,4747.222222222223
-0.49,-0.495,4750.0
-0.5,-0.505,4752.777777777777
-0.51,-0.495,4755.555555555556
-0.515,-0.485,4758.333333333333
-0.525,-0.465,4761.111111111111
-0.505,-0.48,4763.888888888889
-0.505,-0.49,4766.666666666667
-0.51,-0.495,4769.444444444444
-0.515,-0.495,4772.222222222223
-0.51,-0.51,4775.0
-0.5,-0.49,4777.777777777777
-0.49,-0.505,4780.555555555556
-0.5,-0.5,4783.333333333333
-0.485,-0.495,4786.111111111111
-0.5,-0.52,4788.888888888889
-0.505,-0.51,4791.666666666667
-0.515,-0.515,4794.444444444444
-0.51,-0.535,4797.222222222223
-0.49,-0.525,4800.0
-0.48,-0.53,4802.777777777777
-0.475,-0.52,4805.555555555556
-0.475,-0.52,4808.333333333333
-0.47,-0.505,4811.111111111111
-0.475,-0.5,4813.888888888889
-0.48,-0.5,4816.666666666667
-0.475,-0.51,4819.444444444444
-0.49,-0.52,4822.222222222223
-0.495,-0.51,4825.0
-0.47,-0.495,4827.777777777777
-0.465,-0.495,4830.555555555556
-0.455,-0.48,4833.333333333333
-0.465,-0.485,4836.111111111111
-0.48,-0.48,4838.888888888889
-0.495,-0.46,4841.666666666667
-0.48,-0.45,4844.444444444444
-0.475,-0.415,4847.222222222223
-0.465,-0.425,4850.0
-0.425,-0.435,4852.777777777777
-0.36,-0.445,4855.555555555556
-0.245,-0.46,4858.333333333333
-0.105,-0.49,4861.111111111111
0.035,-0.545,4863.888888888889
0.14,-0.615,4866.666666666667
0.235,-0.72,4869.444444444444
0.28,-0.795,4872.222222222223
0.305,-0.855,4875.0
0.33,-0.895,4877.777777777777
0.38,-0.97,4880.555555555556
0.44,-1.065,4883.333333333333
0.515,-1.205,4886.111111111111
0.565,-1.325,4888.888888888889
0.655,-1.45,4891.666666666667
0.715,-1.54,4894.444444444444
0.73,-1.635,4897.222222222223
0.72,-1.67,4900.0
0.685,-1.665,4902.777777777777
0.635,-1.645,4905.555555555556
0.585,-1.6,4908.333333333333
0.53,-1.56,4911.111111111111
0.455,-1.515,4913.888888888889
0.345,-1.44,4916.666666666667
0.24,-1.4,4919.444444444444
0.16,-1.35,4922.222222222223
0.07,-1.29,4925.0
-0.03,-1.235,4927.777777777777
-0.14,-1.185,4930.555555555556
-0.26,-1.17,4933.333333333333
-0.39,-1.125,4936.111111111111
-0.54,-1.065,4938.888888888889
-0.67,-0.995,4941.666666666667
-0.78,-0.94,4944.444444444444
-0.865,-0.9,4947.222222222223
-0.96,-0.885,4950.0
-1.065,-0.845,4952.777777777777
-1.14,-0.795,4955.555555555556
-1.165,-0.75,4958.333333333333
-1.17,-0.72,4961.111111111111
-1.15,-0.72,4963.888888888889
-1.13,-0.715,4966.666666666667
-1.13,-0.705,4969.444444444444
-1.13,-0.685,4972.222222222223
-1.115,-0.645,4975.0
-1.09,-0.61,4977.777777777777
-1.05,-0.58,4980.555555555556
-1.015,-0.56,4983.333333333333
-1.015,-0.545,4986.111111111111
-0.985,-0.525,4988.888888888889
-0.945,-0.49,4991.666666666667
-0.91,-0.48,4994.444444444444
-0.875,-0.47,4997.222222222223
-0.845,-0.475,5000.0
-0.825,-0.465,5002.777777777777
-0.815,-0.44,5005.555555555556
-0.785,-0.405,5008.333333333333
-0.755,-0.385,5011.111111111111
-0.735,-0.375,5013.888888888889
-0.715,-0.37,5016.666666666667
-0.695,-0.375,5019.444444444444
-0.705,-0.39,5022.222222222223
-0.715,-0.385,5025.0
-0.705,-0.385,5027.777777777777
-0.68,-0.385,5030.555555555556
-0.67,-0.375,5033.333333333333
-0.69,-0.385,5036.111111111111
-0.695,-0.37,5038.888888888889
-0.685,-0.375,5041.666666666667
-0.675,-0.385,5044.444444444444
-0.665,-0.41,5047.222222222223
-0.67,-0.415,5050.0
-0.685,-0.405,5052.777777777777
-0.685,-0.385,5055.555555555556
-0.675,-0.36,5058.333333333333
-0.675,-0.335,5061.111111111111
-0.675,-0.325,5063.888888888889
-0.69,-0.33,5066.666666666667
-0.68,-0.345,5069.444444444444
-0.685,-0.365,5072.222222222223
-0.69,-0.375,5075.0
-0.685,-0.355,5077.777777777777
-0.685,-0.345,5080.555555555556
-0.69,-0.335,5083.333333333333
-0.69,-0.35,5086.111111111111
-0.7,-0.375,5088.888888888889
-0.685,-0.365,5091.666666666667
-0.68,-0.335,5094.444444444444
-0.67,-0.325,5097.222222222223
-0.665,-0.32,5100.0
-0.67,-0.345,5102.777777777777
-0.68,-0.345,5105.555555555556
-0.695,-0.33,5108.333333333333
-0.69,-0.325,5111.111111111111
-0.66,-0.32,5113.888888888889
-0.655,-0.32,5116.666666666667
-0.655,-0.345,5119.444444444444
-0.64,-0.36,5122.222222222223
-0.64,-0.35,5125.0
-0.62,-0.345,5127.777777777777
-0.61,-0.325,5130.555555555556
-0.6,-0.325,5133.333333333333
-0.59,-0.33,5136.111111111111
-0.59,-0.345,5138.888888888889
-0.58,-0.34,5141.666666666667
-0.565,-0.315,5144.444444444444
-0.535,-0.315,5147.222222222223
-0.525,-0.335,5150.0
-0.53,-0.37,5152.777777777777
-0.525,-0.375,5155.555555555556
-0.49,-0.365,5158.333333333333
-0.46,-0.365,5161.111111111111
-0.435,-0.365,5163.888888888889
-0.43,-0.365,5166.666666666667
-0.42,-0.37,5169.444444444444
-0.43,-0.39,5172.222222222223
-0.425,-0.39,5175.0
-0.395,-0.39,5177.777777777777
-0.385,-0.395,5180.555555555556
-0.37,-0.4,5183.333333333333
-0.36,-0.395,5186.111111111111
-0.355,-0.405,5188.888888888889
-0.335,-0.4,5191.666666666667
-0.32,-0.415,5194.444444444444
-0.3,-0.42,5197.222222222223
-0.3,-0.425,5200.0
-0.295,-0.44,5202.777777777777
-0.29,-0.445,5205.555555555556
-0.27,-0.45,5208.333333333333
-0.255,-0.435,5211.111111111111
-0.25,-0.435,5213.888888888889
-0.24,-0.435,5216.666666666667
-0.235,-0.455,5219.444444444444
-0.24,-0.465,5222.222222222223
-0.225,-0.47,5225.0
-0.205,-0.47,5227.777777777777
-0.2,-0.48,5230.555555555556
-0.21,-0.48,5233.333333333333
-0.21,-0.495,5236.111111111111
-0.215,-0.505,5238.888888888889
-0.2,-0.515,5241.666666666667
-0.185,-0.52,5244.444444444444
-0.165,-0.515,5247.222222222223
-0.15,-0.51,5250.0
-0.16,-0.5,5252.777777777777
-0.17,-0.515,5255.555555555556
-0.175,-0.515,5258.333333333333
-0.18,-0.51,5261.111111111111
-0.165,-0.52,5263.888888888889
-0.17,-0.56,5266.666666666667
-0.185,-0.575,5269.444444444444
-0.22,-0.575,5272.222222222223
-0.22,-0.57,5275.0
-0.21,-0.545,5277.777777777777
-0.205,-0.54,5280.555555555556
-0.205,-0.535,5283.333333333333
-0.2,-0.555,5286.111111111111
-0.205,-0.545,5288.888888888889
-0.185,-0.55,5291.666666666667
-0.18,-0.535,5294.444444444444
-0.175,-0.555,5297.222222222223
-0.19,-0.565,5300.0
-0.2,-0.59,5302.777777777777
-0.215,-0.6,5305.555555555556
-0.215,-0.6,5308.333333333333
-0.225,-0.57,5311.111111111111
-0.22,-0.555,5313.888888888889
-0.225,-0.545,5316.666666666667
-0.24,-0.565,5319.444444444444
-0.265,-0.565,5322.222222222223
-0.25,-0.565,5325.0
-0.24,-0.54,5327.777777777777
-0.22,-0.52,5330.555555555556
-0.25,-0.52,5333.333333333333
-0.29,-0.53,5336.111111111111
-0.325,-0.515,5338.888888888889
-0.345,-0.5,5341.666666666667
-0.345,-0.495,5344.444444444444
-0.37,-0.49,5347.222222222223
-0.395,-0.505,5350.0
-0.435,-0.525,5352.777777777777
-0.46,-0.515,5355.555555555556
-0.465,-0.495,5358.333333333333
-0.47,-0.49,5361.111111111111
-0.47,-0.5,5363.888888888889
-0.455,-0.505,5366.666666666667
-0.465,-0.505,5369.444444444444
-0.475,-0.495,5372.222222222223
-0.49,-0.485,5375.0
-0.47,-0.46,5377.777777777777
-0.49,-0.48,5380.555555555556
-0.485,-0.505,5383.333333333333
-0.48,-0.535,5386.111111111111
-0.51,-0.53,5388.888888888889
-0.49,-0.52,5391.666666666667
-0.475,-0.51,5394.444444444444
-0.465,-0.505,5397.222222222223
-0.485,-0.505,5400.0
-0.5,-0.52,5402.777777777777
-0.495,-0.515,5405.555555555556
-0.49,-0.505,5408.333333333333
-0.495,-0.485,5411.111111111111
-0.495,-0.495,5413.888888888889
-0.505,-0.5,5416.666666666667
-0.515,-0.505,5419.444444444444
-0.54,-0.495,5422.222222222223
-0.54,-0.48,5425.0
-0.52,-0.46,5427.777777777777
-0.515,-0.475,5430.555555555556
-0.505,-0.505,5433.333333333333
-0.495,-0.525,5436.111111111111
-0.5,-0.535,5438.888888888889
-0.5,-0.54,5441.666666666667
-0.48,-0.515,5444.444444444444
-0.49,-0.49,5447.222222222223
-0.495,-0.475,5450.0
-0.485,-0.5,5452.777777777777
-0.495,-0.49,5455.555555555556
-0.495,-0.485,5458.333333333333
-0.47,-0.48,5461.111111111111
-0.455,-0.49,5463.888888888889
-0.45,-0.51,5466.666666666667
-0.425,-0.54,5469.444444444444
-0.395,-0.54,5472.222222222223
-0.36,-0.535,5475.0
-0.35,-0.525,5477.777777777777
-0.365,-0.505,5480.555555555556
-0.39,-0.46,5483.333333333333
-0.44,-0.43,5486.111111111111
-0.49,-0.41,5488.888888888889
-0.515,-0.38,5491.666666666667
-0.51,-0.37,5494.444444444444
-0.445,-0.37,5497.222222222223
-0.335,-0.4,5500.0
-0.21,-0.44,5502.777777777777
-0.09,-0.49,5505.555555555556
0.03,-0.57,5508.333333333333
0.115,-0.66,5511.111111111111
0.18,-0.75,5513.888888888889
0.19,-0.81,5516.666666666667
0.245,-0.915,5519.444444444444
0.29,-1.03,5522.222222222223
0.33,-1.155,5525.0
0.36,-1.265,5527.777777777777
0.41,-1.39,5530.555555555556
0.425,-1.49,5533.333333333333
0.435,-1.54,5536.111111111111
0.4,-1.535,5538.888888888889
0.365,-1.525,5541.666666666667
0.36,-1.475,5544.444444444444
0.34,-1.435,5547.222222222223
0.3,-1.39,5550.0
0.215,-1.345,5552.777777777777
0.155,-1.29,5555.555555555556
0.09,-1.225,5558.333333333333
0.045,-1.16,5561.111111111111
-0.015,-1.105,5563.888888888889
-0.09,-1.07,5566.666666666667
-0.185,-1.03,5569.444444444444
-0.32,-1.01,5572.222222222223
-0.445,-0.985,5575.0
-0.555,-0.93,5577.777777777777
-0.645,-0.875,5580.555555555556
-0.75,-0.835,5583.333333333333
-0.87,-0.805,5586.111111111111
-0.96,-0.78,5588.888888888889
-0.985,-0.725,5591.666666666667
-0.965,-0.685,5594.444444444444
-0.945,-0.665,5597.222222222223
-0.945,-0.655,5600.0
-0.985,-0.635,5602.777777777777
-1.005,-0.605,5605.555555555556
-0.995,-0.58,5608.333333333333
-0.955,-0.535,5611.111111111111
-0.89,-0.535,5613.888888888889
-0.84,-0.52,5616.666666666667
-0.815,-0.505,5619.444444444444
-0.835,-0.505,5622.222222222223
-0.85,-0.46,5625.0
-0.865,-0.41,5627.777777777777
-0.865,-0.37,5630.555555555556
-0.835,-0.365,5633.333333333333
-0.785,-0.365,5636.111111111111
-0.715,-0.355,5638.888888888889
-0.655,-0.33,5641.666666666667
-0.64,-0.325,5644.444444444444
-0.645,-0.31,5647.222222222223
-0.67,-0.32,5650.0
-0.685,-0.32,5652.777777777777
-0.69,-0.32,5655.555555555556
-0.665,-0.305,5658.333333333333
-0.635,-0.3,5661.111111111111
-0.615,-0.31,5663.888888888889
-0.615,-0.315,5666.666666666667
-0.615,-0.33,5669.444444444444
-0.615,-0.33,5672.222222222223
-0.62,-0.315,5675.0
-0.61,-0.295,5677.777777777777
-0.6,-0.3,5680.555555555556
-0.595,-0.31,5683.333333333333
-0.615,-0.31,5686.111111111111
-0.625,-0.315,5688.888888888889
-0.635,-0.31,5691.666666666667
-0.635,-0.28,5694.444444444444
-0.645,-0.28,5697.222222222223
-0.615,-0.285,5700.0
-0.62,-0.29,5702.777777777777
-0.63,-0.29,5705.555555555556
-0.635,-0.28,5708.333333333333
-0.625,-0.285,5711.111111111111
-0.6,-0.26,5713.888888888889
-0.595,-0.275,5716.666666666667
-0.6,-0.285,5719.444444444444
-0.6,-0.29,5722.222222222223
-0.6,-0.28,5725.0
-0.595,-0.27,5727.777777777777
-0.57,-0.255,5730.555555555556
-0.57,-0.265,5733.333333333333
-0.575,-0.27,5736.111111111111
-0.565,-0.27,5738.888888888889
-0.545,-0.265,5741.666666666667
-0.535,-0.25,5744.444444444444
-0.525,-0.255,5747.222222222223
-0.53,-0.255,5750.0
-0.545,-0.275,5752.777777777777
-0.55,-0.27,5755.555555555556
-0.54,-0.27,5758.333333333333
-0.52,-0.265,5761.111111111111
-0.52,-0.26,5763.888888888889
-0.505,-0.275,5766.666666666667
-0.495,-0.275,5769.444444444444
-0.505,-0.285,5772.222222222223
-0.49,-0.28,5775.0
-0.475,-0.27,5777.777777777777
-0.44,-0.275,5780.555555555556
-0.435,-0.28,5783.333333333333
-0.435,-0.29,5786.111111111111
-0.42,-0.305,5788.888888888889
-0.4,-0.3,5791.666666666667
-0.385,-0.295,5794.444444444444
-0.37,-0.3,5797.222222222223
-0.355,-0.305,5800.0
-0.35,-0.325,5802.777777777777
-0.35,-0.345,5805.555555555556
-0.335,-0.325,5808.333333333333
-0.32,-0.325,5811.111111111111
-0.31,-0.34,5813.888888888889
-0.28,-0.35,5816.666666666667
-0.285,-0.36,5819.444444444444
-0.29,-0.365,5822.222222222223
-0.275,-0.355,5825.0
-0.265,-0.345,5827.777777777777
-0.245,-0.355,5830.555555555556
-0.24,-0.36,5833.333333333333
-0.245,-0.385,5836.111111111111
-0.25,-0.405,5838.888888888889
-0.25,-0.39,5841.666666666667
-0.22,-0.39,5844.444444444444
-0.21,-0.395,5847.222222222223
-0.21,-0.41,5850.0
-0.195,-0.425,5852.777777777777
-0.2,-0.43,5855.555555555556
-0.185,-0.43,5858.333333333333
-0.175,-0.415,5861.111111111111
-0.155,-0.42,5863.888888888889
-0.165,-0.44,5866.666666666667
-0.165,-0.455,5869.444444444444
-0.175,-0.475,5872.222222222223
-0.155,-0.455,5875.0
-0.135,-0.47,5877.777777777777
-0.12,-0.465,5880.555555555556
-0.125,-0.465,5883.333333333333
-0.145,-0.485,5886.111111111111
-0.155,-0.495,5888.888888888889
-0.15,-0.485,5891.666666666667
-0.15,-0.485,5894.444444444444
-0.135,-0.495,5897.222222222223
-0.15,-0.51,5900.0
-0.16,-0.53,5902.777777777777
-0.18,-0.53,5905.555555555556
-0.165,-0.52,5908.333333333333
-0.145,-0.525,5911.111111111111
-0.15,-0.53,5913.888888888889
-0.15,-0.525,5916.666666666667
-0.135,-0.55,5919.444444444444
-0.145,-0.555,5922.222222222223
-0.145,-0.555,5925.0
-0.135,-0.545,5927.777777777777
-0.145,-0.54,5930.555555555556
-0.155,-0.54,5933.333333333333
-0.17,-0.56,5936.111111111111
-0.2,-0.555,5938.888888888889
-0.205,-0.545,5941.666666666667
-0.205,-0.53,5944.444444444444
-0.195,-0.54,5947.222222222223
-0.18,-0.545,5950.0
-0.195,-0.545,5952.777777777777
-0.185,-0.545,5955.555555555556
-0.16,-0.53,5958.333333333333
-0.16,-0.53,5961.111111111111
-0.17,-0.5,5963.888888888889
-0.225,-0.51,5966.666666666667
-0.27,-0.525,5969.444444444444
-0.29,-0.54,5972.222222222223
-0.31,-0.52,5975.0
-0.31,-0.505,5977.777777777777
-0.335,-0.5,5980.555555555556
-0.355,-0.495,5983.333333333333
-0.39,-0.5,5986.111111111111
-0.41,-0.505,5988.888888888889
-0.42,-0.5,5991.666666666667
-0.435,-0.485,5994.444444444444
-0.42,-0.485,5997.222222222223
-0.415,-0.49,6000.0
-0.44,-0.495,6002.777777777777
-0.445,-0.505,6005.555555555556
-0.455,-0.495,6008.333333333333
-0.435,-0.495,6011.111111111111
-0.43,-0.5,6013.888888888889
-0.42,-0.5,6016.666666666667
-0.435,-0.505,6019.444444444444
-0.45,-0.525,6022.222222222223
-0.455,-0.51,6025.0
-0.445,-0.51,6027.777777777777
-0.445,-0.515,6030.555555555556
-0.425,-0.52,6033.333333333333
-0.435,-0.52,6036.111111111111
-0.435,-0.525,6038.888888888889
-0.445,-0.525,6041.666666666667
-0.43,-0.515,6044.444444444444
-0.42,-0.52,6047.222222222223
-0.425,-0.525,6050.0
-0.43,-0.525,6052.777777777777
-0.44,-0.53,6055.555555555556
-0.435,-0.51,6058.333333333333
-0.415,-0.505,6061.111111111111
-0.405,-0.52,6063.888888888889
-0.41,-0.53,6066.666666666667
-0.415,-0.545,6069.444444444444
-0.435,-0.53,6072.222222222223
-0.42,-0.525,6075.0
-0.41,-0.515,6077.777777777777
-0.42,-0.52,6080.555555555556
-0.41,-0.525,6083.333333333333
-0.44,-0.525,6086.111111111111
-0.45,-0.54,6088.888888888889
-0.44,-0.525,6091.666666666667
-0.405,-0.525,6094.444444444444
-0.41,-0.53,6097.222222222223
-0.4,-0.53,6100.0
-0.41,-0.535,6102.777777777777
-0.405,-0.52,6105.555555555556
-0.42,-0.49,6108.333333333333
-0.42,-0.45,6111.111111111111
-0.43,-0.43,6113.888888888889
-0.435,-0.415,6116.666666666667
-0.445,-0.42,6119.444444444444
-0.415,-0.43,6122.222222222223
-0.325,-0.465,6125.0
-0.185,-0.5,6127.777777777777
-0.07,-0.575,6130.555555555556
0.0,-0.685,6133.333333333333
0.025,-0.785,6136.111111111111
0.035,-0.865,6138.888888888889
0.095,-0.98,6141.666666666667
0.185,-1.13,6144.444444444444
0.3,-1.33,6147.222222222223
0.385,-1.515,6150.0
0.435,-1.62,6152.777777777777
0.43,-1.645,6155.555555555556
0.435,-1.635,6158.333333333333
0.43,-1.62,6161.111111111111
0.43,-1.59,6163.888888888889
0.405,-1.535,6166.666666666667
0.36,-1.485,6169.444444444444
0.275,-1.43,6172.222222222223
0.21,-1.375,6175.0
0.16,-1.285,6177.777777777777
0.115,-1.235,6180.555555555556
0.045,-1.165,6183.333333333333
-0.045,-1.125,6186.111111111111
-0.17,-1.09,6188.888888888889
-0.29,-1.035,6191.666666666667
-0.41,-0.975,6194.444444444444
-0.535,-0.93,6197.222222222223
-0.67,-0.905,6200.0
-0.775,-0.875,6202.777777777777
-0.855,-0.85,6205.555555555556
-0.89,-0.805,6208.333333333333
-0.915,-0.775,6211.111111111111
-0.92,-0.74,6213.888888888889
-0.92,-0.73,6216.666666666667
-0.895,-0.705,6219.444444444444
-0.905,-0.675,6222.222222222223
-0.92,-0.645,6225.0
-0.9,-0.615,6227.777777777777
-0.85,-0.585,6230.555555555556
-0.8,-0.55,6233.333333333333
-0.78,-0.55,6236.111111111111
-0.765,-0.52,6238.888888888889
-0.755,-0.5,6241.666666666667
-0.72,-0.47,6244.444444444444
-0.675,-0.445,6247.222222222223
-0.65,-0.445,6250.0
-0.645,-0.435,6252.777777777777
-0.63,-0.435,6255.555555555556
-0.605,-0.405,6258.333333333333
-0.59,-0.39,6261.111111111111
-0.585,-0.395,6263.888888888889
-0.575,-0.38,6266.666666666667
-0.575,-0.39,6269.444444444444
-0.58,-0.405,6272.222222222223
-0.575,-0.4,6275.0
-0.56,-0.39,6277.777777777777
-0.555,-0.385,6280.555555555556
-0.57,-0.385,6283.333333333333
-0.585,-0.395,6286.111111111111
-0.6,-0.38,6288.888888888889
-0.58,-0.37,6291.666666666667
-0.575,-0.365,6294.444444444444
-0.57,-0.365,6297.222222222223
-0.57,-0.37,6300.0
-0.575,-0.35,6302.777777777777
-0.595,-0.34,6305.555555555556
-0.575,-0.34,6308.333333333333
-0.56,-0.325,6311.111111111111
-0.56,-0.31,6313.888888888889
-0.565,-0.325,6316.666666666667
-0.575,-0.34,6319.444444444444
-0.585,-0.34,6322.222222222223
-0.58,-0.325,6325.0
-0.565,-0.305,6327.777777777777
-0.56,-0.305,6330.555555555556
-0.555,-0.315,6333.333333333333
-0.57,-0.32,6336.111111111111
-0.58,-0.31,6338.888888888889
-0.565,-0.315,6341.666666666667
-0.555,-0.3,6344.444444444444
-0.535,-0.305,6347.222222222223
-0.525,-0.3,6350.0
-0.55,-0.31,6352.777777777777
-0.535,-0.325,6355.555555555556
-0.52,-0.31,6358.333333333333
-0.51,-0.305,6361.111111111111
-0.5,-0.295,6363.888888888889
-0.485,-0.31,6366.666666666667
-0.495,-0.315,6369.444444444444
-0.49,-0.33,6372.222222222223
-0.48,-0.31,6375.0
-0.465,-0.315,6377.777777777777
-0.445,-0.32,6380.555555555556
-0.435,-0.325,6383.333333333333
-0.415,-0.345,6386.111111111111
-0.415,-0.35,6388.888888888889
-0.4,-0.35,6391.666666666667
-0.385,-0.335,6394.444444444444
-0.395,-0.34,6397.222222222223
-0.375,-0.34,6400.0
-0.35,-0.37,6402.777777777777
-0.34,-0.38,6405.555555555556
-0.34,-0.36,6408.333333333333
-0.305,-0.37,6411.111111111111
-0.295,-0.375,6413.888888888889
-0.275,-0.37,6416.666666666667
-0.28,-0.395,6419.444444444444
-0.275,-0.415,6422.222222222223
-0.255,-0.4,6425.0
-0.245,-0.4,6427.777777777777
-0.23,-0.4,6430.555555555556
-0.225,-0.415,6433.333333333333
-0.23,-0.445,6436.111111111111
-0.225,-0.45,6438.888888888889
-0.205,-0.45,6441.666666666667
-0.2,-0.44,6444.444444444444
-0.175,-0.465,6447.222222222223
-0.18,-0.46,6450.0
-0.175,-0.47,6452.777777777777
-0.155,-0.485,6455.555555555556
-0.165,-0.465,6458.333333333333
-0.14,-0.475,6461.111111111111
-0.135,-0.465,6463.888888888889
-0.11,-0.485,6466.666666666667
-0.125,-0.49,6469.444444444444
-0.115,-0.51,6472.222222222223
-0.1,-0.49,6475.0
-0.08,-0.49,6477.777777777777
-0.085,-0.51,6480.555555555556
-0.08,-0.515,6483.333333333333
-0.08,-0.515,6486.111111111111
-0.1,-0.53,6488.888888888889
-0.105,-0.535,6491.666666666667
-0.11,-0.545,6494.444444444444
-0.115,-0.54,6497.222222222223
-0.12,-0.54,6500.0
-0.11,-0.55,6502.777777777777
-0.12,-0.555,6505.555555555556
-0.095,-0.56,6508.333333333333
-0.085,-0.54,6511.111111111111
-0.075,-0.55,6513.888888888889
-0.07,-0.555,6516.666666666667
-0.085,-0.565,6519.444444444444
-0.11,-0.58,6522.222222222223
-0.105,-0.565,6525.0
-0.09,-0.55,6527.777777777777
-0.095,-0.555,6530.555555555556
-0.1,-0.55,6533.333333333333
-0.115,-0.555,6536.111111111111
-0.135,-0.56,6538.888888888889
-0.14,-0.555,6541.666666666667
-0.145,-0.54,6544.444444444444
-0.14,-0.545,6547.222222222223
-0.135,-0.55,6550.0
-0.14,-0.555,6552.777777777777
-0.155,-0.54,6555.555555555556
-0.165,-0.52,6558.333333333333
-0.19,-0.51,6561.111111111111
-0.21,-0.505,6563.888888888889
-0.245,-0.52,6566.666666666667
-0.265,-0.525,6569.444444444444
-0.3,-0.525,6572.222222222223
-0.32,-0.51,6575.0
-0.35,-0.5,6577.777777777777
-0.355,-0.505,6580.555555555556
-0.375,-0.505,6583.333333333333
-0.405,-0.52,6586.111111111111
-0.405,-0.515,6588.888888888889
-0.4,-0.505,6591.666666666667
-0.395,-0.495,6594.444444444444
-0.4,-0.505,6597.222222222223
-0.4,-0.5,6600.0
-0.41,-0.52,6602.777777777777
-0.42,-0.525,6605.555555555556
-0.42,-0.505,6608.333333333333
-0.405,-0.5,6611.111111111111
-0.41,-0.505,6613.888888888889
-0.405,-0.5,6616.666666666667
-0.41,-0.515,6619.444444444444
-0.43,-0.52,6622.222222222223
-0.425,-0.515,6625.0
-0.405,-0.51,6627.777777777777
-0.39,-0.52,6630.555555555556
-0.4,-0.52,6633.333333333333
-0.405,-0.535,6636.111111111111
-0.425,-0.535,6638.888888888889
-0.415,-0.525,6641.666666666667
-0.39,-0.52,6644.444444444444
-0.4,-0.52,6647.222222222223
-0.39,-0.5,6650.0
-0.395,-0.515,6652.777777777777
-0.4,-0.525,6655.555555555556
-0.405,-0.52,6658.333333333333
-0.405,-0.51,6661.111111111111
-0.4,-0.515,6663.888888888889
-0.395,-0.525,6666.666666666667
-0.41,-0.54,6669.444444444444
-0.425,-0.545,6672.222222222223
-0.405,-0.54,6675.0
-0.39,-0.525,6677.777777777777
-0.38,-0.515,6680.555555555556
-0.375,-0.525,6683.333333333333
-0.4,-0.535,6686.111111111111
-0.405,-0.54,6688.888888888889
-0.395,-0.535,6691.666666666667
-0.37,-0.515,6694.444444444444
-0.365,-0.52,6697.222222222223
-0.36,-0.515,6700.0
-0.38,-0.52,6702.777777777777
-0.395,-0.49,6705.555555555556
-0.405,-0.47,6708.333333333333
-0.405,-0.44,6711.111111111111
-0.415,-0.42,6713.888888888889
-0.42,-0.405,6716.666666666667
-0.425,-0.405,6719.444444444444
-0.375,-0.445,6722.222222222223
-0.255,-0.47,6725.0
-0.135,-0.51,6727.777777777777
-0.015,-0.59,6730.555555555556
0.06,-0.7,6733.333333333333
0.08,-0.79,6736.111111111111
0.09,-0.88,6738.888888888889
0.16,-0.97,6741.666666666667
0.27,-1.11,6744.444444444444
0.395,-1.31,6747.222222222223
0.49,-1.48,6750.0
0.555,-1.6,6752.777777777777
0.59,-1.645,6755.555555555556
0.615,-1.65,6758.333333333333
0.615,-1.635,6761.111111111111
0.605,-1.61,6763.888888888889
0.58,-1.56,6766.666666666667
0.525,-1.515,6769.444444444444
0.43,-1.45,6772.222222222223
0.355,-1.375,6775.0
0.295,-1.305,6777.777777777777
0.24,-1.24,6780.555555555556
0.165,-1.17,6783.333333333333
0.06,-1.135,6786.111111111111
-0.095,-1.07,6788.888888888889
-0.255,-1.0,6791.666666666667
-0.4,-0.945,6794.444444444444
-0.525,-0.9,6797.222222222223
-0.65,-0.885,6800.0
-0.765,-0.86,6802.777777777777
-0.835,-0.825,6805.555555555556
-0.87,-0.785,6808.333333333333
-0.88,-0.735,6811.111111111111
-0.87,-0.7,6813.888888888889
-0.88,-0.685,6816.666666666667
-0.88,-0.67,6819.444444444444
-0.89,-0.65,6822.222222222223
-0.88,-0.61,6825.0
-0.87,-0.58,6827.777777777777
-0.835,-0.555,6830.555555555556
-0.795,-0.515,6833.333333333333
-0.785,-0.51,6836.111111111111
-0.76,-0.48,6838.888888888889
-0.73,-0.445,6841.666666666667
-0.705,-0.41,6844.444444444444
-0.67,-0.4,6847.222222222223
-0.65,-0.395,6850.0
-0.65,-0.38,6852.777777777777
-0.635,-0.37,6855.555555555556
-0.605,-0.365,6858.333333333333
-0.575,-0.345,6861.111111111111
-0.555,-0.33,6863.888888888889
-0.55,-0.335,6866.666666666667
-0.555,-0.33,6869.444444444444
-0.56,-0.34,6872.222222222223
-0.54,-0.325,6875.0
-0.54,-0.31,6877.777777777777
-0.545,-0.315,6880.555555555556
-0.545,-0.315,6883.333333333333
-0.54,-0.32,6886.111111111111
-0.55,-0.32,6888.888888888889
-0.56,-0.315,6891.666666666667
-0.545,-0.285,6894.444444444444
-0.535,-0.295,6897.222222222223
-0.53,-0.295,6900.0
-0.54,-0.3,6902.777777777777
-0.56,-0.295,6905.555555555556
-0.55,-0.29,6908.333333333333
-0.545,-0.27,6911.111111111111
-0.535,-0.26,6913.888888888889
-0.53,-0.27,6916.666666666667
-0.545,-0.275,6919.444444444444
-0.555,-0.275,6922.222222222223
-0.555,-0.255,6925.0
-0.54,-0.245,6927.777777777777
-0.525,-0.24,6930.555555555556
-0.515,-0.24,6933.333333333333
-0.52,-0.255,6936.111111111111
-0.535,-0.25,6938.888888888889
-0.525,-0.225,6941.666666666667
-0.5,-0.23,6944.444444444444
-0.495,-0.225,6947.222222222223
-0.49,-0.235,6950.0
-0.495,-0.24,6952.777777777777
-0.495,-0.25,6955.555555555556
-0.495,-0.235,6958.333333333333
-0.465,-0.23,6961.111111111111
-0.465,-0.22,6963.888888888889
-0.45,-0.22,6966.666666666667
-0.46,-0.235,6969.444444444444
-0.46,-0.23,6972.222222222223
-0.435,-0.22,6975.0
-0.415,-0.205,6977.777777777777
-0.42,-0.215,6980.555555555556
-0.405,-0.225,6983.333333333333
-0.41,-0.23,6986.111111111111
-0.41,-0.235,6988.888888888889
-0.38,-0.23,6991.666666666667
-0.365,-0.205,6994.444444444444
-0.33,-0.215,6997.222222222223
-0.325,-0.22,7000.0
-0.315,-0.24,7002.777777777777
-0.315,-0.255,7005.555555555556
-0.315,-0.25,7008.333333333333
-0.285,-0.24,7011.111111111111
-0.26,-0.23,7013.888888888889
-0.24,-0.23,7016.666666666667
-0.23,-0.235,7019.444444444444
-0.235,-0.265,7022.222222222223
-0.235,-0.275,7025.0
-0.22,-0.275,7027.777777777777
-0.205,-0.255,7030.555555555556
-0.185,-0.245,7033.333333333333
-0.2,-0.255,7036.111111111111
-0.2,-0.26,7038.888888888889
-0.18,-0.3,7041.666666666667
-0.16,-0.325,7044.444444444444
-0.13,-0.365,7047.222222222223
-0.115,-0.36,7050.0
-0.115,-0.36,7052.777777777777
-0.135,-0.355,7055.555555555556
-0.13,-0.355,7058.333333333333
-0.125,-0.37,7061.111111111111
-0.105,-0.38,7063.888888888889
-0.105,-0.375,7066.666666666667
-0.095,-0.385,7069.444444444444
-0.08,-0.385,7072.222222222223
-0.055,-0.39,7075.0
-0.01,-0.375,7077.777777777777
0.01,-0.405,7080.555555555556
0.01,-0.415,7083.333333333333
-0.02,-0.43,7086.111111111111
-0.035,-0.435,7088.888888888889
0.005,-0.44,7091.666666666667
0.05,-0.44,7094.444444444444
0.065,-0.46,7097.222222222223
0.015,-0.46,7100.0
-0.065,-0.465,7102.777777777777
-0.15,-0.435,7105.555555555556
-0.18,-0.43,7108.333333333333
-0.165,-0.41,7111.111111111111
-0.145,-0.41,7113.888888888889
-0.115,-0.42,7116.666666666667
-0.105,-0.42,7119.444444444444
-0.095,-0.45,7122.222222222223
-0.075,-0.42,7125.0
-0.065,-0.42,7127.777777777777
-0.065,-0.43,7130.555555555556
-0.08,-0.43,7133.333333333333
-0.08,-0.44,7136.111111111111
-0.07,-0.44,7138.888888888889
-0.07,-0.425,7141.666666666667
-0.06,-0.4,7144.444444444444
-0.06,-0.415,7147.222222222223
-0.06,-0.4,7150.0
-0.075,-0.425,7152.777777777777
-0.105,-0.435,7155.555555555556
-0.115,-0.4,7158.333333333333
-0.115,-0.34,7161.111111111111
-0.115,-0.26,7163.888888888889
-0.11,-0.235,7166.666666666667
-0.11,-0.285,7169.444444444444
-0.135,-0.35,7172.222222222223
-0.155,-0.43,7175.0
-0.175,-0.47,7177.777777777777
-0.2,-0.5,7180.555555555556
-0.22,-0.515,7183.333333333333
-0.245,-0.525,7186.111111111111
-0.26,-0.515,7188.888888888889
-0.255,-0.49,7191.666666666667
-0.26,-0.465,7194.444444444444
-0.28,-0.45,7197.222222222223
-0.32,-0.425,7200.0
-0.35,-0.43,7202.777777777777
-0.365,-0.43,7205.555555555556
-0.34,-0.42,7208.333333333333
-0.265,-0.41,7211.111111111111
-0.205,-0.435,7213.888888888889
-0.185,-0.46,7216.666666666667
-0.225,-0.46,7219.444444444444
-0.3,-0.44,7222.222222222223
-0.36,-0.425,7225.0
-0.405,-0.37,7227.777777777777
-0.435,-0.35,7230.555555555556
-0.455,-0.32,7233.333333333333
-0.475,-0.305,7236.111111111111
-0.475,-0.295,7238.888888888889
-0.455,-0.23,7241.666666666667
-0.445,-0.195,7244.444444444444
-0.425,-0.175,7247.222222222223
-0.4,-0.145,7250.0
-0.395,-0.165,7252.777777777777
-0.4,-0.21,7255.555555555556
-0.425,-0.29,7258.333333333333
-0.43,-0.355,7261.111111111111
-0.415,-0.44,7263.888888888889
-0.39,-0.48,7266.666666666667
-0.385,-0.485,7269.444444444444
-0.41,-0.415,7272.222222222223
-0.425,-0.33,7275.0
-0.425,-0.285,7277.777777777777
-0.4,-0.335,7280.555555555556
-0.375,-0.435,7283.333333333333
-0.355,-0.525,7286.111111111111
-0.355,-0.575,7288.888888888889
-0.345,-0.57,7291.666666666667
-0.33,-0.535,7294.444444444444
-0.295,-0.515,7297.222222222223
-0.275,-0.495,7300.0
-0.26,-0.49,7302.777777777777
-0.285,-0.48,7305.555555555556
-0.285,-0.46,7308.333333333333
-0.3,-0.45,7311.111111111111
-0.33,-0.44,7313.888888888889
-0.35,-0.43,7316.666666666667
-0.35,-0.43,7319.444444444444
-0.325,-0.41,7322.222222222223
-0.315,-0.385,7325.0
-0.33,-0.345,7327.777777777777
-0.355,-0.32,7330.555555555556
-0.355,-0.295,7333.333333333333
-0.325,-0.305,7336.111111111111
-0.235,-0.315,7338.888888888889
-0.145,-0.345,7341.666666666667
-0.07,-0.36,7344.444444444444
-0.04,-0.41,7347.222222222223
0.005,-0.475,7350.0
0.065,-0.55,7352.777777777777
0.14,-0.59,7355.555555555556
0.23,-0.595,7358.333333333333
0.33,-0.625,7361.111111111111
0.405,-0.705,7363.888888888889
0.435,-0.82,7366.666666666667
0.46,-0.97,7369.444444444444
0.52,-1.13,7372.222222222223
0.625,-1.255,7375.0
0.695,-1.27,7377.777777777777
0.7,-1.215,7380.555555555556
0.65,-1.125,7383.333333333333
0.595,-1.095,7386.111111111111
0.575,-1.185,7388.888888888889
0.595,-1.275,7391.666666666667
0.6,-1.26,7394.444444444444
0.55,-1.145,7397.222222222223
0.475,-0.935,7400.0
0.405,-0.865,7402.777777777777
0.33,-0.955,7405.555555555556
0.265,-1.15,7408.333333333333
0.195,-1.32,7411.111111111111
0.1,-1.385,7413.888888888889
-0.045,-1.33,7416.666666666667
-0.215,-1.205,7419.444444444444
-0.405,-1.07,7422.222222222223
-0.56,-0.94,7425.0
-0.69,-0.835,7427.777777777777
-0.75,-0.775,7430.555555555556
-0.8,-0.725,7433.333333333333
-0.85,-0.685,7436.111111111111
-0.92,-0.63,7438.888888888889
-0.945,-0.595,7441.666666666667
-0.955,-0.56,7444.444444444444
-0.945,-0.535,7447.222222222223
-0.915,-0.505,7450.0
-0.93,-0.49,7452.777777777777
-0.92,-0.47,7455.555555555556
-0.865,-0.425,7458.333333333333
-0.81,-0.375,7461.111111111111
-0.77,-0.36,7463.888888888889
-0.74,-0.35,7466.666666666667
-0.715,-0.34,7469.444444444444
-0.68,-0.305,7472.222222222223
-0.665,-0.26,7475.0
-0.62,-0.245,7477.777777777777
-0.6,-0.225,7480.555555555556
-0.59,-0.215,7483.333333333333
-0.585,-0.155,7486.111111111111
-0.56,-0.105,7488.888888888889
-0.505,-0.07,7491.666666666667
-0.48,-0.05,7494.444444444444
-0.475,-0.055,7497.222222222223
-0.48,-0.055,7500.0
-0.49,-0.085,7502.777777777777
-0.455,-0.135,7505.555555555556
-0.425,-0.185,7508.333333333333
-0.415,-0.22,7511.111111111111
-0.39,-0.225,7513.888888888889
-0.355,-0.19,7516.666666666667
-0.36,-0.15,7519.444444444444
-0.425,-0.125,7522.222222222223
-0.485,-0.09,7525.0
-0.525,-0.155,7527.777777777777
-0.505,-0.295,7530.555555555556
-0.53,-0.445,7533.333333333333
-0.56,-0.495,7536.111111111111
-0.62,-0.4,7538.888888888889
-0.635,-0.235,7541.666666666667
-0.63,-0.11,7544.444444444444
-0.615,-0.085,7547.222222222223
-0.615,-0.1,7550.0
-0.605,-0.165,7552.777777777777
-0.605,-0.2,7555.555555555556
-0.605,-0.19,7558.333333333333
-0.61,-0.14,7561.111111111111
-0.595,-0.13,7563.888888888889
-0.59,-0.105,7566.666666666667
-0.595,-0.11,7569.444444444444
-0.59,-0.105,7572.222222222223
-0.575,-0.11,7575.0
-0.565,-0.105,7577.777777777777
-0.565,-0.09,7580.555555555556
-0.525,-0.07,7583.333333333333
-0.515,-0.045,7586.111111111111
-0.505,-0.005,7588.888888888889
-0.5,0.01,7591.666666666667
-0.495,0.01,7594.444444444444
-0.475,-0.04,7597.222222222223
-0.45,-0.115,7600.0
-0.44,-0.165,7602.777777777777
-0.42,-0.14,7605.555555555556
-0.4,-0.035,7608.333333333333
-0.335,0.11,7611.111111111111
-0.28,0.135,7613.888888888889
-0.25,0.015,7616.666666666667
-0.27,-0.135,7619.444444444444
-0.33,-0.215,7622.222222222223
-0.41,-0.21,7625.0
-0.445,-0.17,7627.777777777777
-0.42,-0.115,7630.555555555556
-0.355,-0.045,7633.333333333333
-0.285,-0.05,7636.111111111111
-0.235,-0.115,7638.888888888889
-0.2,-0.2,7641.666666666667
-0.205,-0.285,7644.444444444444
-0.185,-0.32,7647.222222222223
-0.15,-0.315,7650.0
-0.145,-0.28,7652.777777777777
-0.175,-0.24,7655.555555555556
-0.205,-0.215,7658.333333333333
-0.185,-0.19,7661.111111111111
-0.155,-0.19,7663.888888888889
-0.115,-0.205,7666.666666666667
-0.115,-0.215,7669.444444444444
-0.125,-0.21,7672.222222222223
-0.12,-0.225,7675.0
-0.15,-0.205,7677.777777777777
-0.165,-0.21,7680.555555555556
-0.18,-0.195,7683.333333333333
-0.195,-0.22,7686.111111111111
-0.225,-0.215,7688.888888888889
-0.2,-0.21,7691.666666666667
-0.155,-0.2,7694.444444444444
-0.055,-0.215,7697.222222222223
0.05,-0.23,7700.0
0.075,-0.245,7702.777777777777
0.07,-0.25,7705.555555555556
0.015,-0.245,7708.333333333333
-0.05,-0.24,7711.111111111111
-0.08,-0.235,7713.888888888889
-0.08,-0.255,7716.666666666667
-0.06,-0.265,7719.444444444444
-0.03,-0.28,7722.222222222223
0.015,-0.3,7725.0
0.055,-0.295,7727.777777777777
0.08,-0.315,7730.555555555556
0.095,-0.315,7733.333333333333
0.11,-0.335,7736.111111111111
0.145,-0.34,7738.888888888889
0.105,-0.33,7741.666666666667
-0.025,-0.3,7744.444444444444
-0.135,-0.27,7747.222222222223
-0.175,-0.26,7750.0
-0.145,-0.26,7752.777777777777
-0.11,-0.265,7755.555555555556
-0.12,-0.265,7758.333333333333
-0.17,-0.255,7761.111111111111
-0.195,-0.27,7763.888888888889
-0.15,-0.275,7766.666666666667
-0.105,-0.295,7769.444444444444
-0.06,-0.3,7772.222222222223
-0.03,-0.285,7775.0
-0.055,-0.27,7777.777777777777
-0.065,-0.26,7780.555555555556
-0.08,-0.255,7783.333333333333
-0.105,-0.255,7786.111111111111
-0.155,-0.25,7788.888888888889
-0.215,-0.245,7791.666666666667
-0.28,-0.235,7794.444444444444
-0.295,-0.225,7797.222222222223
-0.29,-0.235,7800.0
-0.285,-0.245,7802.777777777777
-0.305,-0.255,7805.555555555556
-0.31,-0.24,7808.333333333333
-0.32,-0.235,7811.111111111111
-0.31,-0.235,7813.888888888889
-0.3,-0.235,7816.666666666667
-0.28,-0.235,7819.444444444444
-0.31,-0.255,7822.222222222223
-0.32,-0.25,7825.0
-0.3,-0.245,7827.777777777777
-0.255,-0.245,7830.555555555556
-0.235,-0.245,7833.333333333333
-0.285,-0.255,7836.111111111111
-0.365,-0.255,7838.888888888889
-0.4,-0.235,7841.666666666667
-0.405,-0.225,7844.444444444444
-0.355,-0.22,7847.222222222223
-0.37,-0.23,7850.0
-0.405,-0.225,7852.777777777777
-0.44,-0.225,7855.555555555556
-0.425,-0.215,7858.333333333333
-0.4,-0.2,7861.111111111111
-0.37,-0.2,7863.888888888889
-0.35,-0.235,7866.666666666667
-0.35,-0.245,7869.444444444444
-0.355,-0.24,7872.222222222223
-0.35,-0.245,7875.0
-0.34,-0.23,7877.777777777777
-0.35,-0.24,7880.555555555556
-0.35,-0.235,7883.333333333333
-0.37,-0.225,7886.111111111111
-0.35,-0.225,7888.888888888889
-0.34,-0.21,7891.666666666667
-0.335,-0.19,7894.444444444444
-0.335,-0.205,7897.222222222223
-0.33,-0.21,7900.0
-0.32,-0.215,7902.777777777777
-0.325,-0.23,7905.555555555556
-0.32,-0.22,7908.333333333333
-0.315,-0.215,7911.111111111111
-0.285,-0.205,7913.888888888889
-0.28,-0.21,7916.666666666667
-0.29,-0.235,7919.444444444444
-0.28,-0.24,7922.222222222223
-0.265,-0.225,7925.0
-0.24,-0.205,7927.777777777777
-0.23,-0.21,7930.555555555556
-0.27,-0.2,7933.333333333333
-0.3,-0.2,7936.111111111111
-0.345,-0.19,7938.888888888889
-0.365,-0.175,7941.666666666667
-0.36,-0.12,7944.444444444444
-0.345,-0.105,7947.222222222223
-0.34,-0.095,7950.0
-0.335,-0.09,7952.777777777777
-0.31,-0.105,7955.555555555556
-0.235,-0.11,7958.333333333333
-0.11,-0.145,7961.111111111111
-0.005,-0.185,7963.888888888889
0.085,-0.26,7966.666666666667
0.165,-0.34,7969.444444444444
0.205,-0.435,7972.222222222223
0.2,-0.48,7975.0
0.2,-0.54,7977.777777777777
0.25,-0.63,7980.555555555556
0.345,-0.77,7983.333333333333
0.445,-0.925,7986.111111111111
0.54,-1.085,7988.888888888889
0.635,-1.18,7991.666666666667
0.725,-1.24,7994.444444444444
0.795,-1.275,7997.222222222223
0.805,-1.295,8000.0
0.79,-1.315,8002.777777777777
0.755,-1.31,8005.555555555556
0.745,-1.265,8008.333333333333
0.725,-1.21,8011.111111111111
0.68,-1.155,8013.888888888889
0.57,-1.085,8016.666666666667
0.485,-1.04,8019.444444444444
0.425,-0.985,8022.222222222223
0.36,-0.915,8025.0
0.29,-0.855,8027.777777777777
0.2,-0.795,8030.555555555556
0.065,-0.75,8033.333333333333
-0.075,-0.7,8036.111111111111
-0.215,-0.67,8038.888888888889
-0.325,-0.625,8041.666666666667
-0.43,-0.575,8044.444444444444
-0.53,-0.56,8047.222222222223
-0.615,-0.525,8050.0
-0.695,-0.49,8052.777777777777
-0.745,-0.47,8055.555555555556
-0.775,-0.435,8058.333333333333
-0.785,-0.4,8061.111111111111
-0.8,-0.39,8063.888888888889
-0.8,-0.36,8066.666666666667
-0.795,-0.36,8069.444444444444
-0.795,-0.345,8072.222222222223
-0.8,-0.31,8075.0
-0.81,-0.29,8077.777777777777
-0.785,-0.26,8080.555555555556
-0.765,-0.24,8083.333333333333
-0.725,-0.22,8086.111111111111
-0.695,-0.19,8088.888888888889
-0.655,-0.15,8091.666666666667
-0.625,-0.13,8094.444444444444
-0.605,-0.115,8097.222222222223
-0.59,-0.095,8100.0
-0.59,-0.085,8102.777777777777
-0.59,-0.09,8105.555555555556
-0.56,-0.055,8108.333333333333
-0.535,-0.025,8111.111111111111
-0.51,-0.01,8113.888888888889
-0.475,-0.01,8116.666666666667
-0.475,-0.025,8119.444444444444
-0.46,-0.02,8122.222222222223
-0.45,0.005,8125.0
-0.435,0.015,8127.777777777777
-0.42,0.0,8130.555555555556
-0.42,0.0,8133.333333333333
-0.44,-0.005,8136.111111111111
-0.435,-0.005,8138.888888888889
-0.425,0.005,8141.666666666667
-0.42,0.02,8144.444444444444
-0.435,0.01,8147.222222222223
-0.425,0.02,8150.0
-0.435,0.025,8152.777777777777
-0.44,0.025,8155.555555555556
-0.45,0.02,8158.333333333333
-0.435,0.035,8161.111111111111
-0.43,0.05,8163.888888888889
-0.44,0.04,8166.666666666667
-0.445,0.045,8169.444444444444
-0.46,0.04,8172.222222222223
-0.45,0.055,8175.0
-0.44,0.07,8177.777777777777
-0.43,0.07,8180.555555555556
-0.425,0.06,8183.333333333333
-0.44,0.07,8186.111111111111
-0.45,0.075,8188.888888888889
-0.44,0.085,8191.666666666667
-0.425,0.1,8194.444444444445
-0.425,0.085,8197.222222222223
-0.415,0.085,8200.0
-0.425,0.09,8202.777777777777
-0.44,0.09,8205.555555555555
-0.425,0.085,8208.333333333334
-0.42,0.1,8211.111111111111
-0.41,0.1,8213.888888888889
-0.405,0.1,8216.666666666666
-0.415,0.09,8219.444444444445
-0.41,0.095,8222.222222222223
-0.405,0.115,8225.0
-0.385,0.13,8227.777777777777
-0.36,0.115,8230.555555555555
-0.355,0.11,8233.333333333334
-0.365,0.105,8236.111111111111
-0.365,0.09,8238.888888888889
-0.34,0.105,8241.666666666666
-0.32,0.1,8244.444444444445
-0.305,0.115,8247.222222222223
-0.305,0.115,8250.0
-0.295,0.09,8252.777777777777
-0.29,0.1,8255.555555555555
-0.265,0.11,8258.333333333334
-0.235,0.115,8261.111111111111
-0.225,0.09,8263.888888888889
-0.22,0.1,8266.666666666666
-0.225,0.09,8269.444444444445
-0.24,0.09,8272.222222222223
-0.215,0.08,8275.0
-0.19,0.085,8277.777777777777
-0.16,0.07,8280.555555555555
-0.14,0.07,8283.333333333334
-0.135,0.055,8286.111111111111
-0.135,0.035,8288.888888888889
-0.12,0.055,8291.666666666666
-0.095,0.065,8294.444444444445
-0.08,0.07,8297.222222222223
-0.075,0.045,8300.0
-0.075,0.04,8302.777777777777
-0.075,0.035,8305.555555555555
-0.055,0.025,8308.333333333334
-0.03,0.03,8311.111111111111
-0.03,0.01,8313.888888888889
-0.03,0.015,8316.666666666666
-0.015,0.0,8319.444444444445
-0.015,-0.02,8322.222222222223
-0.005,-0.015,8325.0
0.015,-0.01,8327.777777777777
0.035,-0.02,8330.555555555555
0.035,-0.03,8333.333333333334
0.035,-0.035,8336.111111111111
0.03,-0.045,8338.888888888889
0.055,-0.035,8341.666666666666
0.075,-0.025,8344.444444444445
0.095,-0.03,8347.222222222223
0.1,-0.04,8350.0
0.105,-0.06,8352.777777777777
0.095,-0.055,8355.555555555555
0.105,-0.06,8358.333333333334
0.115,-0.055,8361.111111111111
0.11,-0.065,8363.888888888889
0.105,-0.08,8366.666666666666
0.075,-0.1,8369.444444444445
0.065,-0.115,8372.222222222223
0.065,-0.11,8375.0
0.08,-0.09,8377.777777777777
0.095,-0.095,8380.555555555555
0.095,-0.095,8383.333333333334
0.11,-0.11,8386.111111111111
0.095,-0.12,8388.888888888889
0.1,-0.11,8391.666666666666
0.11,-0.1,8394.444444444445
0.095,-0.11,8397.222222222223
0.09,-0.12,8400.0
0.08,-0.115,8402.777777777777
0.06,-0.115,8405.555555555555
0.07,-0.11,8408.333333333334
0.065,-0.095,8411.111111111111
0.06,-0.09,8413.888888888889
0.065,-0.1,8416.666666666666
0.06,-0.11,8419.444444444445
0.055,-0.115,8422.222222222223
0.06,-0.1,8425.0
0.08,-0.08,8427.777777777777
0.075,-0.08,8430.555555555555
0.055,-0.08,8433.333333333334
0.02,-0.09,8436.111111111111
-0.015,-0.09,8438.888888888889
-0.05,-0.075,8441.666666666666
-0.065,-0.06,8444.444444444445
-0.09,-0.06,8447.222222222223
-0.11,-0.06,8450.0
-0.135,-0.08,8452.777777777777
-0.175,-0.065,8455.555555555555
-0.195,-0.075,8458.333333333334
-0.21,-0.065,8461.111111111111
-0.21,-0.055,8463.888888888889
-0.21,-0.065,8466.666666666666
-0.22,-0.075,8469.444444444445
-0.245,-0.07,8472.222222222223
-0.25,-0.065,8475.0
-0.235,-0.055,8477.777777777777
-0.22,-0.065,8480.555555555555
-0.23,-0.06,8483.333333333334
-0.23,-0.075,8486.111111111111
-0.24,-0.07,8488.888888888889
-0.245,-0.065,8491.666666666666
-0.235,-0.06,8494.444444444445
-0.23,-0.065,8497.222222222223
-0.235,-0.07,8500.0
-0.24,-0.08,8502.777777777777
-0.255,-0.085,8505.555555555555
-0.25,-0.075,8508.333333333334
-0.23,-0.06,8511.111111111111
-0.235,-0.07,8513.888888888889
-0.24,-0.08,8516.666666666666
-0.265,-0.095,8519.444444444445
-0.255,-0.08,8522.222222222223
-0.26,-0.085,8525.0
-0.25,-0.075,8527.777777777777
-0.23,-0.08,8530.555555555555
-0.235,-0.085,8533.333333333334
-0.235,-0.095,8536.111111111111
-0.24,-0.09,8538.888888888889
-0.23,-0.085,8541.666666666666
-0.225,-0.085,8544.444444444445
-0.235,-0.08,8547.222222222223
-0.24,-0.075,8550.0
-0.24,-0.08,8552.777777777777
-0.24,-0.095,8555.555555555555
-0.22,-0.09,8558.333333333334
-0.215,-0.08,8561.111111111111
-0.205,-0.085,8563.888888888889
-0.21,-0.09,8566.666666666666
-0.215,-0.085,8569.444444444445
-0.22,-0.09,8572.222222222223
-0.225,-0.07,8575.0
-0.21,-0.065,8577.777777777777
-0.21,-0.07,8580.555555555555
-0.21,-0.07,8583.333333333334
-0.215,-0.06,8586.111111111111
-0.235,-0.06,8588.888888888889
-0.255,-0.03,8591.666666666666
-0.26,-0.005,8594.444444444445
-0.265,0.02,8597.222222222223
-0.265,0.045,8600.0
-0.27,0.045,8602.777777777777
-0.25,0.03,8605.555555555555
-0.155,0.015,8608.333333333334
-0.04,-0.01,8611.111111111111
0.05,-0.06,8613.888888888889
0.15,-0.14,8616.666666666666
0.215,-0.22,8619.444444444445
0.275,-0.315,8622.222222222223
0.32,-0.395,8625.0
0.39,-0.455,8627.777777777777
0.49,-0.585,8630.555555555555
0.595,-0.755,8633.333333333334
0.69,-0.925,8636.111111111111
0.78,-1.06,8638.888888888889
0.86,-1.165,8641.666666666666
0.935,-1.21,8644.444444444445
0.97,-1.24,8647.222222222223
0.98,-1.26,8650.0
0.95,-1.27,8652.777777777777
0.94,-1.265,8655.555555555555
0.915,-1.215,8658.333333333334
0.88,-1.155,8661.111111111111
0.8,-1.095,8663.888888888889
0.685,-1.035,8666.666666666666
0.585,-0.985,8669.444444444445
0.495,-0.93,8672.222222222223
0.41,-0.865,8675.0
0.315,-0.785,8677.777777777777
0.2,-0.73,8680.555555555555
0.07,-0.665,8683.333333333334
-0.1,-0.62,8686.111111111111
-0.265,-0.57,8688.888888888889
-0.375,-0.51,8691.666666666666
-0.48,-0.465,8694.444444444445
-0.59,-0.45,8697.222222222223
-0.68,-0.42,8700.0
-0.75,-0.395,8702.777777777777
-0.79,-0.355,8705.555555555555
-0.825,-0.315,8708.333333333334
-0.83,-0.29,8711.111111111111
-0.835,-0.26,8713.888888888889
-0.835,-0.245,8716.666666666666
-0.83,-0.235,8719.444444444445
-0.845,-0.2,8722.222222222223
-0.845,-0.18,8725.0
-0.82,-0.145,8727.777777777777
-0.775,-0.115,8730.555555555555
-0.755,-0.085,8733.333333333334
-0.73,-0.08,8736.111111111111
-0.7,-0.065,8738.888888888889
-0.67,-0.025,8741.666666666666
-0.65,0.005,8744.444444444445
-0.625,0.025,8747.222222222223
-0.61,0.055,8750.0
-0.605,0.055,8752.777777777777
-0.59,0.065,8755.555555555555
-0.555,0.09,8758.333333333334
-0.515,0.12,8761.111111111111
-0.49,0.12,8763.888888888889
-0.49,0.135,8766.666666666666
-0.48,0.125,8769.444444444445
-0.49,0.135,8772.222222222223
-0.465,0.145,8775.0
-0.455,0.165,8777.777777777777
-0.455,0.16,8780.555555555555
-0.445,0.16,8783.333333333334
-0.45,0.15,8786.111111111111
-0.46,0.155,8788.888888888889
-0.465,0.165,8791.666666666666
-0.46,0.17,8794.444444444445
-0.465,0.18,8797.222222222223
-0.455,0.175,8800.0
-0.475,0.185,8802.777777777777
-0.475,0.17,8805.555555555555
-0.475,0.19,8808.333333333334
-0.46,0.2,8811.111111111111
-0.465,0.19,8813.888888888889
-0.46,0.185,8816.666666666666
-0.475,0.18,8819.444444444445
-0.485,0.195,8822.222222222223
-0.495,0.21,8825.0
-0.485,0.22,8827.777777777777
-0.48,0.225,8830.555555555555
-0.48,0.225,8833.333333333334
-0.5,0.225,8836.111111111111
-0.51,0.235,8838.888888888889
-0.505,0.245,8841.666666666666
-0.49,0.26,8844.444444444445
-0.49,0.26,8847.222222222223
-0.495,0.245,8850.0
-0.495,0.24,8852.777777777777
-0.5,0.245,8855.555555555555
-0.5,0.25,8858.333333333334
-0.485,0.26,8861.111111111111
-0.47,0.265,8863.888888888889
-0.475,0.255,8866.666666666666
-0.47,0.25,8869.444444444445
-0.475,0.25,8872.222222222223
-0.47,0.265,8875.0
-0.45,0.27,8877.777777777777
-0.435,0.275,8880.555555555555
-0.435,0.265,8883.333333333334
-0.435,0.27,8886.111111111111
-0.43,0.26,8888.888888888889
-0.415,0.26,8891.666666666666
-0.41,0.275,8894.444444444445
-0.39,0.27,8897.222222222223
-0.39,0.275,8900.0
-0.385,0.255,8902.777777777777
-0.385,0.25,8905.555555555555
-0.375,0.255,8908.333333333334
-0.365,0.265,8911.111111111111
-0.335,0.26,8913.888888888889
-0.315,0.25,8916.666666666666
-0.31,0.245,8919.444444444445
-0.315,0.24,8922.222222222223
-0.305,0.235,8925.0
-0.285,0.245,8927.777777777777
-0.255,0.255,8930.555555555555
-0.245,0.24,8933.333333333334
-0.235,0.245,8936.111111111111
-0.24,0.235,8938.888888888889
-0.225,0.23,8941.666666666666
-0.215,0.245,8944.444444444445
-0.175,0.225,8947.222222222223
-0.16,0.215,8950.0
-0.145,0.195,8952.777777777777
-0.155,0.2,8955.555555555555
-0.15,0.2,8958.333333333334
-0.135,0.21,8961.111111111111
-0.12,0.205,8963.888888888889
-0.12,0.195,8966.666666666666
-0.11,0.16,8969.444444444445
-0.11,0.165,8972.222222222223
-0.1,0.17,8975.0
-0.08,0.17,8977.777777777777
-0.06,0.175,8980.555555555555
-0.05,0.16,8983.333333333334
-0.045,0.145,8986.111111111111
-0.055,0.135,8988.888888888889
-0.04,0.14,8991.666666666666
-0.04,0.135,8994.444444444445
-0.01,0.135,8997.222222222223
0.015,0.125,9000.0
0.02,0.11,9002.777777777777
0.015,0.12,9005.555555555555
0.0,0.12,9008.333333333334
0.01,0.135,9011.111111111111
0.025,0.12,9013.888888888889
0.025,0.115,9016.666666666666
0.02,0.1,9019.444444444445
0.015,0.095,9022.222222222223
0.015,0.085,9025.0
0.025,0.09,9027.777777777777
0.015,0.08,9030.555555555555
-0.005,0.065,9033.333333333334
-0.025,0.065,9036.111111111111
-0.035,0.05,9038.888888888889
-0.025,0.055,9041.666666666666
0.0,0.08,9044.444444444445
0.025,0.07,9047.222222222223
0.03,0.055,9050.0
0.015,0.055,9052.777777777777
-0.005,0.065,9055.555555555555
-0.015,0.075,9058.333333333334
-0.005,0.11,9061.111111111111
-0.005,0.145,9063.888888888889
-0.005,0.19,9066.666666666666
-0.03,0.195,9069.444444444445
-0.035,0.185,9072.222222222223
-0.035,0.165,9075.0
-0.035,0.125,9077.777777777777
-0.03,0.105,9080.555555555555
-0.035,0.08,9083.333333333334
-0.06,0.11,9086.111111111111
-0.065,0.135,9088.888888888889
-0.05,0.15,9091.666666666666
-0.04,0.135,9094.444444444445
-0.045,0.1,9097.222222222223
-0.06,0.06,9100.0
-0.095,0.015,9102.777777777777
-0.135,-0.02,9105.555555555555
-0.16,-0.03,9108.333333333334
-0.18,-0.025,9111.111111111111
-0.2,-0.005,9113.888888888889
-0.225,-0.01,9116.666666666666
-0.265,0.0,9119.444444444445
-0.29,0.015,9122.222222222223
-0.32,0.04,9125.0
-0.325,0.06,9127.777777777777
-0.335,0.075,9130.555555555555
-0.345,0.08,9133.333333333334
-0.36,0.07,9136.111111111111
-0.385,0.08,9138.888888888889
-0.37,0.08,9141.666666666666
-0.36,0.09,9144.444444444445
-0.335,0.095,9147.222222222223
-0.345,0.075,9150.0
-0.345,0.07,9152.777777777777
-0.36,0.075,9155.555555555555
-0.365,0.075,9158.333333333334
-0.35,0.085,9161.111111111111
-0.335,0.08,9163.888888888889
-0.34,0.075,9166.666666666666
-0.355,0.06,9169.444444444445
-0.365,0.055,9172.222222222223
-0.36,0.07,9175.0
-0.345,0.08,9177.777777777777
-0.335,0.085,9180.555555555555
-0.345,0.075,9183.333333333334
-0.36,0.065,9186.111111111111
-0.365,0.07,9188.888888888889
-0.36,0.07,9191.666666666666
-0.35,0.095,9194.444444444445
-0.335,0.07,9197.222222222223
-0.345,0.065,9200.0
-0.35,0.065,9202.777777777777
-0.375,0.065,9205.555555555555
-0.35,0.075,9208.333333333334
-0.34,0.075,9211.111111111111
-0.32,0.08,9213.888888888889
-0.325,0.075,9216.666666666666
-0.335,0.075,9219.444444444445
-0.345,0.065,9222.222222222223
-0.345,0.07,9225.0
-0.34,0.08,9227.777777777777
-0.33,0.075,9230.555555555555
-0.305,0.075,9233.333333333334
-0.315,0.075,9236.111111111111
-0.33,0.07,9238.888888888889
-0.33,0.085,9241.666666666666
-0.31,0.1,9244.444444444445
-0.315,0.1,9247.222222222223
-0.31,0.11,9250.0
-0.325,0.125,9252.777777777777
-0.355,0.14,9255.555555555555
-0.35,0.165,9258.333333333334
-0.305,0.185,9261.111111111111
-0.22,0.185,9263.888888888889
-0.11,0.16,9266.666666666666
0.02,0.1,9269.444444444445
0.12,0.05,9272.222222222223
0.2,-0.01,9275.0
0.285,-0.085,9277.777777777777
0.345,-0.165,9280.555555555555
0.395,-0.22,9283.333333333334
0.43,-0.295,9286.111111111111
0.495,-0.365,9288.888888888889
0.565,-0.47,9291.666666666666
0.655,-0.585,9294.444444444445
0.74,-0.725,9297.222222222223
0.805,-0.855,9300.0
0.82,-0.96,9302.777777777777
0.795,-1.0,9305.555555555555
0.755,-0.98,9308.333333333334
0.73,-0.94,9311.111111111111
0.7,-0.89,9313.888888888889
0.65,-0.85,9316.666666666666
0.56,-0.815,9319.444444444445
0.445,-0.765,9322.222222222223
0.365,-0.705,9325.0
0.295,-0.665,9327.777777777777
0.21,-0.61,9330.555555555555
0.11,-0.545,9333.333333333334
0.005,-0.515,9336.111111111111
-0.15,-0.465,9338.888888888889
-0.305,-0.39,9341.666666666666
-0.45,-0.35,9344.444444444445
-0.555,-0.315,9347.222222222223
-0.66,-0.295,9350.0
-0.77,-0.275,9352.777777777777
-0.87,-0.25,9355.555555555555
-0.925,-0.195,9358.333333333334
-0.95,-0.14,9361.111111111111
-0.97,-0.115,9363.888888888889
-0.96,-0.115,9366.666666666666
-0.975,-0.1,9369.444444444445
-0.975,-0.08,9372.222222222223
-0.95,-0.05,9375.0
-0.94,-0.02,9377.777777777777
-0.915,0.0,9380.555555555555
-0.895,0.025,9383.333333333334
-0.86,0.035,9386.111111111111
-0.84,0.06,9388.888888888889
-0.82,0.09,9391.666666666666
-0.775,0.125,9394.444444444445
-0.75,0.14,9397.222222222223
-0.72,0.15,9400.0
-0.725,0.16,9402.777777777777
-0.705,0.165,9405.555555555555
-0.685,0.185,9408.333333333334
-0.64,0.205,9411.111111111111
-0.61,0.22,9413.888888888889
-0.61,0.22,9416.666666666666
-0.6,0.215,9419.444444444445
-0.61,0.22,9422.222222222223
-0.575,0.24,9425.0
-0.545,0.25,9427.777777777777
-0.53,0.24,9430.555555555555
-0.53,0.24,9433.333333333334
-0.545,0.235,9436.111111111111
-0.555,0.235,9438.888888888889
-0.56,0.23,9441.666666666666
-0.555,0.245,9444.444444444445
-0.55,0.245,9447.222222222223
-0.545,0.245,9450.0
-0.56,0.24,9452.777777777777
-0.565,0.225,9455.555555555555
-0.565,0.255,9458.333333333334
-0.565,0.27,9461.111111111111
-0.54,0.26,9463.888888888889
-0.56,0.26,9466.666666666666
-0.565,0.25,9469.444444444445
-0.58,0.265,9472.222222222223
-0.565,0.275,9475.0
-0.555,0.27,9477.777777777777
-0.54,0.275,9480.555555555555
-0.55,0.265,9483.333333333334
-0.56,0.27,9486.111111111111
-0.56,0.27,9488.888888888889
-0.545,0.275,9491.666666666666
-0.54,0.285,9494.444444444445
-0.525,0.29,9497.222222222223
-0.535,0.275,9500.0
-0.535,0.275,9502.777777777777
-0.545,0.28,9505.555555555555
-0.535,0.29,9508.333333333334
-0.525,0.285,9511.111111111111
-0.51,0.3,9513.888888888889
-0.505,0.295,9516.666666666666
-0.5,0.29,9519.444444444445
-0.5,0.295,9522.222222222223
-0.475,0.305,9525.0
-0.46,0.295,9527.777777777777
-0.435,0.3,9530.555555555555
-0.435,0.29,9533.333333333334
-0.445,0.285,9536.111111111111
-0.445,0.275,9538.888888888889
-0.42,0.28,9541.666666666666
-0.41,0.285,9544.444444444445
-0.395,0.29,9547.222222222223
-0.385,0.285,9550.0
-0.4,0.27,9552.777777777777
-0.38,0.275,9555.555555555555
-0.37,0.28,9558.333333333334
-0.36,0.275,9561.111111111111
-0.34,0.285,9563.888888888889
-0.32,0.265,9566.666666666666
-0.325,0.25,9569.444444444445
-0.33,0.26,9572.222222222223
-0.315,0.255,9575.0
-0.285,0.27,9577.777777777777
-0.265,0.275,9580.555555555555
-0.255,0.255,9583.333333333334
-0.23,0.25,9586.111111111111
-0.225,0.255,9588.888888888889
-0.21,0.27,9591.666666666666
-0.205,0.275,9594.444444444445
-0.175,0.24,9597.222222222223
-0.175,0.22,9600.0
-0.16,0.19,9602.777777777777
-0.175,0.195,9605.555555555555
-0.17,0.2,9608.333333333334
-0.16,0.2,9611.111111111111
-0.135,0.19,9613.888888888889
-0.14,0.2,9616.666666666666
-0.135,0.18,9619.444444444445
-0.135,0.18,9622.222222222223
-0.12,0.18,9625.0
-0.11,0.19,9627.777777777777
-0.1,0.185,9630.555555555555
-0.085,0.195,9633.333333333334
-0.085,0.195,9636.111111111111
-0.09,0.2,9638.888888888889
-0.065,0.2,9641.666666666666
-0.05,0.205,9644.444444444445
-0.04,0.165,9647.222222222223
-0.05,0.135,9650.0
-0.045,0.125,9652.777777777777
-0.05,0.13,9655.555555555555
-0.04,0.135,9658.333333333334
-0.02,0.145,9661.111111111111
-0.015,0.12,9663.888888888889
-0.035,0.105,9666.666666666666
-0.055,0.065,9669.444444444445
-0.075,0.075,9672.222222222223
-0.085,0.085,9675.0
-0.05,0.075,9677.777777777777
-0.04,0.075,9680.555555555555
-0.04,0.075,9683.333333333334
-0.05,0.07,9686.111111111111
-0.055,0.065,9688.888888888889
-0.075,0.085,9691.666666666666
-0.075,0.085,9694.444444444445
-0.065,0.08,9697.222222222223
-0.065,0.075,9700.0
-0.075,0.07,9702.777777777777
-0.08,0.075,9705.555555555555
-0.085,0.075,9708.333333333334
-0.075,0.085,9711.111111111111
-0.065,0.085,9713.888888888889
-0.07,0.085,9716.666666666666
-0.075,0.065,9719.444444444445
-0.095,0.065,9722.222222222223
-0.105,0.075,9725.0
-0.09,0.095,9727.777777777777
-0.08,0.095,9730.555555555555
-0.08,0.09,9733.333333333334
-0.09,0.085,9736.111111111111
-0.11,0.09,9738.888888888889
-0.13,0.105,9741.666666666666
-0.135,0.115,9744.444444444445
-0.17,0.115,9747.222222222223
-0.185,0.105,9750.0
-0.225,0.1,9752.777777777777
-0.265,0.1,9755.555555555555
-0.29,0.115,9758.333333333334
-0.305,0.12,9761.111111111111
-0.325,0.12,9763.888888888889
-0.34,0.12,9766.666666666666
-0.365,0.125,9769.444444444445
-0.36,0.15,9772.222222222223
-0.355,0.165,9775.0
-0.35,0.17,9777.777777777777
-0.355,0.17,9780.555555555555
-0.36,0.145,9783.333333333334
-0.365,0.11,9786.111111111111
-0.375,0.1,9788.888888888889
-0.365,0.11,9791.666666666666
-0.365,0.105,9794.444444444445
-0.35,0.095,9797.222222222223
-0.36,0.095,9800.0
-0.38,0.07,9802.777777777777
-0.37,0.07,9805.555555555555
-0.37,0.08,9808.333333333334
-0.35,0.08,9811.111111111111
-0.355,0.08,9813.888888888889
-0.375,0.09,9816.666666666666
-0.38,0.09,9819.444444444445
-0.395,0.085,9822.222222222223
-0.38,0.085,9825.0
-0.365,0.095,9827.777777777777
-0.355,0.095,9830.555555555555
-0.335,0.095,9833.333333333334
-0.355,0.095,9836.111111111111
-0.365,0.08,9838.888888888889
-0.365,0.08,9841.666666666666
-0.37,0.105,9844.444444444445
-0.355,0.09,9847.222222222223
-0.36,0.08,9850.0
-0.36,0.09,9852.777777777777
-0.37,0.09,9855.555555555555
-0.36,0.095,9858.333333333334
-0.365,0.105,9861.111111111111
-0.35,0.085,9863.888888888889
-0.35,0.095,9866.666666666666
-0.345,0.075,9869.444444444445
-0.37,0.085,9872.222222222223
-0.365,0.095,9875.0
-0.355,0.09,9877.777777777777
-0.35,0.11,9880.555555555555
-0.345,0.09,9883.333333333334
-0.34,0.085,9886.111111111111
-0.33,0.09,9888.888888888889
-0.325,0.115,9891.666666666666
-0.32,0.14,9894.444444444445
-0.335,0.145,9897.222222222223
-0.36,0.17,9900.0
-0.38,0.165,9902.777777777777
-0.39,0.175,9905.555555555555
-0.365,0.2,9908.333333333334
-0.32,0.205,9911.111111111111
-0.205,0.175,9913.888888888889
-0.08,0.125,9916.666666666666
0.025,0.075,9919.444444444445
0.085,0.005,9922.222222222223
0.145,-0.05,9925.0
0.17,-0.105,9927.777777777777
0.195,-0.175,9930.555555555555
0.24,-0.26,9933.333333333334
0.295,-0.38,9936.111111111111
0.355,-0.525,9938.888888888889
0.43,-0.665,9941.666666666666
0.51,-0.785,9944.444444444445
0.585,-0.9,9947.222222222223
0.595,-0.965,9950.0
0.59,-0.98,9952.777777777777
0.55,-0.98,9955.555555555555
0.545,-0.955,9958.333333333334
0.54,-0.915,9961.111111111111
0.53,-0.9,9963.888888888889
0.505,-0.85,9966.666666666666
0.435,-0.795,9969.444444444445
0.36,-0.74,9972.222222222223
0.3,-0.68,9975.0
0.235,-0.615,9977.777777777777
0.175,-0.56,9980.555555555555
0.11,-0.51,9983.333333333334
0.0,-0.47,9986.111111111111
-0.125,-0.425,9988.888888888889
-0.245,-0.375,9991.666666666666
-0.355,-0.32,9994.444444444445
-0.465,-0.29,9997.222222222223
-0.595,-0.27,10000.0
-0.7,-0.255,10002.777777777777
-0.79,-0.22,10005.555555555555
-0.84,-0.16,10008.333333333334
-0.855,-0.115,10011.111111111111
-0.865,-0.1,10013.888888888889
-0.87,-0.08,10016.666666666666
-0.885,-0.085,10019.444444444445
-0.89,-0.05,10022.222222222223
-0.89,-0.015,10025.0
-0.875,0.02,10027.777777777777
-0.855,0.03,10030.555555555555
-0.84,0.065,10033.333333333334
-0.825,0.065,10036.111111111111
-0.79,0.085,10038.888888888889
-0.755,0.115,10041.666666666666
-0.725,0.145,10044.444444444445
-0.705,0.165,10047.222222222223
-0.69,0.175,10050.0
-0.685,0.185,10052.777777777777
-0.67,0.2,10055.555555555555
-0.635,0.22,10058.333333333334
-0.6,0.24,10061.111111111111
-0.585,0.245,10063.888888888889
-0.575,0.245,10066.666666666666
-0.565,0.24,10069.444444444445
-0.57,0.24,10072.222222222223
-0.56,0.26,10075.0
-0.54,0.265,10077.777777777777
-0.525,0.27,10080.555555555555
-0.53,0.265,10083.333333333334
-0.54,0.25,10086.111111111111
-0.54,0.255,10088.888888888889
-0.545,0.265,10091.666666666666
-0.54,0.28,10094.444444444445
-0.53,0.275,10097.222222222223
-0.54,0.275,10100.0
-0.545,0.28,10102.777777777777
-0.56,0.265,10105.555555555555
-0.57,0.285,10108.333333333334
-0.55,0.3,10111.111111111111
-0.53,0.295,10113.888888888889
-0.525,0.285,10116.666666666666
-0.535,0.29,10119.444444444445
-0.55,0.29,10122.222222222223
-0.56,0.305,10125.0
-0.54,0.31,10127.777777777777
-0.535,0.315,10130.555555555555
-0.535,0.315,10133.333333333334
-0.535,0.305,10136.111111111111
-0.535,0.31,10138.888888888889
-0.54,0.32,10141.666666666666
-0.545,0.335,10144.444444444445
-0.555,0.345,10147.222222222223
-0.55,0.35,10150.0
-0.545,0.335,10152.777777777777
-0.545,0.345,10155.555555555555
-0.535,0.34,10158.333333333334
-0.525,0.35,10161.111111111111
-0.51,0.355,10163.888888888889
-0.505,0.35,10166.666666666666
-0.485,0.335,10169.444444444445
-0.5,0.335,10172.222222222223
-0.485,0.35,10175.0
-0.46,0.355,10177.777777777777
-0.435,0.355,10180.555555555555
-0.44,0.335,10183.333333333334
-0.44,0.335,10186.111111111111
-0.435,0.325,10188.888888888889
-0.415,0.345,10191.666666666666
-0.4,0.35,10194.444444444445
-0.395,0.33,10197.222222222223
-0.38,0.335,10200.0
-0.39,0.315,10202.777777777777
-0.37,0.315,10205.555555555555
-0.35,0.33,10208.333333333334
-0.33,0.32,10211.111111111111
-0.315,0.315,10213.888888888889
-0.31,0.315,10216.666666666666
-0.3,0.305,10219.444444444445
-0.305,0.3,10222.222222222223
-0.29,0.295,10225.0
-0.275,0.31,10227.777777777777
-0.25,0.295,10230.555555555555
-0.23,0.28,10233.333333333334
-0.23,0.27,10236.111111111111
-0.245,0.27,10238.888888888889
-0.23,0.27,10241.666666666666
-0.21,0.275,10244.444444444445
-0.185,0.27,10247.222222222223
-0.165,0.25,10250.0
-0.165,0.24,10252.777777777777
-0.175,0.22,10255.555555555555
-0.165,0.23,10258.333333333334
-0.16,0.24,10261.111111111111
-0.135,0.225,10263.888888888889
-0.14,0.215,10266.666666666666
-0.155,0.19,10269.444444444445
-0.17,0.165,10272.222222222223
-0.155,0.185,10275.0
-0.14,0.195,10277.777777777777
-0.12,0.195,10280.555555555555
-0.105,0.205,10283.333333333334
-0.1,0.185,10286.111111111111
-0.09,0.185,10288.888888888889
-0.08,0.195,10291.666666666666
-0.065,0.195,10294.444444444445
-0.055,0.185,10297.222222222223
-0.06,0.18,10300.0
-0.06,0.165,10302.777777777777
-0.055,0.16,10305.555555555555
-0.05,0.185,10308.333333333334
-0.055,0.195,10311.111111111111
-0.065,0.17,10313.888888888889
-0.095,0.135,10316.666666666666
-0.1,0.09,10319.444444444445
-0.1,0.095,10322.222222222223
-0.085,0.1,10325.0
-0.07,0.08,10327.777777777777
-0.06,0.055,10330.555555555555
-0.06,0.025,10333.333333333334
-0.06,0.035,10336.111111111111
-0.055,0.03,10338.888888888889
-0.05,0.035,10341.666666666666
-0.045,0.065,10344.444444444445
-0.035,0.075,10347.222222222223
-0.03,0.085,10350.0
-0.055,0.1,10352.777777777777
-0.075,0.11,10355.555555555555
-0.095,0.13,10358.333333333334
-0.12,0.16,10361.111111111111
-0.125,0.2,10363.888888888889
-0.13,0.225,10366.666666666666
-0.14,0.25,10369.444444444445
-0.14,0.305,10372.222222222223
-0.135,0.375,10375.0
-0.135,0.5,10377.777777777777
-0.16,0.605,10380.555555555555
-0.18,0.57,10383.333333333334
-0.215,0.42,10386.111111111111
-0.215,0.225,10388.888888888889
-0.215,0.09,10391.666666666666
-0.215,0.02,10394.444444444445
-0.245,0.0,10397.222222222223
-0.31,0.015,10400.0
-0.385,0.035,10402.777777777777
-0.405,0.025,10405.555555555555
-0.38,0.015,10408.333333333334
-0.345,-0.02,10411.111111111111
-0.33,-0.03,10413.888888888889
-0.34,-0.025,10416.666666666666
-0.395,-0.015,10419.444444444445
-0.44,0.02,10422.222222222223
-0.435,0.04,10425.0
-0.425,0.07,10427.777777777777
-0.405,0.075,10430.555555555555
-0.395,0.075,10433.333333333334
-0.4,0.075,10436.111111111111
-0.41,0.09,10438.888888888889
-0.395,0.08,10441.666666666666
-0.39,0.09,10444.444444444445
-0.395,0.11,10447.222222222223
-0.39,0.1,10450.0
-0.395,0.09,10452.777777777777
-0.4,0.095,10455.555555555555
-0.385,0.095,10458.333333333334
-0.39,0.1,10461.111111111111
-0.37,0.105,10463.888888888889
-0.38,0.09,10466.666666666666
-0.385,0.085,10469.444444444445
-0.39,0.09,10472.222222222223
-0.385,0.085,10475.0
-0.37,0.105,10477.777777777777
-0.355,0.1,10480.555555555555
-0.365,0.09,10483.333333333334
-0.38,0.07,10486.111111111111
-0.38,0.085,10488.888888888889
-0.385,0.07,10491.666666666666
-0.37,0.105,10494.444444444445
-0.355,0.09,10497.222222222223
-0.37,0.085,10500.0
-0.375,0.075,10502.777777777777
-0.365,0.075,10505.555555555555
-0.355,0.08,10508.333333333334
-0.35,0.08,10511.111111111111
-0.345,0.095,10513.888888888889
-0.34,0.095,10516.666666666666
-0.34,0.085,10519.444444444445
-0.355,0.09,10522.222222222223
-0.37,0.115,10525.0
-0.36,0.145,10527.777777777777
-0.385,0.17,10530.555555555555
-0.39,0.185,10533.333333333334
-0.405,0.185,10536.111111111111
-0.41,0.195,10538.888888888889
-0.37,0.215,10541.666666666666
-0.29,0.195,10544.444444444445
-0.17,0.145,10547.222222222223
-0.065,0.085,10550.0
0.015,0.0,10552.777777777777
0.055,-0.075,10555.555555555555
0.08,-0.135,10558.333333333334
0.115,-0.185,10561.111111111111
0.195,-0.28,10563.888888888889
0.275,-0.425,10566.666666666666
0.365,-0.59,10569.444444444445
0.435,-0.755,10572.222222222223
0.505,-0.865,10575.0
0.57,-0.93,10577.777777777777
0.61,-0.965,10580.555555555555
0.625,-0.985,10583.333333333334
0.61,-0.995,10586.111111111111
0.6,-0.97,10588.888888888889
0.6,-0.93,10591.666666666666
0.565,-0.855,10594.444444444445
0.515,-0.815,10597.222222222223
0.425,-0.75,10600.0
0.34,-0.7,10602.777777777777
0.275,-0.64,10605.555555555555
0.23,-0.57,10608.333333333334
0.17,-0.52,10611.111111111111
0.065,-0.465,10613.888888888889
-0.05,-0.43,10616.666666666666
-0.195,-0.39,10619.444444444445
-0.33,-0.35,10622.222222222223
-0.465,-0.295,10625.0
-0.58,-0.25,10627.777777777777
-0.665,-0.235,10630.555555555555
-0.725,-0.215,10633.333333333334
-0.785,-0.19,10636.111111111111
-0.825,-0.16,10638.888888888889
-0.85,-0.125,10641.666666666666
-0.855,-0.105,10644.444444444445
-0.86,-0.085,10647.222222222223
-0.84,-0.07,10650.0
-0.85,-0.05,10652.777777777777
-0.87,-0.015,10655.555555555555
-0.87,0.01,10658.333333333334
-0.845,0.05,10661.111111111111
-0.81,0.07,10663.888888888889
-0.775,0.08,10666.666666666666
-0.755,0.1,10669.444444444445
-0.76,0.1,10672.222222222223
-0.715,0.15,10675.0
-0.695,0.175,10677.777777777777
-0.68,0.19,10680.555555555555
-0.65,0.205,10683.333333333334
-0.64,0.21,10686.111111111111
-0.615,0.22,10688.888888888889
-0.595,0.24,10691.666666666666
-0.57,0.26,10694.444444444445
-0.545,0.25,10697.222222222223
-0.54,0.265,10700.0
-0.53,0.255,10702.777777777777
-0.55,0.265,10705.555555555555
-0.54,0.26,10708.333333333334
-0.52,0.28,10711.111111111111
-0.51,0.285,10713.888888888889
-0.5,0.28,10716.666666666666
-0.515,0.275,10719.444444444445
-0.53,0.275,10722.222222222223
-0.52,0.28,10725.0
-0.51,0.295,10727.777777777777
-0.505,0.31,10730.555555555555
-0.525,0.305,10733.333333333334
-0.535,0.29,10736.111111111111
-0.55,0.295,10738.888888888889
-0.55,0.305,10741.666666666666
-0.545,0.32,10744.444444444445
-0.535,0.32,10747.222222222223
-0.525,0.325,10750.0
-0.535,0.31,10752.777777777777
-0.545,0.32,10755.555555555555
-0.545,0.33,10758.333333333334
-0.53,0.345,10761.111111111111
-0.53,0.34,10763.888888888889
-0.54,0.35,10766.666666666666
-0.535,0.34,10769.444444444445
-0.55,0.345,10772.222222222223
-0.545,0.36,10775.0
-0.535,0.365,10777.777777777777
-0.525,0.36,10780.555555555555
-0.525,0.355,10783.333333333334
-0.53,0.355,10786.111111111111
-0.525,0.36,10788.888888888889
-0.52,0.36,10791.666666666666
-0.51,0.385,10794.444444444445
-0.485,0.375,10797.222222222223
-0.485,0.375,10800.0
-0.495,0.365,10802.777777777777
-0.5,0.375,10805.555555555555
-0.475,0.375,10808.333333333334
-0.46,0.38,10811.111111111111
-0.435,0.385,10813.888888888889
-0.435,0.385,10816.666666666666
-0.425,0.38,10819.444444444445
-0.41,0.405,10822.222222222223
-0.39,0.45,10825.0
-0.365,0.48,10827.777777777777
-0.36,0.52,10830.555555555555
-0.35,0.495,10833.333333333334
-0.335,0.44,10836.111111111111
-0.345,0.39,10838.888888888889
-0.345,0.355,10841.666666666666
-0.33,0.35,10844.444444444445
-0.325,0.365,10847.222222222223
-0.32,0.395,10850.0
-0.315,0.42,10852.777777777777
-0.32,0.445,10855.555555555555
-0.305,0.49,10858.333333333334
-0.3,0.555,10861.111111111111
-0.285,0.585,10863.888888888889
-0.24,0.49,10866.666666666666
-0.2,0.355,10869.444444444445
-0.17,0.21,10872.222222222223
-0.165,0.155,10875.0
-0.17,0.145,10877.777777777777
-0.19,0.16,10880.555555555555
-0.215,0.17,10883.333333333334
-0.245,0.18,10886.111111111111
-0.235,0.175,10888.888888888889
-0.215,0.19,10891.666666666666
-0.18,0.205,10894.444444444445
-0.165,0.195,10897.222222222223
-0.145,0.205,10900.0
-0.135,0.2,10902.777777777777
-0.14,0.18,10905.555555555555
-0.11,0.185,10908.333333333334
-0.085,0.17,10911.111111111111
-0.055,0.16,10913.888888888889
-0.045,0.145,10916.666666666666
-0.045,0.13,10919.444444444445
-0.05,0.135,10922.222222222223
-0.04,0.145,10925.0
-0.03,0.16,10927.777777777777
-0.01,0.16,10930.555555555555
-0.015,0.15,10933.333333333334
-0.01,0.145,10936.111111111111
-0.03,0.135,10938.888888888889
-0.04,0.135,10941.666666666666
-0.035,0.135,10944.444444444445
-0.045,0.12,10947.222222222223
-0.055,0.11,10950.0
-0.055,0.105,10952.777777777777
-0.06,0.095,10955.555555555555
-0.04,0.095,10958.333333333334
-0.025,0.115,10961.111111111111
-0.015,0.11,10963.888888888889
-0.01,0.09,10966.666666666666
-0.025,0.095,10969.444444444445
-0.04,0.09,10972.222222222223
-0.035,0.095,10975.0
-0.035,0.11,10977.777777777777
-0.025,0.115,10980.555555555555
-0.05,0.11,10983.333333333334
-0.07,0.115,10986.111111111111
-0.075,0.095,10988.888888888889
-0.075,0.1,10991.666666666666
-0.06,0.115,10994.444444444445
-0.06,0.115,10997.222222222223
-0.055,0.105,11000.0
-0.07,0.105,11002.777777777777
-0.07,0.115,11005.555555555555
-0.07,0.135,11008.333333333334
-0.085,0.13,11011.111111111111
-0.105,0.125,11013.888888888889
-0.155,0.12,11016.666666666666
-0.185,0.125,11019.444444444445
-0.22,0.13,11022.222222222223
-0.245,0.13,11025.0
-0.275,0.155,11027.777777777777
-0.29,0.15,11030.555555555555
-0.31,0.135,11033.333333333334
-0.325,0.135,11036.111111111111
-0.36,0.145,11038.888888888889
-0.35,0.145,11041.666666666666
-0.355,0.16,11044.444444444445
-0.355,0.165,11047.222222222223
-0.36,0.145,11050.0
-0.36,0.14,11052.777777777777
-0.375,0.135,11055.555555555555
-0.395,0.145,11058.333333333334
-0.37,0.155,11061.111111111111
-0.375,0.145,11063.888888888889
-0.37,0.13,11066.666666666666
-0.38,0.13,11069.444444444445
-0.4,0.125,11072.222222222223
-0.39,0.135,11075.0
-0.38,0.135,11077.777777777777
-0.37,0.135,11080.555555555555
-0.375,0.145,11083.333333333334
-0.4,0.13,11086.111111111111
-0.4,0.125,11088.888888888889
-0.385,0.13,11091.666666666666
-0.38,0.14,11094.444444444445
-0.365,0.135,11097.222222222223
-0.365,0.12,11100.0
-0.39,0.11,11102.777777777777
-0.385,0.11,11105.555555555555
-0.375,0.12,11108.333333333334
-0.365,0.13,11111.111111111111
-0.35,0.13,11113.888888888889
-0.36,0.12,11116.666666666666
-0.37,0.115,11119.444444444445
-0.375,0.115,11122.222222222223
-0.365,0.13,11125.0
-0.365,0.135,11127.777777777777
-0.36,0.14,11130.555555555555
-0.35,0.125,11133.333333333334
-0.355,0.125,11136.111111111111
-0.36,0.125,11138.888888888889
-0.355,0.125,11141.666666666666
-0.345,0.14,11144.444444444445
-0.335,0.14,11147.222222222223
-0.335,0.14,11150.0
-0.35,0.125,11152.777777777777
-0.36,0.135,11155.555555555555
-0.37,0.16,11158.333333333334
-0.36,0.19,11161.111111111111
-0.375,0.21,11163.888888888889
-0.405,0.24,11166.666666666666
-0.425,0.245,11169.444444444445
-0.425,0.255,11172.222222222223
-0.38,0.25,11175.0
-0.3,0.23,11177.777777777777
-0.2,0.195,11180.555555555555
-0.09,0.135,11183.333333333334
0.005,0.05,11186.111111111111
0.075,-0.04,11188.888888888889
0.125,-0.105,11191.666666666666
0.165,-0.17,11194.444444444445
0.245,-0.28,11197.222222222223
0.345,-0.415,11200.0
0.455,-0.58,11202.777777777777
0.535,-0.755,11205.555555555555
0.64,-0.89,11208.333333333334
0.725,-0.96,11211.111111111111
0.785,-1.005,11213.888888888889
0.82,-1.035,11216.666666666666
0.82,-1.05,11219.444444444445
0.795,-1.04,11222.222222222223
0.775,-0.995,11225.0
0.755,-0.93,11227.777777777777
0.7,-0.885,11230.555555555555
0.6,-0.825,11233.333333333334
0.5,-0.765,11236.111111111111
0.41,-0.695,11238.888888888889
0.33,-0.62,11241.666666666666
0.27,-0.55,11244.444444444445
0.17,-0.51,11247.222222222223
0.05,-0.46,11250.0
-0.105,-0.415,11252.777777777777
-0.265,-0.365,11255.555555555555
-0.385,-0.33,11258.333333333334
-0.5,-0.27,11261.111111111111
-0.62,-0.24,11263.888888888889
-0.745,-0.22,11266.666666666666
-0.81,-0.19,11269.444444444445
-0.86,-0.155,11272.222222222223
-0.895,-0.125,11275.0
-0.905,-0.1,11277.777777777777
-0.9,-0.075,11280.555555555555
-0.9,-0.05,11283.333333333334
-0.915,-0.04,11286.111111111111
-0.93,-0.015,11288.888888888889
-0.915,0.025,11291.666666666666
-0.895,0.05,11294.444444444445
-0.855,0.075,11297.222222222223
-0.82,0.095,11300.0
-0.785,0.115,11302.777777777777
