MLII,V1,time_ms
-0.035,0.035,0.0
-0.035,0.035,2.7777777777777777
-0.035,0.035,5.555555555555555
-0.035,0.035,8.333333333333334
-0.035,0.035,11.11111111111111
-0.035,0.035,13.88888888888889
-0.035,0.035,16.666666666666668
-0.035,0.035,19.444444444444443
-0.035,0.035,22.22222222222222
-0.035,0.06,25.0
-0.02,0.085,27.77777777777778
-0.04,0.07,30.555555555555557
-0.065,0.045,33.333333333333336
-0.08,0.01,36.111111111111114
-0.1,0.01,38.888888888888886
-0.09,0.015,41.666666666666664
-0.08,0.005,44.44444444444444
-0.105,0.0,47.22222222222222
-0.095,-0.025,50.0
-0.125,-0.055,52.77777777777778
-0.135,-0.045,55.55555555555556
-0.125,-0.04,58.333333333333336
-0.115,-0.025,61.111111111111114
-0.105,-0.025,63.888888888888886
-0.12,-0.025,66.66666666666667
-0.13,-0.03,69.44444444444444
-0.125,-0.01,72.22222222222223
-0.12,-0.01,75.0
-0.105,0.005,77.77777777777777
-0.1,0.0,80.55555555555556
-0.115,-0.005,83.33333333333333
-0.125,-0.025,86.11111111111111
-0.13,-0.005,88.88888888888889
-0.13,0.005,91.66666666666667
-0.115,0.015,94.44444444444444
-0.115,0.02,97.22222222222223
-0.11,0.0,100.0
-0.125,0.005,102.77777777777777
-0.13,0.015,105.55555555555556
-0.12,0.035,108.33333333333333
-0.105,0.035,111.11111111111111
-0.105,0.04,113.88888888888889
-0.09,0.015,116.66666666666667
-0.125,0.015,119.44444444444444
-0.135,0.025,122.22222222222223
-0.12,0.03,125.0
-0.1,0.05,127.77777777777777
-0.11,0.035,130.55555555555554
-0.115,0.035,133.33333333333334
-0.12,0.025,136.11111111111111
-0.115,0.04,138.88888888888889
-0.11,0.05,141.66666666666666
-0.09,0.055,144.44444444444446
-0.085,0.05,147.22222222222223
-0.095,0.04,150.0
-0.12,0.045,152.77777777777777
-0.125,0.04,155.55555555555554
-0.12,0.04,158.33333333333334
-0.11,0.06,161.11111111111111
-0.1,0.045,163.88888888888889
-0.115,0.03,166.66666666666666
-0.135,0.02,169.44444444444446
-0.135,0.025,172.22222222222223
-0.14,0.05,175.0
-0.11,0.055,177.77777777777777
-0.13,0.05,180.55555555555554
-0.135,0.03,183.33333333333334
-0.15,0.0,186.11111111111111
-0.14,0.01,188.88888888888889
-0.135,0.02,191.66666666666666
-0.13,0.035,194.44444444444446
-0.14,0.025,197.22222222222223
-0.135,0.025,200.0
-0.145,0.01,202.77777777777777
-0.145,0.015,205.55555555555554
-0.135,0.035,208.33333333333334
-0.12,0.035,211.11111111111111
-0.125,0.035,213.88888888888889
-0.13,0.015,216.66666666666666
-0.145,0.015,219.44444444444446
-0.145,0.025,222.22222222222223
-0.125,0.05,225.0
-0.125,0.06,227.77777777777777
-0.135,0.035,230.55555555555554
-0.13,0.025,233.33333333333334
-0.145,0.02,236.11111111111111
-0.155,0.03,238.88888888888889
-0.15,0.05,241.66666666666666
-0.135,0.045,244.44444444444446
-0.135,0.03,247.22222222222223
-0.14,0.0,250.0
-0.16,-0.005,252.77777777777777
-0.165,0.015,255.55555555555554
-0.15,0.045,258.3333333333333
-0.145,0.07,261.1111111111111
-0.135,0.06,263.8888888888889
-0.15,0.05,266.6666666666667
-0.145,0.055,269.44444444444446
-0.15,0.055,272.22222222222223
-0.14,0.075,275.0
-0.125,0.085,277.77777777777777
-0.12,0.075,280.55555555555554
-0.12,0.07,283.3333333333333
-0.12,0.065,286.1111111111111
-0.115,0.075,288.8888888888889
-0.115,0.08,291.6666666666667
-0.09,0.08,294.44444444444446
-0.07,0.055,297.22222222222223
-0.075,0.02,300.0
-0.09,0.0,302.77777777777777
-0.09,0.025,305.55555555555554
-0.075,0.02,308.3333333333333
-0.065,0.045,311.1111111111111
-0.075,0.04,313.8888888888889
-0.07,0.02,316.6666666666667
-0.11,-0.005,319.44444444444446
-0.095,-0.005,322.22222222222223
-0.1,0.005,325.0
-0.085,-0.005,327.77777777777777
-0.08,-0.005,330.55555555555554
-0.095,-0.025,333.3333333333333
-0.125,-0.03,336.1111111111111
-0.14,-0.055,338.8888888888889
-0.125,-0.055,341.6666666666667
-0.13,-0.05,344.44444444444446
-0.125,-0.045,347.22222222222223
-0.15,-0.04,350.0
-0.155,-0.04,352.77777777777777
-0.165,-0.03,355.55555555555554
-0.145,-0.025,358.3333333333333
-0.15,-0.005,361.1111111111111
-0.145,0.0,363.8888888888889
-0.175,0.005,366.6666666666667
-0.195,0.0,369.44444444444446
-0.205,0.015,372.22222222222223
-0.19,0.04,375.0
-0.185,0.05,377.77777777777777
-0.185,0.035,380.55555555555554
-0.2,0.01,383.3333333333333
-0.205,0.0,386.1111111111111
-0.22,0.01,388.8888888888889
-0.205,0.04,391.6666666666667
-0.185,0.05,394.44444444444446
-0.195,0.045,397.22222222222223
-0.225,0.025,400.0
-0.215,0.035,402.77777777777777
-0.23,0.03,405.55555555555554
-0.22,0.05,408.3333333333333
-0.22,0.055,411.1111111111111
-0.22,0.055,413.8888888888889
-0.23,0.03,416.6666666666667
-0.235,0.025,419.44444444444446
-0.245,0.035,422.22222222222223
-0.235,0.045,425.0
-0.215,0.055,427.77777777777777
-0.225,0.05,430.55555555555554
-0.23,0.045,433.3333333333333
-0.245,0.025,436.1111111111111
-0.25,0.02,438.8888888888889
-0.24,0.04,441.6666666666667
-0.235,0.045,444.44444444444446
-0.215,0.05,447.22222222222223
-0.23,0.04,450.0
-0.25,0.03,452.77777777777777
-0.24,0.035,455.55555555555554
-0.23,0.025,458.3333333333333
-0.22,0.02,461.1111111111111
-0.215,0.025,463.8888888888889
-0.225,0.015,466.6666666666667
-0.24,0.01,469.44444444444446
-0.245,0.015,472.22222222222223
-0.23,0.035,475.0
-0.22,0.055,477.77777777777777
-0.205,0.03,480.55555555555554
-0.195,-0.02,483.3333333333333
-0.185,-0.13,486.1111111111111
-0.175,-0.23,488.8888888888889
-0.135,-0.36,491.6666666666667
-0.09,-0.49,494.44444444444446
-0.035,-0.64,497.22222222222223
0.03,-0.78,500.0
0.11,-0.88,502.77777777777777
0.18,-0.93,505.55555555555554
0.22,-0.925,508.3333333333333
0.22,-0.905,511.1111111111111
0.185,-0.925,513.8888888888889
0.085,-0.94,516.6666666666666
-0.035,-0.925,519.4444444444445
-0.095,-0.9,522.2222222222222
-0.095,-0.845,525.0
-0.025,-0.795,527.7777777777778
0.085,-0.77,530.5555555555555
0.205,-0.75,533.3333333333334
0.34,-0.73,536.1111111111111
0.48,-0.695,538.8888888888889
0.595,-0.665,541.6666666666666
0.67,-0.64,544.4444444444445
0.68,-0.615,547.2222222222222
0.59,-0.57,550.0
0.455,-0.525,552.7777777777778
0.335,-0.43,555.5555555555555
0.23,-0.34,558.3333333333334
0.14,-0.275,561.1111111111111
0.035,-0.225,563.8888888888889
-0.09,-0.175,566.6666666666666
-0.2,-0.125,569.4444444444445
-0.3,-0.05,572.2222222222222
-0.39,0.05,575.0
-0.445,0.115,577.7777777777778
-0.485,0.145,580.5555555555555
-0.51,0.15,583.3333333333334
-0.495,0.155,586.1111111111111
-0.455,0.175,588.8888888888889
-0.425,0.195,591.6666666666666
-0.38,0.205,594.4444444444445
-0.335,0.21,597.2222222222222
-0.33,0.22,600.0
-0.32,0.215,602.7777777777778
-0.33,0.22,605.5555555555555
-0.31,0.25,608.3333333333334
-0.315,0.26,611.1111111111111
-0.3,0.25,613.8888888888889
-0.31,0.235,616.6666666666666
-0.315,0.23,619.4444444444445
-0.32,0.24,622.2222222222222
-0.29,0.265,625.0
-0.285,0.27,627.7777777777778
-0.27,0.265,630.5555555555555
-0.275,0.26,633.3333333333334
-0.295,0.26,636.1111111111111
-0.295,0.265,638.8888888888889
-0.285,0.285,641.6666666666666
-0.285,0.3,644.4444444444445
-0.28,0.29,647.2222222222222
-0.275,0.28,650.0
-0.295,0.275,652.7777777777778
-0.29,0.29,655.5555555555555
-0.275,0.315,658.3333333333334
-0.255,0.34,661.1111111111111
-0.245,0.345,663.8888888888889
-0.23,0.355,666.6666666666666
-0.26,0.335,669.4444444444445
-0.26,0.33,672.2222222222222
-0.25,0.335,675.0
-0.235,0.33,677.7777777777778
-0.235,0.325,680.5555555555555
-0.235,0.325,683.3333333333334
-0.245,0.33,686.1111111111111
-0.245,0.34,688.8888888888889
-0.22,0.37,691.6666666666666
-0.195,0.385,694.4444444444445
-0.175,0.365,697.2222222222222
-0.18,0.37,700.0
-0.18,0.365,702.7777777777778
-0.17,0.38,705.5555555555555
-0.155,0.385,708.3333333333334
-0.14,0.395,711.1111111111111
-0.12,0.385,713.8888888888889
-0.125,0.385,716.6666666666666
-0.12,0.385,719.4444444444445
-0.115,0.385,722.2222222222222
-0.1,0.4,725.0
-0.07,0.4,727.7777777777778
-0.075,0.39,730.5555555555555
-0.045,0.375,733.3333333333334
-0.05,0.345,736.1111111111111
-0.045,0.365,738.8888888888889
-0.005,0.355,741.6666666666666
0.015,0.345,744.4444444444445
0.025,0.32,747.2222222222222
0.03,0.285,750.0
0.03,0.245,752.7777777777778
0.04,0.225,755.5555555555555
0.06,0.23,758.3333333333334
0.085,0.225,761.1111111111111
0.09,0.2,763.8888888888889
0.08,0.165,766.6666666666666
0.08,0.135,769.4444444444445
0.08,0.125,772.2222222222222
0.11,0.11,775.0
0.125,0.105,777.7777777777778
0.14,0.085,780.5555555555555
0.13,0.05,783.3333333333334
0.115,0.04,786.1111111111111
0.09,0.04,788.8888888888889
0.09,0.055,791.6666666666666
0.085,0.055,794.4444444444445
0.06,0.06,797.2222222222222
0.03,0.05,800.0
-0.015,0.055,802.7777777777778
-0.04,0.035,805.5555555555555
-0.06,0.055,808.3333333333334
-0.08,0.07,811.1111111111111
-0.095,0.065,813.8888888888889
-0.115,0.05,816.6666666666666
-0.15,0.035,819.4444444444445
-0.175,0.025,822.2222222222222
-0.175,0.025,825.0
-0.165,0.05,827.7777777777778
-0.17,0.05,830.5555555555555
-0.185,0.03,833.3333333333334
-0.205,0.025,836.1111111111111
-0.235,0.02,838.8888888888889
-0.22,0.04,841.6666666666666
-0.215,0.065,844.4444444444445
-0.205,0.06,847.2222222222222
-0.22,0.05,850.0
-0.245,0.035,852.7777777777778
-0.24,0.04,855.5555555555555
-0.23,0.06,858.3333333333334
-0.23,0.045,861.1111111111111
-0.225,0.06,863.8888888888889
-0.245,0.045,866.6666666666666
-0.275,0.03,869.4444444444445
-0.255,0.035,872.2222222222222
-0.245,0.045,875.0
-0.24,0.07,877.7777777777778
-0.235,0.065,880.5555555555555
-0.235,0.045,883.3333333333334
-0.245,0.045,886.1111111111111
-0.265,0.035,888.8888888888889
-0.25,0.055,891.6666666666666
-0.245,0.065,894.4444444444445
-0.235,0.065,897.2222222222222
-0.245,0.055,900.0
-0.26,0.05,902.7777777777778
-0.255,0.065,905.5555555555555
-0.24,0.075,908.3333333333334
-0.225,0.09,911.1111111111111
-0.245,0.07,913.8888888888889
-0.24,0.065,916.6666666666666
-0.25,0.065,919.4444444444445
-0.25,0.065,922.2222222222222
-0.26,0.085,925.0
-0.235,0.1,927.7777777777778
-0.235,0.095,930.5555555555555
-0.235,0.08,933.3333333333334
-0.24,0.08,936.1111111111111
-0.245,0.065,938.8888888888889
-0.255,0.08,941.6666666666666
-0.24,0.09,944.4444444444445
-0.24,0.09,947.2222222222222
-0.24,0.07,950.0
-0.245,0.055,952.7777777777778
-0.26,0.05,955.5555555555555
-0.235,0.055,958.3333333333334
-0.22,0.07,961.1111111111111
-0.225,0.08,963.8888888888889
-0.245,0.085,966.6666666666666
-0.26,0.075,969.4444444444445
-0.255,0.08,972.2222222222222
-0.23,0.09,975.0
-0.23,0.075,977.7777777777778
-0.21,0.07,980.5555555555555
-0.23,0.07,983.3333333333334
-0.25,0.055,986.1111111111111
-0.26,0.065,988.8888888888889
-0.255,0.095,991.6666666666666
-0.245,0.09,994.4444444444445
-0.23,0.075,997.2222222222222
-0.235,0.06,1000.0
-0.24,0.055,1002.7777777777778
-0.25,0.06,1005.5555555555555
-0.245,0.075,1008.3333333333334
-0.24,0.085,1011.1111111111111
-0.255,0.08,1013.8888888888889
-0.255,0.065,1016.6666666666666
-0.255,0.065,1019.4444444444445
-0.275,0.06,1022.2222222222222
-0.26,0.095,1025.0
-0.245,0.095,1027.7777777777778
-0.24,0.075,1030.5555555555557
-0.26,0.065,1033.3333333333333
-0.27,0.05,1036.111111111111
-0.265,0.05,1038.888888888889
-0.265,0.07,1041.6666666666667
-0.25,0.085,1044.4444444444443
-0.245,0.09,1047.2222222222222
-0.26,0.085,1050.0
-0.285,0.08,1052.7777777777778
-0.27,0.1,1055.5555555555557
-0.255,0.12,1058.3333333333333
-0.235,0.135,1061.111111111111
-0.225,0.12,1063.888888888889
-0.225,0.1,1066.6666666666667
-0.24,0.095,1069.4444444444443
-0.235,0.11,1072.2222222222222
-0.22,0.12,1075.0
-0.215,0.13,1077.7777777777778
-0.215,0.12,1080.5555555555557
-0.23,0.12,1083.3333333333333
-0.245,0.1,1086.111111111111
-0.24,0.085,1088.888888888889
-0.22,0.095,1091.6666666666667
-0.19,0.1,1094.4444444444443
-0.175,0.09,1097.2222222222222
-0.195,0.075,1100.0
-0.18,0.045,1102.7777777777778
-0.18,0.045,1105.5555555555557
-0.17,0.055,1108.3333333333333
-0.17,0.06,1111.111111111111
-0.175,0.045,1113.888888888889
-0.2,0.03,1116.6666666666667
-0.21,0.005,1119.4444444444443
-0.22,-0.005,1122.2222222222222
-0.215,0.01,1125.0
-0.215,0.015,1127.7777777777778
-0.21,0.025,1130.5555555555557
-0.21,0.02,1133.3333333333333
-0.23,0.015,1136.111111111111
-0.23,0.025,1138.888888888889
-0.23,0.03,1141.6666666666667
-0.22,0.025,1144.4444444444443
-0.225,0.005,1147.2222222222222
-0.25,-0.005,1150.0
-0.27,0.0,1152.7777777777778
-0.28,0.005,1155.5555555555557
-0.275,0.035,1158.3333333333333
-0.27,0.065,1161.111111111111
-0.265,0.065,1163.888888888889
-0.275,0.07,1166.6666666666667
-0.29,0.05,1169.4444444444443
-0.31,0.055,1172.2222222222222
-0.315,0.06,1175.0
-0.305,0.055,1177.7777777777778
-0.285,0.055,1180.5555555555557
-0.295,0.055,1183.3333333333333
-0.29,0.04,1186.111111111111
-0.29,0.05,1188.888888888889
-0.295,0.065,1191.6666666666667
-0.28,0.095,1194.4444444444443
-0.285,0.08,1197.2222222222222
-0.3,0.06,1200.0
-0.3,0.04,1202.7777777777778
-0.315,0.065,1205.5555555555557
-0.31,0.075,1208.3333333333333
-0.315,0.075,1211.111111111111
-0.325,0.075,1213.888888888889
-0.32,0.05,1216.6666666666667
-0.325,0.045,1219.4444444444443
-0.335,0.055,1222.2222222222222
-0.325,0.07,1225.0
-0.3,0.09,1227.7777777777778
-0.3,0.07,1230.5555555555557
-0.305,0.065,1233.3333333333333
-0.31,0.055,1236.111111111111
-0.33,0.085,1238.888888888889
-0.305,0.11,1241.6666666666667
-0.305,0.11,1244.4444444444443
-0.29,0.09,1247.2222222222222
-0.305,0.065,1250.0
-0.315,0.05,1252.7777777777778
-0.31,0.045,1255.5555555555557
-0.31,0.065,1258.3333333333333
-0.3,0.065,1261.111111111111
-0.285,0.06,1263.888888888889
-0.295,0.04,1266.6666666666667
-0.295,0.025,1269.4444444444443
-0.3,0.025,1272.2222222222222
-0.315,0.045,1275.0
-0.28,0.07,1277.7777777777778
-0.255,0.06,1280.5555555555557
-0.26,0.035,1283.3333333333333
-0.255,-0.03,1286.111111111111
-0.25,-0.11,1288.888888888889
-0.2,-0.2,1291.6666666666667
-0.145,-0.285,1294.4444444444443
-0.1,-0.42,1297.2222222222222
-0.05,-0.535,1300.0
0.015,-0.65,1302.7777777777778
0.08,-0.73,1305.5555555555557
0.145,-0.775,1308.3333333333333
0.21,-0.805,1311.111111111111
0.23,-0.805,1313.888888888889
0.2,-0.815,1316.6666666666667
0.135,-0.83,1319.4444444444443
0.08,-0.825,1322.2222222222222
-0.02,-0.82,1325.0
-0.075,-0.785,1327.7777777777778
-0.095,-0.74,1330.5555555555557
-0.075,-0.725,1333.3333333333333
-0.04,-0.71,1336.111111111111
0.045,-0.665,1338.888888888889
0.155,-0.63,1341.6666666666667
0.285,-0.59,1344.4444444444443
0.38,-0.57,1347.2222222222222
0.46,-0.56,1350.0
0.5,-0.55,1352.7777777777778
0.5,-0.53,1355.5555555555557
0.485,-0.48,1358.3333333333333
0.425,-0.415,1361.111111111111
0.335,-0.38,1363.888888888889
0.245,-0.32,1366.6666666666667
0.16,-0.3,1369.4444444444443
0.085,-0.22,1372.2222222222222
0.025,-0.16,1375.0
-0.04,-0.095,1377.7777777777778
-0.125,-0.045,1380.5555555555557
-0.205,0.01,1383.3333333333333
-0.29,0.04,1386.111111111111
-0.36,0.09,1388.888888888889
-0.42,0.135,1391.6666666666667
-0.435,0.16,1394.4444444444443
-0.455,0.17,1397.2222222222222
-0.47,0.175,1400.0
-0.47,0.18,1402.7777777777778
-0.44,0.195,1405.5555555555557
-0.405,0.225,1408.3333333333333
-0.37,0.235,1411.111111111111
-0.355,0.235,1413.888888888889
-0.35,0.23,1416.6666666666667
-0.355,0.22,1419.4444444444443
-0.36,0.24,1422.2222222222222
-0.35,0.255,1425.0
-0.32,0.265,1427.7777777777778
-0.335,0.28,1430.5555555555557
-0.335,0.265,1433.3333333333333
-0.36,0.275,1436.111111111111
-0.345,0.28,1438.888888888889
-0.33,0.28,1441.6666666666667
-0.325,0.295,1444.4444444444443
-0.33,0.285,1447.2222222222222
-0.335,0.26,1450.0
-0.335,0.26,1452.7777777777778
-0.34,0.255,1455.5555555555557
-0.335,0.285,1458.3333333333333
-0.33,0.295,1461.111111111111
-0.32,0.295,1463.888888888889
-0.31,0.285,1466.6666666666667
-0.34,0.285,1469.4444444444443
-0.335,0.29,1472.2222222222222
-0.32,0.31,1475.0
-0.305,0.32,1477.7777777777778
-0.295,0.325,1480.5555555555557
-0.31,0.325,1483.3333333333333
-0.325,0.32,1486.111111111111
-0.31,0.32,1488.888888888889
-0.31,0.345,1491.6666666666667
-0.29,0.355,1494.4444444444443
-0.28,0.36,1497.2222222222222
-0.28,0.34,1500.0
-0.285,0.345,1502.7777777777778
-0.29,0.36,1505.5555555555557
-0.275,0.375,1508.3333333333333
-0.265,0.4,1511.111111111111
-0.25,0.38,1513.888888888889
-0.25,0.375,1516.6666666666667
-0.25,0.36,1519.4444444444443
-0.255,0.385,1522.2222222222222
-0.22,0.405,1525.0
-0.2,0.42,1527.7777777777778
-0.18,0.425,1530.5555555555557
-0.195,0.41,1533.3333333333333
-0.19,0.4,1536.111111111111
-0.21,0.405,1538.888888888889
-0.18,0.43,1541.6666666666667
-0.155,0.44,1544.4444444444443
-0.125,0.445,1547.2222222222222
-0.14,0.43,1550.0
-0.125,0.41,1552.7777777777778
-0.12,0.42,1555.5555555555557
-0.105,0.435,1558.3333333333333
-0.085,0.43,1561.111111111111
-0.075,0.41,1563.888888888889
-0.075,0.38,1566.6666666666667
-0.075,0.345,1569.4444444444443
-0.07,0.33,1572.2222222222222
-0.045,0.335,1575.0
-0.04,0.335,1577.7777777777778
-0.03,0.315,1580.5555555555557
-0.01,0.3,1583.3333333333333
-0.015,0.275,1586.111111111111
0.005,0.255,1588.888888888889
0.03,0.265,1591.6666666666667
0.06,0.23,1594.4444444444443
0.06,0.21,1597.2222222222222
0.065,0.185,1600.0
0.06,0.15,1602.7777777777778
0.065,0.145,1605.5555555555557
0.095,0.145,1608.3333333333333
0.125,0.145,1611.111111111111
0.115,0.13,1613.888888888889
0.13,0.105,1616.6666666666667
0.13,0.095,1619.4444444444443
0.11,0.085,1622.2222222222222
0.12,0.1,1625.0
0.115,0.09,1627.7777777777778
0.105,0.1,1630.5555555555557
0.085,0.075,1633.3333333333333
0.045,0.07,1636.111111111111
0.03,0.08,1638.888888888889
0.01,0.08,1641.6666666666667
0.01,0.085,1644.4444444444443
-0.005,0.075,1647.2222222222222
-0.025,0.065,1650.0
-0.075,0.055,1652.7777777777778
-0.09,0.075,1655.5555555555557
-0.105,0.075,1658.3333333333333
-0.115,0.075,1661.111111111111
-0.115,0.075,1663.888888888889
-0.15,0.07,1666.6666666666667
-0.15,0.055,1669.4444444444443
-0.175,0.06,1672.2222222222222
-0.18,0.075,1675.0
-0.175,0.095,1677.7777777777778
-0.18,0.085,1680.5555555555557
-0.19,0.07,1683.3333333333333
-0.21,0.07,1686.111111111111
-0.215,0.07,1688.888888888889
-0.195,0.075,1691.6666666666667
-0.185,0.08,1694.4444444444443
-0.18,0.075,1697.2222222222222
-0.195,0.06,1700.0
-0.215,0.07,1702.7777777777778
-0.23,0.07,1705.5555555555557
-0.22,0.09,1708.3333333333333
-0.21,0.085,1711.111111111111
-0.21,0.06,1713.888888888889
-0.225,0.045,1716.6666666666667
-0.215,0.035,1719.4444444444443
-0.23,0.065,1722.2222222222222
-0.22,0.07,1725.0
-0.205,0.09,1727.7777777777778
-0.19,0.075,1730.5555555555557
-0.2,0.065,1733.3333333333333
-0.195,0.06,1736.111111111111
-0.2,0.075,1738.888888888889
-0.205,0.08,1741.6666666666667
-0.185,0.085,1744.4444444444443
-0.195,0.085,1747.2222222222222
-0.195,0.07,1750.0
-0.205,0.05,1752.7777777777778
-0.21,0.07,1755.5555555555557
-0.205,0.085,1758.3333333333333
-0.185,0.105,1761.111111111111
-0.17,0.1,1763.888888888889
-0.19,0.095,1766.6666666666667
-0.205,0.075,1769.4444444444443
-0.195,0.08,1772.2222222222222
-0.18,0.095,1775.0
-0.175,0.105,1777.7777777777778
-0.17,0.1,1780.5555555555557
-0.19,0.09,1783.3333333333333
-0.195,0.08,1786.111111111111
-0.215,0.07,1788.888888888889
-0.19,0.09,1791.6666666666667
-0.185,0.09,1794.4444444444443
-0.19,0.09,1797.2222222222222
-0.195,0.08,1800.0
-0.195,0.08,1802.7777777777778
-0.195,0.075,1805.5555555555557
-0.2,0.095,1808.3333333333333
-0.18,0.1,1811.111111111111
-0.17,0.1,1813.888888888889
-0.185,0.085,1816.6666666666667
-0.21,0.075,1819.4444444444443
-0.2,0.08,1822.2222222222222
-0.2,0.115,1825.0
-0.17,0.12,1827.7777777777778
-0.165,0.12,1830.5555555555557
-0.2,0.095,1833.3333333333333
-0.21,0.075,1836.111111111111
-0.21,0.08,1838.888888888889
-0.195,0.09,1841.6666666666667
-0.17,0.1,1844.4444444444443
-0.18,0.105,1847.2222222222222
-0.19,0.07,1850.0
-0.2,0.065,1852.7777777777778
-0.215,0.07,1855.5555555555557
-0.205,0.09,1858.3333333333333
-0.195,0.09,1861.111111111111
-0.185,0.09,1863.888888888889
-0.2,0.07,1866.6666666666667
-0.21,0.06,1869.4444444444443
-0.21,0.065,1872.2222222222222
-0.205,0.08,1875.0
-0.2,0.095,1877.7777777777778
-0.195,0.09,1880.5555555555557
-0.205,0.065,1883.3333333333333
-0.22,0.08,1886.111111111111
-0.215,0.075,1888.888888888889
-0.205,0.09,1891.6666666666667
-0.21,0.1,1894.4444444444443
-0.185,0.095,1897.2222222222222
-0.195,0.08,1900.0
-0.21,0.07,1902.7777777777778
-0.215,0.065,1905.5555555555557
-0.21,0.09,1908.3333333333333
-0.195,0.105,1911.111111111111
-0.19,0.105,1913.888888888889
-0.215,0.105,1916.6666666666667
-0.21,0.11,1919.4444444444443
-0.215,0.105,1922.2222222222222
-0.19,0.13,1925.0
-0.18,0.14,1927.7777777777778
-0.165,0.125,1930.5555555555557
-0.17,0.125,1933.3333333333333
-0.19,0.11,1936.111111111111
-0.18,0.115,1938.888888888889
-0.17,0.135,1941.6666666666667
-0.16,0.14,1944.4444444444443
-0.145,0.13,1947.2222222222222
-0.15,0.115,1950.0
-0.15,0.095,1952.7777777777778
-0.145,0.09,1955.5555555555557
-0.155,0.095,1958.3333333333333
-0.12,0.105,1961.111111111111
-0.115,0.095,1963.888888888889
-0.105,0.065,1966.6666666666667
-0.105,0.045,1969.4444444444443
-0.115,0.05,1972.2222222222222
-0.105,0.045,1975.0
-0.11,0.07,1977.7777777777778
-0.095,0.055,1980.5555555555557
-0.11,0.045,1983.3333333333333
-0.125,0.03,1986.111111111111
-0.13,0.03,1988.888888888889
-0.145,0.035,1991.6666666666667
-0.135,0.04,1994.4444444444443
-0.13,0.03,1997.2222222222222
-0.145,0.005,2000.0
-0.16,0.0,2002.7777777777778
-0.165,0.005,2005.5555555555557
-0.165,0.035,2008.3333333333333
-0.15,0.035,2011.111111111111
-0.155,0.035,2013.888888888889
-0.165,0.035,2016.6666666666667
-0.175,0.015,2019.4444444444443
-0.195,0.03,2022.2222222222222
-0.195,0.025,2025.0
-0.18,0.045,2027.7777777777778
-0.185,0.045,2030.5555555555557
-0.2,0.05,2033.3333333333333
-0.195,0.05,2036.111111111111
-0.21,0.07,2038.888888888889
-0.205,0.09,2041.6666666666667
-0.205,0.095,2044.4444444444443
-0.22,0.095,2047.2222222222222
-0.225,0.085,2050.0
-0.215,0.065,2052.777777777778
-0.24,0.05,2055.5555555555557
-0.225,0.05,2058.3333333333335
-0.21,0.075,2061.1111111111113
-0.22,0.08,2063.8888888888887
-0.24,0.07,2066.6666666666665
-0.25,0.06,2069.4444444444443
-0.245,0.06,2072.222222222222
-0.225,0.08,2075.0
-0.225,0.09,2077.777777777778
-0.22,0.08,2080.5555555555557
-0.23,0.07,2083.3333333333335
-0.25,0.065,2086.1111111111113
-0.25,0.065,2088.8888888888887
-0.245,0.075,2091.6666666666665
-0.235,0.09,2094.4444444444443
-0.215,0.08,2097.222222222222
-0.22,0.07,2100.0
-0.24,0.065,2102.777777777778
-0.245,0.065,2105.5555555555557
-0.23,0.08,2108.3333333333335
-0.23,0.105,2111.1111111111113
-0.215,0.085,2113.8888888888887
-0.225,0.07,2116.6666666666665
-0.225,0.065,2119.4444444444443
-0.24,0.065,2122.222222222222
-0.225,0.07,2125.0
-0.205,0.085,2127.777777777778
-0.22,0.08,2130.5555555555557
-0.22,0.055,2133.3333333333335
-0.22,0.065,2136.1111111111113
-0.23,0.06,2138.8888888888887
-0.215,0.07,2141.6666666666665
-0.2,0.08,2144.4444444444443
-0.19,0.08,2147.222222222222
-0.205,0.07,2150.0
-0.21,0.065,2152.777777777778
-0.205,0.065,2155.5555555555557
-0.185,0.05,2158.3333333333335
-0.15,-0.01,2161.1111111111113
-0.14,-0.135,2163.8888888888887
-0.125,-0.27,2166.6666666666665
-0.125,-0.39,2169.4444444444443
-0.07,-0.495,2172.222222222222
-0.005,-0.595,2175.0
0.05,-0.685,2177.777777777778
0.13,-0.785,2180.5555555555557
0.175,-0.84,2183.3333333333335
0.22,-0.87,2186.1111111111113
0.23,-0.855,2188.8888888888887
0.22,-0.845,2191.6666666666665
0.185,-0.845,2194.4444444444443
0.12,-0.87,2197.222222222222
0.015,-0.865,2200.0
-0.05,-0.825,2202.777777777778
-0.05,-0.775,2205.5555555555557
0.015,-0.735,2208.3333333333335
0.12,-0.705,2211.1111111111113
0.24,-0.675,2213.8888888888887
0.38,-0.675,2216.6666666666665
0.49,-0.655,2219.4444444444443
0.59,-0.64,2222.222222222222
0.685,-0.6,2225.0
0.745,-0.56,2227.777777777778
0.75,-0.54,2230.5555555555557
0.68,-0.515,2233.3333333333335
0.565,-0.47,2236.1111111111113
0.455,-0.425,2238.8888888888887
0.375,-0.34,2241.6666666666665
0.29,-0.295,2244.4444444444443
0.21,-0.25,2247.222222222222
0.12,-0.22,2250.0
0.005,-0.18,2252.777777777778
-0.11,-0.1,2255.5555555555557
-0.2,-0.03,2258.3333333333335
-0.275,0.04,2261.1111111111113
-0.35,0.07,2263.8888888888887
-0.42,0.11,2266.6666666666665
-0.455,0.13,2269.4444444444443
-0.48,0.17,2272.222222222222
-0.475,0.21,2275.0
-0.435,0.225,2277.777777777778
-0.4,0.225,2280.5555555555557
-0.37,0.22,2283.3333333333335
-0.34,0.205,2286.1111111111113
-0.325,0.205,2288.8888888888887
-0.305,0.24,2291.6666666666665
-0.27,0.265,2294.4444444444443
-0.26,0.26,2297.222222222222
-0.255,0.26,2300.0
-0.26,0.245,2302.777777777778
-0.28,0.245,2305.5555555555557
-0.255,0.255,2308.3333333333335
-0.25,0.275,2311.1111111111113
-0.245,0.27,2313.8888888888887
-0.24,0.26,2316.6666666666665
-0.25,0.26,2319.4444444444443
-0.25,0.275,2322.222222222222
-0.24,0.285,2325.0
-0.225,0.3,2327.777777777778
-0.215,0.305,2330.5555555555557
-0.235,0.295,2333.3333333333335
-0.24,0.29,2336.1111111111113
-0.245,0.305,2338.8888888888887
-0.235,0.305,2341.6666666666665
-0.215,0.335,2344.4444444444443
-0.21,0.34,2347.222222222222
-0.22,0.315,2350.0
-0.235,0.325,2352.777777777778
-0.23,0.33,2355.5555555555557
-0.225,0.335,2358.3333333333335
-0.215,0.355,2361.1111111111113
-0.195,0.355,2363.8888888888887
-0.185,0.355,2366.6666666666665
-0.2,0.345,2369.4444444444443
-0.19,0.365,2372.222222222222
-0.19,0.365,2375.0
-0.17,0.375,2377.777777777778
-0.165,0.365,2380.5555555555557
-0.165,0.375,2383.3333333333335
-0.175,0.355,2386.1111111111113
-0.18,0.38,2388.8888888888887
-0.165,0.39,2391.6666666666665
-0.14,0.41,2394.4444444444443
-0.125,0.395,2397.222222222222
-0.13,0.38,2400.0
-0.135,0.37,2402.777777777778
-0.12,0.385,2405.5555555555557
-0.11,0.4,2408.3333333333335
-0.095,0.43,2411.1111111111113
-0.08,0.43,2413.8888888888887
-0.075,0.415,2416.6666666666665
-0.085,0.41,2419.4444444444443
-0.07,0.415,2422.222222222222
-0.055,0.425,2425.0
-0.04,0.445,2427.777777777778
-0.03,0.435,2430.5555555555557
-0.015,0.415,2433.3333333333335
-0.025,0.4,2436.1111111111113
-0.025,0.41,2438.8888888888887
0.0,0.41,2441.6666666666665
0.02,0.425,2444.4444444444443
0.045,0.4,2447.222222222222
0.045,0.39,2450.0
0.035,0.37,2452.777777777778
0.035,0.355,2455.5555555555557
0.07,0.355,2458.3333333333335
0.085,0.36,2461.1111111111113
0.1,0.335,2463.8888888888887
0.115,0.3,2466.6666666666665
0.11,0.275,2469.4444444444443
0.11,0.255,2472.222222222222
0.12,0.245,2475.0
0.15,0.235,2477.777777777778
0.16,0.205,2480.5555555555557
0.17,0.185,2483.3333333333335
0.17,0.16,2486.1111111111113
0.175,0.155,2488.8888888888887
0.19,0.135,2491.6666666666665
0.19,0.135,2494.4444444444443
0.21,0.105,2497.222222222222
0.225,0.08,2500.0
0.2,0.065,2502.777777777778
0.195,0.06,2505.5555555555557
0.195,0.075,2508.3333333333335
0.205,0.09,2511.1111111111113
0.19,0.085,2513.8888888888887
0.17,0.075,2516.6666666666665
0.125,0.07,2519.4444444444443
0.11,0.07,2522.222222222222
0.095,0.085,2525.0
0.08,0.1,2527.777777777778
0.08,0.08,2530.5555555555557
0.045,0.065,2533.3333333333335
0.015,0.065,2536.1111111111113
-0.015,0.065,2538.8888888888887
-0.035,0.075,2541.6666666666665
-0.035,0.085,2544.4444444444443
-0.04,0.075,2547.222222222222
-0.08,0.07,2550.0
-0.095,0.07,2552.777777777778
-0.095,0.07,2555.5555555555557
-0.09,0.095,2558.3333333333335
-0.1,0.09,2561.1111111111113
-0.095,0.08,2563.8888888888887
-0.1,0.065,2566.6666666666665
-0.13,0.045,2569.4444444444443
-0.13,0.05,2572.222222222222
-0.125,0.065,2575.0
-0.125,0.075,2577.777777777778
-0.125,0.07,2580.5555555555557
-0.135,0.055,2583.3333333333335
-0.145,0.055,2586.1111111111113
-0.155,0.06,2588.8888888888887
-0.15,0.085,2591.6666666666665
-0.14,0.09,2594.4444444444443
-0.13,0.08,2597.222222222222
-0.145,0.075,2600.0
-0.15,0.07,2602.777777777778
-0.145,0.085,2605.5555555555557
-0.155,0.085,2608.3333333333335
-0.145,0.095,2611.1111111111113
-0.12,0.1,2613.8888888888887
-0.145,0.075,2616.6666666666665
-0.155,0.08,2619.4444444444443
-0.165,0.08,2622.222222222222
-0.15,0.085,2625.0
-0.13,0.105,2627.777777777778
-0.13,0.1,2630.5555555555557
-0.14,0.085,2633.3333333333335
-0.15,0.085,2636.1111111111113
-0.145,0.08,2638.8888888888887
-0.145,0.09,2641.6666666666665
-0.145,0.11,2644.4444444444443
-0.125,0.09,2647.222222222222
-0.14,0.085,2650.0
-0.15,0.085,2652.777777777778
-0.165,0.07,2655.5555555555557
-0.155,0.1,2658.3333333333335
-0.145,0.11,2661.1111111111113
-0.155,0.105,2663.8888888888887
-0.15,0.095,2666.6666666666665
-0.165,0.095,2669.4444444444443
-0.17,0.1,2672.222222222222
-0.16,0.12,2675.0
-0.15,0.125,2677.777777777778
-0.15,0.115,2680.5555555555557
-0.155,0.12,2683.3333333333335
-0.17,0.115,2686.1111111111113
-0.195,0.105,2688.8888888888887
-0.18,0.095,2691.6666666666665
-0.155,0.095,2694.4444444444443
-0.15,0.11,2697.222222222222
-0.16,0.115,2700.0
-0.175,0.1,2702.777777777778
-0.175,0.09,2705.5555555555557
-0.165,0.085,2708.3333333333335
-0.14,0.08,2711.1111111111113
-0.14,0.07,2713.8888888888887
-0.145,0.06,2716.6666666666665
-0.17,0.055,2719.4444444444443
-0.18,0.07,2722.222222222222
-0.17,0.095,2725.0
-0.15,0.105,2727.777777777778
-0.15,0.1,2730.5555555555557
-0.155,0.085,2733.3333333333335
-0.165,0.06,2736.1111111111113
-0.175,0.065,2738.8888888888887
-0.175,0.07,2741.6666666666665
-0.155,0.075,2744.4444444444443
-0.145,0.065,2747.222222222222
-0.155,0.05,2750.0
-0.17,0.05,2752.777777777778
-0.18,0.065,2755.5555555555557
-0.16,0.07,2758.3333333333335
-0.15,0.08,2761.1111111111113
-0.155,0.08,2763.8888888888887
-0.165,0.075,2766.6666666666665
-0.17,0.075,2769.4444444444443
-0.185,0.08,2772.222222222222
-0.18,0.09,2775.0
-0.17,0.075,2777.777777777778
-0.17,0.065,2780.5555555555557
-0.175,0.045,2783.3333333333335
-0.18,0.065,2786.1111111111113
-0.185,0.08,2788.8888888888887
-0.16,0.095,2791.6666666666665
-0.17,0.1,2794.4444444444443
-0.18,0.09,2797.222222222222
-0.18,0.085,2800.0
-0.205,0.095,2802.777777777778
-0.175,0.11,2805.5555555555557
-0.16,0.115,2808.3333333333335
-0.16,0.105,2811.1111111111113
-0.16,0.075,2813.8888888888887
-0.165,0.07,2816.6666666666665
-0.17,0.075,2819.4444444444443
-0.15,0.08,2822.222222222222
-0.12,0.11,2825.0
-0.115,0.11,2827.777777777778
-0.12,0.1,2830.5555555555557
-0.14,0.08,2833.3333333333335
-0.145,0.08,2836.1111111111113
-0.135,0.09,2838.8888888888887
-0.11,0.085,2841.6666666666665
-0.1,0.075,2844.4444444444443
-0.105,0.055,2847.222222222222
-0.12,0.045,2850.0
-0.115,0.04,2852.777777777778
-0.105,0.06,2855.5555555555557
-0.09,0.06,2858.3333333333335
-0.085,0.045,2861.1111111111113
-0.1,0.02,2863.8888888888887
-0.12,0.005,2866.6666666666665
-0.13,0.005,2869.4444444444443
-0.125,0.015,2872.222222222222
-0.115,0.03,2875.0
-0.12,0.02,2877.777777777778
-0.13,0.01,2880.5555555555557
-0.15,-0.005,2883.3333333333335
-0.155,0.0,2886.1111111111113
-0.16,0.01,2888.8888888888887
-0.15,0.02,2891.6666666666665
-0.155,0.005,2894.4444444444443
-0.155,0.0,2897.222222222222
-0.175,-0.005,2900.0
-0.2,-0.01,2902.777777777778
-0.205,0.005,2905.5555555555557
-0.18,0.015,2908.3333333333335
-0.175,0.005,2911.1111111111113
-0.2,0.015,2913.8888888888887
-0.21,0.02,2916.6666666666665
-0.225,0.03,2919.4444444444443
-0.2,0.055,2922.222222222222
-0.19,0.06,2925.0
-0.19,0.065,2927.777777777778
-0.22,0.045,2930.5555555555557
-0.245,0.045,2933.3333333333335
-0.265,0.05,2936.1111111111113
-0.255,0.06,2938.8888888888887
-0.23,0.065,2941.6666666666665
-0.225,0.06,2944.4444444444443
-0.22,0.055,2947.222222222222
-0.245,0.04,2950.0
-0.255,0.05,2952.777777777778
-0.245,0.07,2955.5555555555557
-0.24,0.075,2958.3333333333335
-0.23,0.07,2961.1111111111113
-0.245,0.055,2963.8888888888887
-0.265,0.05,2966.6666666666665
-0.275,0.06,2969.4444444444443
-0.265,0.065,2972.222222222222
-0.25,0.08,2975.0
-0.25,0.07,2977.777777777778
-0.25,0.06,2980.5555555555557
-0.27,0.055,2983.3333333333335
-0.275,0.065,2986.1111111111113
-0.255,0.075,2988.8888888888887
-0.255,0.085,2991.6666666666665
-0.26,0.075,2994.4444444444443
-0.255,0.06,2997.222222222222
-0.275,0.055,3000.0
-0.285,0.055,3002.777777777778
-0.26,0.055,3005.5555555555557
-0.275,0.07,3008.3333333333335
-0.275,0.065,3011.1111111111113
-0.265,0.045,3013.8888888888887
-0.28,0.03,3016.6666666666665
-0.285,0.04,3019.4444444444443
-0.275,0.065,3022.222222222222
-0.26,0.07,3025.0
-0.26,0.055,3027.777777777778
-0.255,0.05,3030.5555555555557
-0.265,0.035,3033.3333333333335
-0.27,0.045,3036.1111111111113
-0.26,0.04,3038.8888888888887
-0.25,0.06,3041.6666666666665
-0.24,0.055,3044.4444444444443
-0.255,0.065,3047.222222222222
-0.265,0.045,3050.0
-0.26,0.025,3052.777777777778
-0.235,-0.01,3055.5555555555557
-0.21,-0.065,3058.3333333333335
-0.18,-0.16,3061.1111111111113
-0.165,-0.28,3063.8888888888887
-0.15,-0.4,3066.6666666666665
-0.115,-0.51,3069.4444444444443
-0.06,-0.61,3072.222222222222
0.015,-0.705,3075.0
0.09,-0.81,3077.777777777778
0.135,-0.865,3080.5555555555557
0.145,-0.905,3083.3333333333335
0.15,-0.92,3086.1111111111113
0.145,-0.9,3088.8888888888887
0.115,-0.89,3091.6666666666665
0.05,-0.91,3094.4444444444443
-0.05,-0.92,3097.222222222222
-0.125,-0.895,3100.0
-0.165,-0.87,3102.777777777778
-0.12,-0.81,3105.5555555555557
-0.03,-0.765,3108.3333333333335
0.08,-0.74,3111.1111111111113
0.21,-0.72,3113.8888888888887
0.3,-0.695,3116.6666666666665
0.41,-0.68,3119.4444444444443
0.525,-0.655,3122.222222222222
0.63,-0.61,3125.0
0.69,-0.605,3127.777777777778
0.67,-0.58,3130.5555555555557
0.6,-0.555,3133.3333333333335
0.485,-0.495,3136.1111111111113
0.39,-0.425,3138.8888888888887
0.31,-0.365,3141.6666666666665
0.215,-0.32,3144.4444444444443
0.12,-0.275,3147.222222222222
0.005,-0.24,3150.0
-0.1,-0.18,3152.777777777778
-0.2,-0.115,3155.5555555555557
-0.29,-0.06,3158.3333333333335
-0.375,-0.005,3161.1111111111113
-0.46,0.04,3163.8888888888887
-0.505,0.075,3166.6666666666665
-0.545,0.11,3169.4444444444443
-0.555,0.165,3172.222222222222
-0.52,0.185,3175.0
-0.505,0.19,3177.777777777778
-0.47,0.185,3180.5555555555557
-0.455,0.185,3183.3333333333335
-0.44,0.19,3186.1111111111113
-0.41,0.225,3188.8888888888887
-0.365,0.225,3191.6666666666665
-0.345,0.23,3194.4444444444443
-0.34,0.22,3197.222222222222
-0.345,0.215,3200.0
-0.355,0.235,3202.777777777778
-0.355,0.25,3205.5555555555557
-0.34,0.275,3208.3333333333335
-0.32,0.265,3211.1111111111113
-0.325,0.245,3213.8888888888887
-0.35,0.245,3216.6666666666665
-0.34,0.25,3219.4444444444443
-0.335,0.265,3222.222222222222
-0.325,0.28,3225.0
-0.32,0.265,3227.777777777778
-0.32,0.27,3230.5555555555557
-0.325,0.26,3233.3333333333335
-0.335,0.27,3236.1111111111113
-0.33,0.285,3238.8888888888887
-0.315,0.305,3241.6666666666665
-0.305,0.285,3244.4444444444443
-0.305,0.285,3247.222222222222
-0.33,0.275,3250.0
-0.32,0.29,3252.777777777778
-0.31,0.305,3255.5555555555557
-0.31,0.315,3258.3333333333335
-0.305,0.325,3261.1111111111113
-0.295,0.305,3263.8888888888887
-0.3,0.3,3266.6666666666665
-0.31,0.315,3269.4444444444443
-0.305,0.32,3272.222222222222
-0.29,0.345,3275.0
-0.28,0.345,3277.777777777778
-0.27,0.33,3280.5555555555557
-0.28,0.325,3283.3333333333335
-0.28,0.345,3286.1111111111113
-0.275,0.35,3288.8888888888887
-0.255,0.365,3291.6666666666665
-0.235,0.365,3294.4444444444443
-0.25,0.37,3297.222222222222
-0.265,0.36,3300.0
-0.26,0.365,3302.777777777778
-0.235,0.38,3305.5555555555557
-0.22,0.405,3308.3333333333335
-0.215,0.4,3311.1111111111113
-0.2,0.38,3313.8888888888887
-0.2,0.365,3316.6666666666665
-0.195,0.385,3319.4444444444443
-0.185,0.385,3322.222222222222
-0.17,0.4,3325.0
-0.15,0.395,3327.777777777778
-0.145,0.395,3330.5555555555557
-0.14,0.38,3333.3333333333335
-0.13,0.375,3336.1111111111113
-0.13,0.39,3338.8888888888887
-0.1,0.395,3341.6666666666665
-0.08,0.385,3344.4444444444443
-0.075,0.37,3347.222222222222
-0.08,0.35,3350.0
-0.065,0.34,3352.777777777778
-0.04,0.34,3355.5555555555557
-0.03,0.34,3358.3333333333335
-0.015,0.315,3361.1111111111113
-0.015,0.285,3363.8888888888887
-0.015,0.265,3366.6666666666665
0.0,0.25,3369.4444444444443
0.025,0.24,3372.222222222222
0.035,0.225,3375.0
0.035,0.195,3377.777777777778
0.04,0.175,3380.5555555555557
0.035,0.135,3383.3333333333335
0.045,0.13,3386.1111111111113
0.055,0.135,3388.8888888888887
0.08,0.125,3391.6666666666665
0.1,0.105,3394.4444444444443
0.095,0.08,3397.222222222222
0.085,0.06,3400.0
0.08,0.06,3402.777777777778
0.07,0.065,3405.5555555555557
0.075,0.08,3408.3333333333335
0.075,0.08,3411.1111111111113
0.045,0.05,3413.8888888888887
0.015,0.045,3416.6666666666665
-0.025,0.05,3419.4444444444443
-0.03,0.07,3422.222222222222
-0.04,0.08,3425.0
-0.05,0.06,3427.777777777778
-0.085,0.05,3430.5555555555557
-0.11,0.055,3433.3333333333335
-0.135,0.045,3436.1111111111113
-0.15,0.045,3438.8888888888887
-0.16,0.055,3441.6666666666665
-0.165,0.05,3444.4444444444443
-0.18,0.04,3447.222222222222
-0.21,0.04,3450.0
-0.215,0.045,3452.777777777778
-0.21,0.045,3455.5555555555557
-0.21,0.065,3458.3333333333335
-0.21,0.055,3461.1111111111113
-0.22,0.04,3463.8888888888887
-0.25,0.04,3466.6666666666665
-0.275,0.04,3469.4444444444443
-0.265,0.055,3472.222222222222
-0.26,0.05,3475.0
-0.26,0.06,3477.777777777778
-0.26,0.05,3480.5555555555557
-0.29,0.04,3483.3333333333335
-0.305,0.04,3486.1111111111113
-0.29,0.065,3488.8888888888887
-0.285,0.065,3491.6666666666665
-0.265,0.05,3494.4444444444443
-0.28,0.045,3497.222222222222
-0.295,0.045,3500.0
-0.31,0.045,3502.777777777778
-0.295,0.065,3505.5555555555557
-0.28,0.08,3508.3333333333335
-0.285,0.07,3511.1111111111113
-0.28,0.05,3513.8888888888887
-0.305,0.04,3516.6666666666665
-0.305,0.05,3519.4444444444443
-0.29,0.075,3522.222222222222
-0.29,0.09,3525.0
-0.29,0.08,3527.777777777778
-0.295,0.07,3530.5555555555557
-0.3,0.05,3533.3333333333335
-0.305,0.07,3536.1111111111113
-0.285,0.08,3538.8888888888887
-0.27,0.09,3541.6666666666665
-0.27,0.095,3544.4444444444443
-0.28,0.08,3547.222222222222
-0.305,0.065,3550.0
-0.3,0.08,3552.777777777778
-0.295,0.09,3555.5555555555557
-0.28,0.1,3558.3333333333335
-0.28,0.105,3561.1111111111113
-0.3,0.085,3563.8888888888887
-0.295,0.08,3566.6666666666665
-0.305,0.09,3569.4444444444443
-0.295,0.1,3572.222222222222
-0.295,0.11,3575.0
-0.29,0.09,3577.777777777778
-0.29,0.085,3580.5555555555557
-0.305,0.085,3583.3333333333335
-0.31,0.09,3586.1111111111113
-0.295,0.095,3588.8888888888887
-0.3,0.105,3591.6666666666665
-0.275,0.095,3594.4444444444443
-0.295,0.08,3597.222222222222
-0.305,0.08,3600.0
-0.315,0.1,3602.777777777778
-0.3,0.1,3605.5555555555557
-0.29,0.11,3608.3333333333335
-0.295,0.085,3611.1111111111113
-0.29,0.075,3613.8888888888887
-0.315,0.06,3616.6666666666665
-0.33,0.065,3619.4444444444443
-0.33,0.085,3622.222222222222
-0.29,0.1,3625.0
-0.285,0.08,3627.777777777778
-0.285,0.085,3630.5555555555557
-0.29,0.07,3633.3333333333335
-0.305,0.075,3636.1111111111113
-0.305,0.09,3638.8888888888887
-0.285,0.105,3641.6666666666665
-0.285,0.09,3644.4444444444443
-0.295,0.075,3647.222222222222
-0.29,0.075,3650.0
-0.305,0.075,3652.777777777778
-0.285,0.095,3655.5555555555557
-0.305,0.11,3658.3333333333335
-0.29,0.09,3661.1111111111113
-0.285,0.095,3663.8888888888887
-0.31,0.07,3666.6666666666665
-0.33,0.08,3669.4444444444443
-0.33,0.095,3672.222222222222
-0.32,0.105,3675.0
-0.305,0.115,3677.777777777778
-0.31,0.1,3680.5555555555557
-0.33,0.095,3683.3333333333335
-0.335,0.105,3686.1111111111113
-0.305,0.13,3688.8888888888887
-0.285,0.145,3691.6666666666665
-0.27,0.14,3694.4444444444443
-0.265,0.13,3697.222222222222
-0.28,0.12,3700.0
-0.285,0.12,3702.777777777778
-0.28,0.13,3705.5555555555557
-0.28,0.155,3708.3333333333335
-0.25,0.14,3711.1111111111113
-0.255,0.125,3713.8888888888887
-0.27,0.095,3716.6666666666665
-0.26,0.085,3719.4444444444443
-0.245,0.07,3722.222222222222
-0.235,0.08,3725.0
-0.2,0.07,3727.777777777778
-0.195,0.07,3730.5555555555557
-0.21,0.04,3733.3333333333335
-0.23,0.045,3736.1111111111113
-0.235,0.04,3738.8888888888887
-0.23,0.055,3741.6666666666665
-0.225,0.05,3744.4444444444443
-0.23,0.035,3747.222222222222
-0.255,0.025,3750.0
-0.255,0.035,3752.777777777778
-0.27,0.02,3755.5555555555557
-0.26,0.03,3758.3333333333335
-0.27,0.015,3761.1111111111113
-0.285,-0.005,3763.8888888888887
-0.28,0.0,3766.6666666666665
-0.285,0.01,3769.4444444444443
-0.27,0.03,3772.222222222222
-0.275,0.035,3775.0
-0.255,0.055,3777.777777777778
-0.28,0.05,3780.5555555555557
-0.31,0.045,3783.3333333333335
-0.335,0.065,3786.1111111111113
-0.325,0.09,3788.8888888888887
-0.315,0.11,3791.6666666666665
-0.32,0.11,3794.4444444444443
-0.335,0.095,3797.222222222222
-0.35,0.095,3800.0
-0.36,0.125,3802.777777777778
-0.335,0.14,3805.5555555555557
-0.32,0.12,3808.3333333333335
-0.305,0.08,3811.1111111111113
-0.315,0.04,3813.8888888888887
-0.34,0.035,3816.6666666666665
-0.34,0.035,3819.4444444444443
-0.34,0.05,3822.222222222222
-0.33,0.06,3825.0
-0.325,0.07,3827.777777777778
-0.33,0.045,3830.5555555555557
-0.365,0.06,3833.3333333333335
-0.365,0.065,3836.1111111111113
-0.355,0.09,3838.8888888888887
-0.34,0.095,3841.6666666666665
-0.335,0.085,3844.4444444444443
-0.345,0.09,3847.222222222222
-0.35,0.075,3850.0
-0.35,0.07,3852.777777777778
-0.345,0.095,3855.5555555555557
-0.33,0.115,3858.3333333333335
-0.32,0.1,3861.1111111111113
-0.34,0.085,3863.8888888888887
-0.33,0.065,3866.6666666666665
-0.335,0.07,3869.4444444444443
-0.33,0.08,3872.222222222222
-0.31,0.095,3875.0
-0.305,0.08,3877.777777777778
-0.305,0.075,3880.5555555555557
-0.325,0.055,3883.3333333333335
-0.325,0.075,3886.1111111111113
-0.3,0.08,3888.8888888888887
-0.28,0.09,3891.6666666666665
-0.26,0.065,3894.4444444444443
-0.26,0.01,3897.222222222222
-0.25,-0.075,3900.0
-0.255,-0.15,3902.777777777778
-0.215,-0.245,3905.5555555555557
-0.135,-0.35,3908.3333333333335
-0.065,-0.465,3911.1111111111113
0.025,-0.585,3913.8888888888887
0.085,-0.695,3916.6666666666665
0.155,-0.765,3919.4444444444443
0.25,-0.795,3922.222222222222
0.31,-0.785,3925.0
0.33,-0.78,3927.777777777778
0.305,-0.76,3930.5555555555557
0.255,-0.805,3933.3333333333335
0.185,-0.815,3936.1111111111113
0.12,-0.8,3938.8888888888887
0.095,-0.76,3941.6666666666665
0.07,-0.73,3944.4444444444443
0.08,-0.695,3947.222222222222
0.13,-0.68,3950.0
0.235,-0.655,3952.777777777778
0.36,-0.625,3955.5555555555557
0.505,-0.6,3958.3333333333335
0.63,-0.57,3961.1111111111113
0.705,-0.56,3963.8888888888887
0.755,-0.525,3966.6666666666665
0.755,-0.485,3969.4444444444443
0.705,-0.41,3972.222222222222
0.66,-0.365,3975.0
0.59,-0.315,3977.777777777778
0.515,-0.275,3980.5555555555557
0.43,-0.235,3983.3333333333335
0.34,-0.195,3986.1111111111113
0.26,-0.125,3988.8888888888887
0.185,-0.06,3991.6666666666665
0.07,-0.005,3994.4444444444443
-0.04,0.04,3997.222222222222
-0.175,0.08,4000.0
-0.29,0.14,4002.777777777778
-0.365,0.19,4005.5555555555557
-0.42,0.225,4008.3333333333335
-0.455,0.23,4011.1111111111113
-0.485,0.22,4013.8888888888887
-0.465,0.215,4016.6666666666665
-0.45,0.23,4019.4444444444443
-0.425,0.245,4022.222222222222
-0.405,0.285,4025.0
-0.385,0.28,4027.777777777778
-0.37,0.265,4030.5555555555557
-0.37,0.255,4033.3333333333335
-0.385,0.265,4036.1111111111113
-0.39,0.28,4038.8888888888887
-0.38,0.28,4041.6666666666665
-0.38,0.265,4044.4444444444443
-0.39,0.28,4047.222222222222
-0.4,0.275,4050.0
-0.395,0.28,4052.777777777778
-0.4,0.295,4055.5555555555557
-0.375,0.325,4058.3333333333335
-0.355,0.32,4061.1111111111113
-0.375,0.305,4063.8888888888887
-0.39,0.31,4066.6666666666665
-0.395,0.325,4069.4444444444443
-0.385,0.35,4072.222222222222
-0.375,0.385,4075.0
-0.375,0.385,4077.777777777778
-0.365,0.375,4080.5555555555557
-0.37,0.35,4083.3333333333335
-0.385,0.315,4086.1111111111113
-0.385,0.305,4088.8888888888887
-0.365,0.305,4091.6666666666665
-0.37,0.305,4094.4444444444443
-0.355,0.32,4097.222222222223
-0.37,0.325,4100.0
-0.375,0.34,4102.777777777777
-0.355,0.375,4105.555555555556
-0.345,0.38,4108.333333333333
-0.315,0.39,4111.111111111111
-0.325,0.355,4113.888888888889
-0.335,0.36,4116.666666666667
-0.345,0.365,4119.444444444444
-0.34,0.38,4122.222222222223
-0.335,0.405,4125.0
-0.315,0.4,4127.777777777777
-0.305,0.405,4130.555555555556
-0.315,0.405,4133.333333333333
-0.31,0.41,4136.111111111111
-0.295,0.425,4138.888888888889
-0.285,0.455,4141.666666666667
-0.27,0.45,4144.444444444444
-0.265,0.445,4147.222222222223
-0.265,0.435,4150.0
-0.27,0.44,4152.777777777777
-0.255,0.45,4155.555555555556
-0.225,0.455,4158.333333333333
-0.215,0.45,4161.111111111111
-0.205,0.45,4163.888888888889
-0.22,0.435,4166.666666666667
-0.2,0.45,4169.444444444444
-0.19,0.45,4172.222222222223
-0.17,0.47,4175.0
-0.155,0.465,4177.777777777777
-0.145,0.45,4180.555555555556
-0.145,0.425,4183.333333333333
-0.14,0.39,4186.111111111111
-0.13,0.39,4188.888888888889
-0.09,0.395,4191.666666666667
-0.07,0.37,4194.444444444444
-0.05,0.33,4197.222222222223
-0.075,0.295,4200.0
-0.07,0.29,4202.777777777777
-0.045,0.285,4205.555555555556
-0.025,0.26,4208.333333333333
0.005,0.225,4211.111111111111
0.02,0.195,4213.888888888889
0.03,0.17,4216.666666666667
0.04,0.165,4219.444444444444
0.065,0.17,4222.222222222223
0.09,0.165,4225.0
0.12,0.155,4227.777777777777
0.13,0.14,4230.555555555556
0.115,0.13,4233.333333333333
0.105,0.12,4236.111111111111
0.11,0.12,4238.888888888889
0.125,0.13,4241.666666666667
0.115,0.12,4244.444444444444
0.105,0.095,4247.222222222223
0.07,0.095,4250.0
0.05,0.09,4252.777777777777
0.04,0.09,4255.555555555556
0.025,0.1,4258.333333333333
0.01,0.095,4261.111111111111
-0.015,0.09,4263.888888888889
-0.055,0.095,4266.666666666667
-0.09,0.1,4269.444444444444
-0.09,0.125,4272.222222222223
-0.095,0.13,4275.0
-0.1,0.115,4277.777777777777
-0.12,0.105,4280.555555555556
-0.145,0.08,4283.333333333333
-0.155,0.095,4286.111111111111
-0.15,0.09,4288.888888888889
-0.145,0.095,4291.666666666667
-0.155,0.095,4294.444444444444
-0.14,0.08,4297.222222222223
-0.175,0.1,4300.0
-0.17,0.095,4302.777777777777
-0.17,0.095,4305.555555555556
-0.165,0.09,4308.333333333333
-0.15,0.065,4311.111111111111
-0.165,0.05,4313.888888888889
-0.175,0.035,4316.666666666667
-0.185,0.055,4319.444444444444
-0.165,0.075,4322.222222222223
-0.16,0.095,4325.0
-0.16,0.07,4327.777777777777
-0.165,0.08,4330.555555555556
-0.175,0.05,4333.333333333333
-0.185,0.065,4336.111111111111
-0.18,0.075,4338.888888888889
-0.165,0.095,4341.666666666667
-0.15,0.095,4344.444444444444
-0.165,0.08,4347.222222222223
-0.175,0.075,4350.0
-0.175,0.085,4352.777777777777
-0.175,0.1,4355.555555555556
-0.155,0.115,4358.333333333333
-0.155,0.105,4361.111111111111
-0.16,0.09,4363.888888888889
-0.16,0.08,4366.666666666667
-0.17,0.08,4369.444444444444
-0.15,0.095,4372.222222222223
-0.15,0.115,4375.0
-0.155,0.11,4377.777777777777
-0.15,0.095,4380.555555555556
-0.16,0.08,4383.333333333333
-0.17,0.08,4386.111111111111
-0.15,0.095,4388.888888888889
-0.135,0.115,4391.666666666667
-0.13,0.12,4394.444444444444
-0.145,0.11,4397.222222222223
-0.15,0.095,4400.0
-0.16,0.105,4402.777777777777
-0.155,0.105,4405.555555555556
-0.13,0.115,4408.333333333333
-0.13,0.1,4411.111111111111
-0.135,0.09,4413.888888888889
-0.145,0.09,4416.666666666667
-0.145,0.09,4419.444444444444
-0.145,0.11,4422.222222222223
-0.125,0.11,4425.0
-0.105,0.095,4427.777777777777
-0.12,0.095,4430.555555555556
-0.135,0.09,4433.333333333333
-0.15,0.095,4436.111111111111
-0.14,0.105,4438.888888888889
-0.13,0.105,4441.666666666667
-0.125,0.1,4444.444444444444
-0.135,0.085,4447.222222222223
-0.145,0.07,4450.0
-0.165,0.075,4452.777777777777
-0.16,0.09,4455.555555555556
-0.125,0.11,4458.333333333333
-0.125,0.095,4461.111111111111
-0.125,0.085,4463.888888888889
-0.13,0.075,4466.666666666667
-0.145,0.085,4469.444444444444
-0.135,0.1,4472.222222222223
-0.135,0.1,4475.0
-0.12,0.1,4477.777777777777
-0.125,0.09,4480.555555555556
-0.14,0.075,4483.333333333333
-0.15,0.075,4486.111111111111
-0.14,0.09,4488.888888888889
-0.13,0.09,4491.666666666667
-0.135,0.105,4494.444444444444
-0.13,0.09,4497.222222222223
-0.15,0.075,4500.0
-0.155,0.08,4502.777777777777
-0.16,0.095,4505.555555555556
-0.145,0.12,4508.333333333333
-0.135,0.115,4511.111111111111
-0.145,0.09,4513.888888888889
-0.15,0.08,4516.666666666667
-0.15,0.09,4519.444444444444
-0.155,0.105,4522.222222222223
-0.14,0.13,4525.0
-0.125,0.135,4527.777777777777
-0.135,0.115,4530.555555555556
-0.155,0.11,4533.333333333333
-0.16,0.13,4536.111111111111
-0.145,0.135,4538.888888888889
-0.125,0.145,4541.666666666667
-0.105,0.14,4544.444444444444
-0.105,0.13,4547.222222222223
-0.12,0.135,4550.0
-0.13,0.14,4552.777777777777
-0.13,0.155,4555.555555555556
-0.11,0.15,4558.333333333333
-0.1,0.155,4561.111111111111
-0.1,0.13,4563.888888888889
-0.11,0.12,4566.666666666667
-0.1,0.095,4569.444444444444
-0.095,0.1,4572.222222222223
-0.08,0.115,4575.0
-0.05,0.105,4577.777777777777
-0.065,0.1,4580.555555555556
-0.07,0.08,4583.333333333333
-0.08,0.085,4586.111111111111
-0.075,0.085,4588.888888888889
-0.075,0.075,4591.666666666667
-0.08,0.085,4594.444444444444
-0.08,0.065,4597.222222222223
-0.1,0.055,4600.0
-0.105,0.055,4602.777777777777
-0.095,0.035,4605.555555555556
-0.085,0.03,4608.333333333333
-0.09,0.01,4611.111111111111
-0.115,0.015,4613.888888888889
-0.13,0.015,4616.666666666667
-0.15,0.02,4619.444444444444
-0.14,0.035,4622.222222222223
-0.125,0.045,4625.0
-0.12,0.035,4627.777777777777
-0.12,0.05,4630.555555555556
-0.145,0.045,4633.333333333333
-0.15,0.04,4636.111111111111
-0.15,0.07,4638.888888888889
-0.145,0.07,4641.666666666667
-0.135,0.09,4644.444444444444
-0.14,0.09,4647.222222222223
-0.155,0.085,4650.0
-0.175,0.08,4652.777777777777
-0.18,0.1,4655.555555555556
-0.175,0.105,4658.333333333333
-0.17,0.095,4661.111111111111
-0.175,0.09,4663.888888888889
-0.19,0.09,4666.666666666667
-0.205,0.09,4669.444444444444
-0.18,0.11,4672.222222222223
-0.19,0.12,4675.0
-0.17,0.11,4677.777777777777
-0.19,0.11,4680.555555555556
-0.195,0.09,4683.333333333333
-0.2,0.1,4686.111111111111
-0.19,0.105,4688.888888888889
-0.18,0.11,4691.666666666667
-0.185,0.105,4694.444444444444
-0.19,0.1,4697.222222222223
-0.205,0.095,4700.0
-0.22,0.1,4702.777777777777
-0.215,0.1,4705.555555555556
-0.21,0.125,4708.333333333333
-0.195,0.11,4711.111111111111
-0.21,0.105,4713.888888888889
-0.2,0.09,4716.666666666667
-0.22,0.105,4719.444444444444
-0.205,0.1,4722.222222222223
-0.2,0.105,4725.0
-0.185,0.1,4727.777777777777
-0.205,0.08,4730.555555555556
-0.205,0.085,4733.333333333333
-0.2,0.095,4736.111111111111
-0.21,0.105,4738.888888888889
-0.175,0.12,4741.666666666667
-0.18,0.1,4744.444444444444
-0.175,0.095,4747.222222222223
-0.18,0.07,4750.0
-0.2,0.075,4752.777777777777
-0.18,0.08,4755.555555555556
-0.16,0.08,4758.333333333333
-0.145,0.025,4761.111111111111
-0.135,-0.07,4763.888888888889
-0.13,-0.185,4766.666666666667
-0.115,-0.315,4769.444444444444
-0.08,-0.445,4772.222222222223
-0.005,-0.575,4775.0
0.075,-0.71,4777.777777777777
0.15,-0.81,4780.555555555556
0.235,-0.875,4783.333333333333
0.305,-0.88,4786.111111111111
0.335,-0.85,4788.888888888889
0.365,-0.835,4791.666666666667
0.34,-0.845,4794.444444444444
0.28,-0.86,4797.222222222223
0.205,-0.865,4800.0
0.16,-0.83,4802.777777777777
0.155,-0.775,4805.555555555556
0.225,-0.72,4808.333333333333
0.345,-0.69,4811.111111111111
0.49,-0.665,4813.888888888889
0.6,-0.65,4816.666666666667
0.72,-0.63,4819.444444444444
0.835,-0.59,4822.222222222223
0.925,-0.555,4825.0
0.955,-0.53,4827.777777777777
0.885,-0.49,4830.555555555556
0.765,-0.435,4833.333333333333
0.66,-0.36,4836.111111111111
0.58,-0.285,4838.888888888889
0.52,-0.22,4841.666666666667
0.435,-0.18,4844.444444444444
0.305,-0.13,4847.222222222223
0.17,-0.085,4850.0
0.025,-0.005,4852.777777777777
-0.135,0.07,4855.555555555556
-0.235,0.14,4858.333333333333
-0.315,0.18,4861.111111111111
-0.365,0.205,4863.888888888889
-0.405,0.23,4866.666666666667
-0.425,0.24,4869.444444444444
-0.4,0.265,4872.222222222223
-0.34,0.285,4875.0
-0.31,0.295,4877.777777777777
-0.29,0.28,4880.555555555556
-0.265,0.285,4883.333333333333
-0.27,0.29,4886.111111111111
-0.27,0.305,4888.888888888889
-0.25,0.325,4891.666666666667
-0.245,0.32,4894.444444444444
-0.26,0.31,4897.222222222223
-0.26,0.305,4900.0
-0.275,0.305,4902.777777777777
-0.26,0.32,4905.555555555556
-0.26,0.335,4908.333333333333
-0.25,0.33,4911.111111111111
-0.255,0.34,4913.888888888889
-0.27,0.31,4916.666666666667
-0.27,0.33,4919.444444444444
-0.26,0.34,4922.222222222223
-0.245,0.35,4925.0
-0.24,0.345,4927.777777777777
-0.24,0.345,4930.555555555556
-0.27,0.345,4933.333333333333
-0.27,0.345,4936.111111111111
-0.26,0.37,4938.888888888889
-0.25,0.375,4941.666666666667
-0.245,0.39,4944.444444444444
-0.245,0.385,4947.222222222223
-0.245,0.375,4950.0
-0.275,0.385,4952.777777777777
-0.265,0.405,4955.555555555556
-0.245,0.415,4958.333333333333
-0.24,0.42,4961.111111111111
-0.24,0.42,4963.888888888889
-0.255,0.41,4966.666666666667
-0.25,0.415,4969.444444444444
-0.24,0.445,4972.222222222223
-0.23,0.455,4975.0
-0.22,0.46,4977.777777777777
-0.21,0.45,4980.555555555556
-0.225,0.44,4983.333333333333
-0.22,0.46,4986.111111111111
-0.235,0.47,4988.888888888889
-0.195,0.5,4991.666666666667
-0.175,0.495,4994.444444444444
-0.175,0.485,4997.222222222223
-0.18,0.47,5000.0
-0.18,0.485,5002.777777777777
-0.16,0.49,5005.555555555556
-0.145,0.525,5008.333333333333
-0.13,0.5,5011.111111111111
-0.125,0.48,5013.888888888889
-0.115,0.475,5016.666666666667
-0.115,0.475,5019.444444444444
-0.095,0.48,5022.222222222223
-0.08,0.485,5025.0
-0.06,0.48,5027.777777777777
-0.065,0.445,5030.555555555556
-0.065,0.43,5033.333333333333
-0.06,0.405,5036.111111111111
-0.035,0.415,5038.888888888889
-0.02,0.415,5041.666666666667
0.01,0.375,5044.444444444444
0.02,0.34,5047.222222222223
0.015,0.32,5050.0
0.025,0.3,5052.777777777777
0.035,0.28,5055.555555555556
0.065,0.27,5058.333333333333
0.085,0.24,5061.111111111111
0.105,0.215,5063.888888888889
0.12,0.18,5066.666666666667
0.115,0.18,5069.444444444444
0.15,0.175,5072.222222222223
0.185,0.18,5075.0
0.19,0.17,5077.777777777777
0.19,0.155,5080.555555555556
0.175,0.135,5083.333333333333
0.16,0.135,5086.111111111111
0.16,0.14,5088.888888888889
0.155,0.15,5091.666666666667
0.135,0.14,5094.444444444444
0.115,0.12,5097.222222222223
0.08,0.105,5100.0
0.05,0.11,5102.777777777777
0.04,0.12,5105.555555555556
0.035,0.135,5108.333333333333
0.035,0.125,5111.111111111111
0.005,0.115,5113.888888888889
-0.03,0.1,5116.666666666667
-0.045,0.11,5119.444444444444
-0.08,0.115,5122.222222222223
-0.06,0.135,5125.0
-0.055,0.125,5127.777777777777
-0.07,0.1,5130.555555555556
-0.095,0.11,5133.333333333333
-0.11,0.105,5136.111111111111
-0.105,0.11,5138.888888888889
-0.095,0.125,5141.666666666667
-0.09,0.12,5144.444444444444
-0.11,0.105,5147.222222222223
-0.125,0.115,5150.0
-0.145,0.11,5152.777777777777
-0.15,0.13,5155.555555555556
-0.14,0.135,5158.333333333333
-0.13,0.13,5161.111111111111
-0.135,0.11,5163.888888888889
-0.13,0.115,5166.666666666667
-0.14,0.12,5169.444444444444
-0.15,0.13,5172.222222222223
-0.14,0.135,5175.0
-0.125,0.13,5177.777777777777
-0.13,0.125,5180.555555555556
-0.14,0.105,5183.333333333333
-0.155,0.115,5186.111111111111
-0.14,0.13,5188.888888888889
-0.13,0.145,5191.666666666667
-0.11,0.14,5194.444444444444
-0.125,0.125,5197.222222222223
-0.14,0.12,5200.0
-0.16,0.135,5202.777777777777
-0.14,0.145,5205.555555555556
-0.135,0.15,5208.333333333333
-0.115,0.145,5211.111111111111
-0.13,0.125,5213.888888888889
-0.15,0.11,5216.666666666667
-0.155,0.15,5219.444444444444
-0.15,0.155,5222.222222222223
-0.135,0.17,5225.0
-0.13,0.16,5227.777777777777
-0.14,0.15,5230.555555555556
-0.145,0.14,5233.333333333333
-0.16,0.14,5236.111111111111
-0.145,0.15,5238.888888888889
-0.135,0.165,5241.666666666667
-0.135,0.155,5244.444444444444
-0.14,0.14,5247.222222222223
-0.165,0.15,5250.0
-0.165,0.14,5252.777777777777
-0.165,0.17,5255.555555555556
-0.155,0.18,5258.333333333333
-0.14,0.18,5261.111111111111
-0.14,0.155,5263.888888888889
-0.17,0.13,5266.666666666667
-0.18,0.14,5269.444444444444
-0.17,0.145,5272.222222222223
-0.16,0.17,5275.0
-0.15,0.155,5277.777777777777
-0.17,0.135,5280.555555555556
-0.175,0.135,5283.333333333333
-0.175,0.135,5286.111111111111
-0.175,0.15,5288.888888888889
-0.17,0.15,5291.666666666667
-0.155,0.165,5294.444444444444
-0.17,0.155,5297.222222222223
-0.18,0.135,5300.0
-0.185,0.13,5302.777777777777
-0.18,0.14,5305.555555555556
-0.18,0.15,5308.333333333333
-0.16,0.15,5311.111111111111
-0.17,0.13,5313.888888888889
-0.175,0.125,5316.666666666667
-0.2,0.13,5319.444444444444
-0.19,0.145,5322.222222222223
-0.17,0.16,5325.0
-0.16,0.15,5327.777777777777
-0.175,0.14,5330.555555555556
-0.18,0.12,5333.333333333333
-0.19,0.13,5336.111111111111
-0.195,0.145,5338.888888888889
-0.18,0.145,5341.666666666667
-0.175,0.15,5344.444444444444
-0.17,0.135,5347.222222222223
-0.19,0.12,5350.0
-0.205,0.13,5352.777777777777
-0.2,0.135,5355.555555555556
-0.17,0.15,5358.333333333333
-0.155,0.145,5361.111111111111
-0.18,0.135,5363.888888888889
-0.185,0.14,5366.666666666667
-0.19,0.16,5369.444444444444
-0.185,0.17,5372.222222222223
-0.17,0.185,5375.0
-0.16,0.19,5377.777777777777
-0.165,0.18,5380.555555555556
-0.185,0.17,5383.333333333333
-0.175,0.17,5386.111111111111
-0.175,0.18,5388.888888888889
-0.14,0.19,5391.666666666667
-0.125,0.195,5394.444444444444
-0.13,0.195,5397.222222222223
-0.14,0.18,5400.0
-0.15,0.165,5402.777777777777
-0.14,0.175,5405.555555555556
-0.12,0.165,5408.333333333333
-0.12,0.155,5411.111111111111
-0.11,0.13,5413.888888888889
-0.115,0.12,5416.666666666667
-0.11,0.105,5419.444444444444
-0.11,0.115,5422.222222222223
-0.08,0.13,5425.0
-0.07,0.11,5427.777777777777
-0.085,0.095,5430.555555555556
-0.105,0.09,5433.333333333333
-0.13,0.07,5436.111111111111
-0.115,0.075,5438.888888888889
-0.11,0.085,5441.666666666667
-0.1,0.095,5444.444444444444
-0.125,0.08,5447.222222222223
-0.15,0.075,5450.0
-0.155,0.07,5452.777777777777
-0.145,0.075,5455.555555555556
-0.145,0.09,5458.333333333333
-0.14,0.085,5461.111111111111
-0.15,0.075,5463.888888888889
-0.165,0.07,5466.666666666667
-0.175,0.07,5469.444444444444
-0.175,0.085,5472.222222222223
-0.175,0.095,5475.0
-0.165,0.085,5477.777777777777
-0.165,0.1,5480.555555555556
-0.18,0.095,5483.333333333333
-0.19,0.1,5486.111111111111
-0.195,0.11,5488.888888888889
-0.195,0.13,5491.666666666667
-0.19,0.125,5494.444444444444
-0.215,0.12,5497.222222222223
-0.225,0.105,5500.0
-0.22,0.11,5502.777777777777
-0.205,0.13,5505.555555555556
-0.19,0.14,5508.333333333333
-0.19,0.13,5511.111111111111
-0.205,0.125,5513.888888888889
-0.225,0.105,5516.666666666667
-0.25,0.125,5519.444444444444
-0.24,0.135,5522.222222222223
-0.21,0.135,5525.0
-0.22,0.14,5527.777777777777
-0.225,0.125,5530.555555555556
-0.24,0.12,5533.333333333333
-0.24,0.125,5536.111111111111
-0.235,0.14,5538.888888888889
-0.22,0.155,5541.666666666667
-0.21,0.145,5544.444444444444
-0.22,0.12,5547.222222222223
-0.22,0.12,5550.0
-0.24,0.12,5552.777777777777
-0.25,0.125,5555.555555555556
-0.22,0.14,5558.333333333333
-0.21,0.13,5561.111111111111
-0.22,0.115,5563.888888888889
-0.225,0.11,5566.666666666667
-0.23,0.12,5569.444444444444
-0.235,0.12,5572.222222222223
-0.22,0.145,5575.0
-0.21,0.13,5577.777777777777
-0.22,0.12,5580.555555555556
-0.225,0.105,5583.333333333333
-0.25,0.095,5586.111111111111
-0.23,0.105,5588.888888888889
-0.21,0.125,5591.666666666667
-0.195,0.13,5594.444444444444
-0.21,0.09,5597.222222222223
-0.195,0.03,5600.0
-0.185,-0.035,5602.777777777777
-0.165,-0.125,5605.555555555556
-0.125,-0.245,5608.333333333333
-0.1,-0.385,5611.111111111111
-0.06,-0.535,5613.888888888889
-0.005,-0.68,5616.666666666667
0.07,-0.765,5619.444444444444
0.16,-0.835,5622.222222222223
0.215,-0.83,5625.0
0.25,-0.83,5627.777777777777
0.25,-0.845,5630.555555555556
0.19,-0.86,5633.333333333333
0.115,-0.86,5636.111111111111
0.07,-0.825,5638.888888888889
0.06,-0.78,5641.666666666667
0.1,-0.735,5644.444444444444
0.175,-0.72,5647.222222222223
0.3,-0.69,5650.0
0.43,-0.67,5652.777777777777
0.585,-0.625,5655.555555555556
0.73,-0.585,5658.333333333333
0.83,-0.575,5661.111111111111
0.865,-0.545,5663.888888888889
0.835,-0.535,5666.666666666667
0.715,-0.465,5669.444444444444
0.62,-0.39,5672.222222222223
0.525,-0.315,5675.0
0.43,-0.26,5677.777777777777
0.315,-0.22,5680.555555555556
0.18,-0.165,5683.333333333333
0.025,-0.095,5686.111111111111
-0.13,-0.03,5688.888888888889
-0.245,0.055,5691.666666666667
-0.335,0.12,5694.444444444444
-0.42,0.17,5697.222222222223
-0.48,0.195,5700.0
-0.51,0.235,5702.777777777777
-0.5,0.255,5705.555555555556
-0.45,0.28,5708.333333333333
-0.39,0.285,5711.111111111111
-0.355,0.275,5713.888888888889
-0.34,0.275,5716.666666666667
-0.34,0.295,5719.444444444444
-0.3,0.315,5722.222222222223
-0.3,0.33,5725.0
-0.28,0.325,5727.777777777777
-0.295,0.32,5730.555555555556
-0.31,0.31,5733.333333333333
-0.33,0.32,5736.111111111111
-0.295,0.34,5738.888888888889
-0.305,0.365,5741.666666666667
-0.29,0.36,5744.444444444444
-0.29,0.355,5747.222222222223
-0.29,0.345,5750.0
-0.305,0.345,5752.777777777777
-0.285,0.36,5755.555555555556
-0.275,0.365,5758.333333333333
-0.255,0.38,5761.111111111111
-0.265,0.365,5763.888888888889
-0.28,0.365,5766.666666666667
-0.285,0.375,5769.444444444444
-0.275,0.385,5772.222222222223
-0.27,0.405,5775.0
-0.255,0.39,5777.777777777777
-0.26,0.39,5780.555555555556
-0.27,0.39,5783.333333333333
-0.275,0.41,5786.111111111111
-0.27,0.425,5788.888888888889
-0.255,0.455,5791.666666666667
-0.235,0.445,5794.444444444444
-0.245,0.44,5797.222222222223
-0.26,0.445,5800.0
-0.245,0.445,5802.777777777777
-0.24,0.475,5805.555555555556
-0.215,0.49,5808.333333333333
-0.2,0.485,5811.111111111111
-0.215,0.49,5813.888888888889
-0.21,0.475,5816.666666666667
-0.215,0.49,5819.444444444444
-0.21,0.515,5822.222222222223
-0.185,0.52,5825.0
-0.165,0.515,5827.777777777777
-0.17,0.505,5830.555555555556
-0.175,0.495,5833.333333333333
-0.17,0.505,5836.111111111111
-0.165,0.53,5838.888888888889
-0.14,0.53,5841.666666666667
-0.105,0.525,5844.444444444444
-0.115,0.495,5847.222222222223
-0.11,0.485,5850.0
-0.11,0.485,5852.777777777777
-0.085,0.5,5855.555555555556
-0.05,0.505,5858.333333333333
-0.03,0.48,5861.111111111111
-0.035,0.455,5863.888888888889
-0.035,0.435,5866.666666666667
-0.015,0.425,5869.444444444444
-0.005,0.4,5872.222222222223
0.015,0.4,5875.0
0.035,0.38,5877.777777777777
0.045,0.33,5880.555555555556
0.025,0.3,5883.333333333333
0.025,0.29,5886.111111111111
0.065,0.295,5888.888888888889
0.09,0.265,5891.666666666667
0.11,0.255,5894.444444444444
0.105,0.215,5897.222222222223
0.115,0.2,5900.0
0.115,0.18,5902.777777777777
0.135,0.18,5905.555555555556
0.16,0.19,5908.333333333333
0.175,0.175,5911.111111111111
0.175,0.155,5913.888888888889
0.155,0.135,5916.666666666667
0.13,0.145,5919.444444444444
0.105,0.15,5922.222222222223
0.105,0.165,5925.0
0.11,0.16,5927.777777777777
0.085,0.145,5930.555555555556
0.04,0.135,5933.333333333333
0.01,0.14,5936.111111111111
-0.015,0.155,5938.888888888889
-0.02,0.165,5941.666666666667
-0.025,0.155,5944.444444444444
-0.045,0.13,5947.222222222223
-0.08,0.11,5950.0
-0.105,0.11,5952.777777777777
-0.12,0.135,5955.555555555556
-0.115,0.145,5958.333333333333
-0.12,0.135,5961.111111111111
-0.135,0.135,5963.888888888889
-0.165,0.125,5966.666666666667
-0.16,0.145,5969.444444444444
-0.17,0.125,5972.222222222223
-0.155,0.145,5975.0
-0.145,0.145,5977.777777777777
-0.145,0.13,5980.555555555556
-0.18,0.12,5983.333333333333
-0.185,0.115,5986.111111111111
-0.175,0.14,5988.888888888889
-0.17,0.155,5991.666666666667
-0.155,0.155,5994.444444444444
-0.175,0.145,5997.222222222223
-0.19,0.125,6000.0
-0.205,0.135,6002.777777777777
-0.18,0.145,6005.555555555556
-0.17,0.16,6008.333333333333
-0.16,0.16,6011.111111111111
-0.17,0.155,6013.888888888889
-0.195,0.14,6016.666666666667
-0.21,0.135,6019.444444444444
-0.2,0.155,6022.222222222223
-0.185,0.175,6025.0
-0.175,0.165,6027.777777777777
-0.19,0.145,6030.555555555556
-0.215,0.135,6033.333333333333
-0.205,0.15,6036.111111111111
-0.205,0.17,6038.888888888889
-0.185,0.18,6041.666666666667
-0.185,0.175,6044.444444444444
-0.185,0.155,6047.222222222223
-0.21,0.155,6050.0
-0.23,0.15,6052.777777777777
-0.21,0.175,6055.555555555556
-0.2,0.195,6058.333333333333
-0.19,0.175,6061.111111111111
-0.2,0.165,6063.888888888889
-0.205,0.16,6066.666666666667
-0.215,0.165,6069.444444444444
-0.22,0.18,6072.222222222223
-0.21,0.175,6075.0
-0.205,0.18,6077.777777777777
-0.21,0.165,6080.555555555556
-0.21,0.15,6083.333333333333
-0.23,0.16,6086.111111111111
-0.225,0.18,6088.888888888889
-0.205,0.175,6091.666666666667
-0.2,0.185,6094.444444444444
-0.205,0.175,6097.222222222223
-0.215,0.165,6100.0
-0.225,0.165,6102.777777777777
-0.215,0.165,6105.555555555556
-0.21,0.175,6108.333333333333
-0.205,0.18,6111.111111111111
-0.21,0.155,6113.888888888889
-0.23,0.15,6116.666666666667
-0.23,0.145,6119.444444444444
-0.22,0.15,6122.222222222223
-0.22,0.18,6125.0
-0.2,0.175,6127.777777777777
-0.215,0.16,6130.555555555556
-0.23,0.155,6133.333333333333
-0.235,0.15,6136.111111111111
-0.23,0.15,6138.888888888889
-0.235,0.165,6141.666666666667
-0.22,0.155,6144.444444444444
-0.225,0.145,6147.222222222223
-0.24,0.13,6150.0
-0.25,0.15,6152.777777777777
-0.245,0.15,6155.555555555556
-0.23,0.17,6158.333333333333
-0.225,0.16,6161.111111111111
-0.24,0.145,6163.888888888889
-0.25,0.14,6166.666666666667
-0.24,0.15,6169.444444444444
-0.24,0.17,6172.222222222223
-0.23,0.17,6175.0
-0.225,0.175,6177.777777777777
-0.235,0.16,6180.555555555556
-0.265,0.15,6183.333333333333
-0.27,0.14,6186.111111111111
-0.26,0.135,6188.888888888889
-0.245,0.15,6191.666666666667
-0.24,0.16,6194.444444444444
-0.235,0.15,6197.222222222223
-0.26,0.135,6200.0
-0.25,0.145,6202.777777777777
-0.26,0.175,6205.555555555556
-0.235,0.18,6208.333333333333
-0.23,0.18,6211.111111111111
-0.24,0.18,6213.888888888889
-0.245,0.18,6216.666666666667
-0.255,0.18,6219.444444444444
-0.255,0.195,6222.222222222223
-0.225,0.205,6225.0
-0.21,0.21,6227.777777777777
-0.21,0.2,6230.555555555556
-0.215,0.195,6233.333333333333
-0.22,0.195,6236.111111111111
-0.21,0.205,6238.888888888889
-0.2,0.215,6241.666666666667
-0.19,0.195,6244.444444444444
-0.2,0.17,6247.222222222223
-0.205,0.135,6250.0
-0.22,0.145,6252.777777777777
-0.195,0.145,6255.555555555556
-0.175,0.16,6258.333333333333
-0.17,0.145,6261.111111111111
-0.17,0.14,6263.888888888889
-0.205,0.11,6266.666666666667
-0.2,0.11,6269.444444444444
-0.185,0.11,6272.222222222223
-0.185,0.115,6275.0
-0.175,0.105,6277.777777777777
-0.19,0.095,6280.555555555556
-0.205,0.085,6283.333333333333
-0.22,0.1,6286.111111111111
-0.23,0.105,6288.888888888889
-0.225,0.11,6291.666666666667
-0.205,0.105,6294.444444444444
-0.23,0.085,6297.222222222223
-0.25,0.075,6300.0
-0.27,0.075,6302.777777777777
-0.255,0.08,6305.555555555556
-0.255,0.095,6308.333333333333
-0.25,0.09,6311.111111111111
-0.265,0.105,6313.888888888889
-0.275,0.095,6316.666666666667
-0.31,0.115,6319.444444444444
-0.31,0.135,6322.222222222223
-0.28,0.15,6325.0
-0.29,0.155,6327.777777777777
-0.285,0.14,6330.555555555556
-0.315,0.13,6333.333333333333
-0.325,0.145,6336.111111111111
-0.325,0.155,6338.888888888889
-0.3,0.165,6341.666666666667
-0.285,0.165,6344.444444444444
-0.3,0.15,6347.222222222223
-0.32,0.14,6350.0
-0.335,0.145,6352.777777777777
-0.32,0.15,6355.555555555556
-0.31,0.15,6358.333333333333
-0.31,0.15,6361.111111111111
-0.325,0.15,6363.888888888889
-0.33,0.145,6366.666666666667
-0.34,0.15,6369.444444444444
-0.34,0.16,6372.222222222223
-0.32,0.16,6375.0
-0.315,0.155,6377.777777777777
-0.33,0.15,6380.555555555556
-0.34,0.135,6383.333333333333
-0.35,0.145,6386.111111111111
-0.345,0.15,6388.888888888889
-0.335,0.175,6391.666666666667
-0.325,0.165,6394.444444444444
-0.315,0.16,6397.222222222223
-0.34,0.145,6400.0
-0.335,0.14,6402.777777777777
-0.34,0.15,6405.555555555556
-0.33,0.17,6408.333333333333
-0.315,0.155,6411.111111111111
-0.32,0.15,6413.888888888889
-0.32,0.135,6416.666666666667
-0.34,0.135,6419.444444444444
-0.315,0.15,6422.222222222223
-0.315,0.165,6425.0
-0.315,0.14,6427.777777777777
-0.315,0.14,6430.555555555556
-0.315,0.135,6433.333333333333
-0.32,0.135,6436.111111111111
-0.31,0.145,6438.888888888889
-0.29,0.13,6441.666666666667
-0.26,0.065,6444.444444444444
-0.265,-0.03,6447.222222222223
-0.26,-0.15,6450.0
-0.23,-0.29,6452.777777777777
-0.165,-0.41,6455.555555555556
-0.07,-0.54,6458.333333333333
0.01,-0.655,6461.111111111111
0.095,-0.765,6463.888888888889
0.15,-0.83,6466.666666666667
0.17,-0.85,6469.444444444444
0.185,-0.81,6472.222222222223
0.165,-0.82,6475.0
0.09,-0.83,6477.777777777777
-0.02,-0.825,6480.555555555556
-0.09,-0.795,6483.333333333333
-0.1,-0.75,6486.111111111111
-0.04,-0.695,6488.888888888889
0.085,-0.655,6491.666666666667
0.255,-0.62,6494.444444444444
0.41,-0.61,6497.222222222223
0.525,-0.59,6500.0
0.62,-0.57,6502.777777777777
0.7,-0.535,6505.555555555556
0.74,-0.5,6508.333333333333
0.7,-0.47,6511.111111111111
0.59,-0.425,6513.888888888889
0.47,-0.37,6516.666666666667
0.355,-0.31,6519.444444444444
0.24,-0.225,6522.222222222223
0.13,-0.15,6525.0
0.025,-0.11,6527.777777777777
-0.105,-0.05,6530.555555555556
-0.235,-0.005,6533.333333333333
-0.36,0.065,6536.111111111111
-0.45,0.15,6538.888888888889
-0.495,0.225,6541.666666666667
-0.54,0.255,6544.444444444444
-0.565,0.265,6547.222222222223
-0.56,0.27,6550.0
-0.535,0.295,6552.777777777777
-0.495,0.315,6555.555555555556
-0.445,0.335,6558.333333333333
-0.42,0.34,6561.111111111111
-0.39,0.33,6563.888888888889
-0.41,0.325,6566.666666666667
-0.41,0.34,6569.444444444444
-0.415,0.345,6572.222222222223
-0.395,0.38,6575.0
-0.385,0.365,6577.777777777777
-0.39,0.365,6580.555555555556
-0.415,0.345,6583.333333333333
-0.41,0.37,6586.111111111111
-0.42,0.375,6588.888888888889
-0.415,0.385,6591.666666666667
-0.39,0.39,6594.444444444444
-0.385,0.38,6597.222222222223
-0.395,0.38,6600.0
-0.4,0.39,6602.777777777777
-0.38,0.41,6605.555555555556
-0.37,0.415,6608.333333333333
-0.355,0.42,6611.111111111111
-0.355,0.415,6613.888888888889
-0.365,0.405,6616.666666666667
-0.385,0.405,6619.444444444444
-0.37,0.425,6622.222222222223
-0.365,0.445,6625.0
-0.345,0.435,6627.777777777777
-0.35,0.435,6630.555555555556
-0.355,0.445,6633.333333333333
-0.35,0.455,6636.111111111111
-0.345,0.465,6638.888888888889
-0.325,0.48,6641.666666666667
-0.315,0.485,6644.444444444444
-0.305,0.49,6647.222222222223
-0.315,0.48,6650.0
-0.325,0.495,6652.777777777777
-0.305,0.51,6655.555555555556
-0.28,0.525,6658.333333333333
-0.275,0.52,6661.111111111111
-0.27,0.515,6663.888888888889
-0.265,0.505,6666.666666666667
-0.29,0.52,6669.444444444444
-0.26,0.535,6672.222222222223
-0.215,0.53,6675.0
-0.205,0.535,6677.777777777777
-0.19,0.52,6680.555555555556
-0.2,0.515,6683.333333333333
-0.19,0.51,6686.111111111111
-0.17,0.52,6688.888888888889
-0.155,0.515,6691.666666666667
-0.13,0.51,6694.444444444444
-0.115,0.495,6697.222222222223
-0.11,0.46,6700.0
-0.1,0.46,6702.777777777777
-0.09,0.45,6705.555555555556
-0.07,0.45,6708.333333333333
-0.035,0.42,6711.111111111111
-0.045,0.375,6713.888888888889
-0.035,0.355,6716.666666666667
-0.035,0.335,6719.444444444444
-0.015,0.32,6722.222222222223
0.01,0.31,6725.0
0.055,0.275,6727.777777777777
0.05,0.24,6730.555555555556
0.07,0.22,6733.333333333333
0.07,0.22,6736.111111111111
0.085,0.21,6738.888888888889
0.09,0.225,6741.666666666667
0.11,0.215,6744.444444444444
0.1,0.17,6747.222222222223
0.065,0.17,6750.0
0.01,0.16,6752.777777777777
0.01,0.17,6755.555555555556
-0.005,0.2,6758.333333333333
-0.02,0.185,6761.111111111111
-0.05,0.17,6763.888888888889
-0.09,0.16,6766.666666666667
-0.135,0.15,6769.444444444444
-0.155,0.165,6772.222222222223
-0.17,0.185,6775.0
-0.165,0.185,6777.777777777777
-0.17,0.155,6780.555555555556
-0.195,0.155,6783.333333333333
-0.225,0.165,6786.111111111111
-0.225,0.16,6788.888888888889
-0.22,0.175,6791.666666666667
-0.235,0.16,6794.444444444444
-0.235,0.16,6797.222222222223
-0.25,0.15,6800.0
-0.255,0.14,6802.777777777777
-0.25,0.165,6805.555555555556
-0.24,0.17,6808.333333333333
-0.23,0.165,6811.111111111111
-0.245,0.16,6813.888888888889
-0.265,0.15,6816.666666666667
-0.26,0.155,6819.444444444444
-0.26,0.16,6822.222222222223
-0.245,0.165,6825.0
-0.235,0.175,6827.777777777777
-0.24,0.17,6830.555555555556
-0.255,0.155,6833.333333333333
-0.27,0.16,6836.111111111111
-0.265,0.175,6838.888888888889
-0.24,0.185,6841.666666666667
-0.235,0.17,6844.444444444444
-0.235,0.17,6847.222222222223
-0.26,0.16,6850.0
-0.26,0.165,6852.777777777777
-0.255,0.18,6855.555555555556
-0.245,0.19,6858.333333333333
-0.235,0.185,6861.111111111111
-0.235,0.18,6863.888888888889
-0.245,0.155,6866.666666666667
-0.26,0.175,6869.444444444444
-0.25,0.19,6872.222222222223
-0.24,0.19,6875.0
-0.23,0.19,6877.777777777777
-0.235,0.18,6880.555555555556
-0.26,0.175,6883.333333333333
-0.275,0.18,6886.111111111111
-0.275,0.19,6888.888888888889
-0.24,0.195,6891.666666666667
-0.24,0.185,6894.444444444444
-0.24,0.175,6897.222222222223
-0.25,0.18,6900.0
-0.265,0.19,6902.777777777777
-0.25,0.195,6905.555555555556
-0.23,0.2,6908.333333333333
-0.22,0.19,6911.111111111111
-0.225,0.185,6913.888888888889
-0.24,0.17,6916.666666666667
-0.25,0.175,6919.444444444444
-0.25,0.18,6922.222222222223
-0.24,0.195,6925.0
-0.22,0.18,6927.777777777777
-0.235,0.185,6930.555555555556
-0.245,0.16,6933.333333333333
-0.255,0.175,6936.111111111111
-0.25,0.175,6938.888888888889
-0.24,0.19,6941.666666666667
-0.23,0.185,6944.444444444444
-0.23,0.17,6947.222222222223
-0.25,0.16,6950.0
-0.255,0.16,6952.777777777777
-0.255,0.19,6955.555555555556
-0.23,0.185,6958.333333333333
-0.22,0.175,6961.111111111111
-0.22,0.175,6963.888888888889
-0.235,0.165,6966.666666666667
-0.235,0.16,6969.444444444444
-0.25,0.175,6972.222222222223
-0.23,0.185,6975.0
-0.21,0.185,6977.777777777777
-0.24,0.17,6980.555555555556
-0.24,0.15,6983.333333333333
-0.245,0.16,6986.111111111111
-0.25,0.155,6988.888888888889
-0.23,0.175,6991.666666666667
-0.22,0.175,6994.444444444444
-0.225,0.155,6997.222222222223
-0.235,0.145,7000.0
-0.25,0.16,7002.777777777777
-0.24,0.17,7005.555555555556
-0.225,0.19,7008.333333333333
-0.22,0.19,7011.111111111111
-0.225,0.18,7013.888888888889
-0.24,0.18,7016.666666666667
-0.25,0.19,7019.444444444444
-0.24,0.205,7022.222222222223
-0.235,0.235,7025.0
-0.205,0.215,7027.777777777777
-0.205,0.215,7030.555555555556
-0.205,0.205,7033.333333333333
-0.21,0.195,7036.111111111111
-0.195,0.22,7038.888888888889
-0.19,0.22,7041.666666666667
-0.18,0.21,7044.444444444444
-0.18,0.195,7047.222222222223
-0.185,0.19,7050.0
-0.195,0.175,7052.777777777777
-0.185,0.18,7055.555555555556
-0.155,0.165,7058.333333333333
-0.13,0.17,7061.111111111111
-0.14,0.155,7063.888888888889
-0.14,0.14,7066.666666666667
-0.135,0.14,7069.444444444444
-0.14,0.135,7072.222222222223
-0.12,0.135,7075.0
-0.12,0.125,7077.777777777777
-0.13,0.115,7080.555555555556
-0.15,0.09,7083.333333333333
-0.165,0.095,7086.111111111111
-0.15,0.105,7088.888888888889
-0.16,0.115,7091.666666666667
-0.16,0.1,7094.444444444444
-0.16,0.095,7097.222222222223
-0.175,0.07,7100.0
-0.19,0.08,7102.777777777777
-0.175,0.085,7105.555555555556
-0.175,0.095,7108.333333333333
-0.17,0.095,7111.111111111111
-0.175,0.075,7113.888888888889
-0.19,0.08,7116.666666666667
-0.21,0.075,7119.444444444444
-0.22,0.09,7122.222222222223
-0.215,0.105,7125.0
-0.185,0.11,7127.777777777777
-0.195,0.11,7130.555555555556
-0.205,0.105,7133.333333333333
-0.23,0.115,7136.111111111111
-0.225,0.135,7138.888888888889
-0.225,0.14,7141.666666666667
-0.21,0.14,7144.444444444444
-0.225,0.125,7147.222222222223
-0.245,0.12,7150.0
-0.24,0.125,7152.777777777777
-0.235,0.13,7155.555555555556
-0.215,0.15,7158.333333333333
-0.205,0.135,7161.111111111111
-0.21,0.135,7163.888888888889
-0.225,0.125,7166.666666666667
-0.25,0.115,7169.444444444444
-0.24,0.13,7172.222222222223
-0.23,0.145,7175.0
-0.23,0.14,7177.777777777777
-0.235,0.14,7180.555555555556
-0.24,0.115,7183.333333333333
-0.26,0.125,7186.111111111111
-0.245,0.14,7188.888888888889
-0.24,0.155,7191.666666666667
-0.22,0.15,7194.444444444444
-0.225,0.145,7197.222222222223
-0.235,0.125,7200.0
-0.255,0.125,7202.777777777777
-0.245,0.14,7205.555555555556
-0.24,0.15,7208.333333333333
-0.22,0.135,7211.111111111111
-0.22,0.125,7213.888888888889
-0.24,0.13,7216.666666666667
-0.245,0.13,7219.444444444444
-0.245,0.14,7222.222222222223
-0.235,0.155,7225.0
-0.21,0.14,7227.777777777777
-0.225,0.14,7230.555555555556
-0.24,0.125,7233.333333333333
-0.24,0.115,7236.111111111111
-0.245,0.125,7238.888888888889
-0.23,0.145,7241.666666666667
-0.2,0.13,7244.444444444444
-0.215,0.12,7247.222222222223
-0.225,0.105,7250.0
-0.24,0.105,7252.777777777777
-0.215,0.125,7255.555555555556
-0.19,0.12,7258.333333333333
-0.175,0.09,7261.111111111111
-0.155,-0.005,7263.888888888889
-0.15,-0.085,7266.666666666667
-0.135,-0.185,7269.444444444444
-0.1,-0.285,7272.222222222223
-0.045,-0.39,7275.0
0.015,-0.53,7277.777777777777
0.08,-0.635,7280.555555555556
0.125,-0.74,7283.333333333333
0.175,-0.785,7286.111111111111
0.24,-0.785,7288.888888888889
0.27,-0.775,7291.666666666667
0.28,-0.78,7294.444444444444
0.225,-0.79,7297.222222222223
0.155,-0.805,7300.0
0.07,-0.79,7302.777777777777
0.025,-0.745,7305.555555555556
0.05,-0.71,7308.333333333333
0.105,-0.675,7311.111111111111
0.185,-0.655,7313.888888888889
0.275,-0.64,7316.666666666667
0.39,-0.615,7319.444444444444
0.54,-0.595,7322.222222222223
0.66,-0.555,7325.0
0.745,-0.535,7327.777777777777
0.79,-0.52,7330.555555555556
0.76,-0.505,7333.333333333333
0.69,-0.465,7336.111111111111
0.6,-0.415,7338.888888888889
0.535,-0.34,7341.666666666667
0.455,-0.295,7344.444444444444
0.37,-0.235,7347.222222222223
0.275,-0.2,7350.0
0.175,-0.145,7352.777777777777
0.07,-0.085,7355.555555555556
-0.035,-0.02,7358.333333333333
-0.13,0.025,7361.111111111111
-0.24,0.085,7363.888888888889
-0.325,0.125,7366.666666666667
-0.41,0.18,7369.444444444444
-0.435,0.225,7372.222222222223
-0.435,0.265,7375.0
-0.43,0.275,7377.777777777777
-0.41,0.265,7380.555555555556
-0.4,0.265,7383.333333333333
-0.385,0.285,7386.111111111111
-0.35,0.305,7388.888888888889
-0.295,0.31,7391.666666666667
-0.26,0.32,7394.444444444444
-0.265,0.32,7397.222222222223
-0.275,0.305,7400.0
-0.275,0.325,7402.777777777777
-0.275,0.34,7405.555555555556
-0.275,0.345,7408.333333333333
-0.265,0.35,7411.111111111111
-0.27,0.345,7413.888888888889
-0.265,0.34,7416.666666666667
-0.28,0.33,7419.444444444444
-0.27,0.36,7422.222222222223
-0.265,0.365,7425.0
-0.245,0.365,7427.777777777777
-0.245,0.36,7430.555555555556
-0.27,0.35,7433.333333333333
-0.27,0.36,7436.111111111111
-0.265,0.375,7438.888888888889
-0.26,0.385,7441.666666666667
-0.24,0.39,7444.444444444444
-0.25,0.39,7447.222222222223
-0.245,0.37,7450.0
-0.25,0.385,7452.777777777777
-0.245,0.395,7455.555555555556
-0.24,0.405,7458.333333333333
-0.215,0.405,7461.111111111111
-0.23,0.405,7463.888888888889
-0.245,0.4,7466.666666666667
-0.25,0.4,7469.444444444444
-0.235,0.43,7472.222222222223
-0.21,0.435,7475.0
-0.195,0.445,7477.777777777777
-0.195,0.44,7480.555555555556
-0.22,0.425,7483.333333333333
-0.21,0.455,7486.111111111111
-0.21,0.475,7488.888888888889
-0.185,0.48,7491.666666666667
-0.17,0.475,7494.444444444444
-0.18,0.475,7497.222222222223
-0.17,0.475,7500.0
-0.17,0.485,7502.777777777777
-0.17,0.5,7505.555555555556
-0.16,0.515,7508.333333333333
-0.14,0.515,7511.111111111111
-0.13,0.5,7513.888888888889
-0.13,0.495,7516.666666666667
-0.125,0.51,7519.444444444444
-0.12,0.515,7522.222222222223
-0.105,0.53,7525.0
-0.08,0.525,7527.777777777777
-0.08,0.52,7530.555555555556
-0.075,0.51,7533.333333333333
-0.075,0.51,7536.111111111111
-0.055,0.515,7538.888888888889
-0.03,0.525,7541.666666666667
-0.01,0.505,7544.444444444444
-0.015,0.485,7547.222222222223
-0.015,0.465,7550.0
-0.005,0.45,7552.777777777777
0.01,0.45,7555.555555555556
0.02,0.455,7558.333333333333
0.045,0.43,7561.111111111111
0.055,0.395,7563.888888888889
0.045,0.36,7566.666666666667
0.05,0.35,7569.444444444444
0.065,0.35,7572.222222222223
0.085,0.325,7575.0
0.11,0.295,7577.777777777777
0.125,0.27,7580.555555555556
0.125,0.24,7583.333333333333
0.13,0.23,7586.111111111111
0.145,0.205,7588.888888888889
0.17,0.21,7591.666666666667
0.18,0.2,7594.444444444444
0.21,0.19,7597.222222222223
0.205,0.175,7600.0
0.2,0.15,7602.777777777777
0.19,0.165,7605.555555555556
0.2,0.17,7608.333333333333
0.21,0.155,7611.111111111111
0.175,0.14,7613.888888888889
0.14,0.13,7616.666666666667
0.115,0.13,7619.444444444444
0.095,0.15,7622.222222222223
0.09,0.16,7625.0
0.085,0.145,7627.777777777777
0.055,0.13,7630.555555555556
0.015,0.125,7633.333333333333
-0.01,0.125,7636.111111111111
-0.025,0.125,7638.888888888889
-0.02,0.14,7641.666666666667
-0.025,0.125,7644.444444444444
-0.05,0.125,7647.222222222223
-0.08,0.12,7650.0
-0.09,0.115,7652.777777777777
-0.1,0.135,7655.555555555556
-0.09,0.15,7658.333333333333
-0.085,0.135,7661.111111111111
-0.095,0.125,7663.888888888889
-0.115,0.115,7666.666666666667
-0.14,0.12,7669.444444444444
-0.13,0.14,7672.222222222223
-0.125,0.15,7675.0
-0.1,0.15,7677.777777777777
-0.115,0.14,7680.555555555556
-0.13,0.12,7683.333333333333
-0.14,0.13,7686.111111111111
-0.145,0.135,7688.888888888889
-0.145,0.145,7691.666666666667
-0.115,0.135,7694.444444444444
-0.115,0.13,7697.222222222223
-0.13,0.125,7700.0
-0.155,0.125,7702.777777777777
-0.145,0.145,7705.555555555556
-0.14,0.16,7708.333333333333
-0.125,0.16,7711.111111111111
-0.125,0.14,7713.888888888889
-0.14,0.14,7716.666666666667
-0.145,0.13,7719.444444444444
-0.14,0.155,7722.222222222223
-0.14,0.155,7725.0
-0.12,0.15,7727.777777777777
-0.12,0.145,7730.555555555556
-0.14,0.145,7733.333333333333
-0.135,0.155,7736.111111111111
-0.13,0.16,7738.888888888889
-0.115,0.175,7741.666666666667
-0.105,0.155,7744.444444444444
-0.125,0.155,7747.222222222223
-0.13,0.14,7750.0
-0.14,0.15,7752.777777777777
-0.135,0.165,7755.555555555556
-0.125,0.17,7758.333333333333
-0.105,0.17,7761.111111111111
-0.115,0.155,7763.888888888889
-0.135,0.16,7766.666666666667
-0.135,0.15,7769.444444444444
-0.15,0.17,7772.222222222223
-0.125,0.17,7775.0
-0.11,0.165,7777.777777777777
-0.12,0.17,7780.555555555556
-0.135,0.14,7783.333333333333
-0.155,0.15,7786.111111111111
-0.155,0.16,7788.888888888889
-0.13,0.17,7791.666666666667
-0.12,0.17,7794.444444444444
-0.125,0.16,7797.222222222223
-0.15,0.14,7800.0
-0.16,0.155,7802.777777777777
-0.155,0.165,7805.555555555556
-0.14,0.175,7808.333333333333
-0.13,0.17,7811.111111111111
-0.14,0.155,7813.888888888889
-0.145,0.15,7816.666666666667
-0.17,0.145,7819.444444444444
-0.165,0.155,7822.222222222223
-0.15,0.17,7825.0
-0.125,0.17,7827.777777777777
-0.135,0.165,7830.555555555556
-0.15,0.14,7833.333333333333
-0.16,0.145,7836.111111111111
-0.155,0.155,7838.888888888889
-0.14,0.17,7841.666666666667
-0.125,0.16,7844.444444444444
-0.15,0.145,7847.222222222223
-0.165,0.14,7850.0
-0.18,0.14,7852.777777777777
-0.17,0.155,7855.555555555556
-0.155,0.15,7858.333333333333
-0.15,0.155,7861.111111111111
-0.15,0.14,7863.888888888889
-0.165,0.135,7866.666666666667
-0.18,0.14,7869.444444444444
-0.16,0.14,7872.222222222223
-0.155,0.17,7875.0
-0.15,0.15,7877.777777777777
-0.16,0.145,7880.555555555556
-0.165,0.13,7883.333333333333
-0.17,0.135,7886.111111111111
-0.175,0.155,7888.888888888889
-0.17,0.165,7891.666666666667
-0.155,0.17,7894.444444444444
-0.145,0.165,7897.222222222223
-0.17,0.155,7900.0
-0.19,0.175,7902.777777777777
-0.185,0.19,7905.555555555556
-0.16,0.2,7908.333333333333
-0.155,0.18,7911.111111111111
-0.16,0.185,7913.888888888889
-0.16,0.17,7916.666666666667
-0.155,0.175,7919.444444444444
-0.14,0.19,7922.222222222223
-0.125,0.195,7925.0
-0.105,0.195,7927.777777777777
-0.11,0.2,7930.555555555556
-0.135,0.18,7933.333333333333
-0.15,0.185,7936.111111111111
-0.14,0.2,7938.888888888889
-0.115,0.185,7941.666666666667
-0.1,0.17,7944.444444444444
-0.09,0.15,7947.222222222223
-0.1,0.135,7950.0
-0.1,0.125,7952.777777777777
-0.09,0.125,7955.555555555556
-0.075,0.15,7958.333333333333
-0.065,0.13,7961.111111111111
-0.06,0.115,7963.888888888889
-0.09,0.105,7966.666666666667
-0.11,0.11,7969.444444444444
-0.105,0.115,7972.222222222223
-0.095,0.125,7975.0
-0.085,0.105,7977.777777777777
-0.1,0.09,7980.555555555556
-0.115,0.08,7983.333333333333
-0.115,0.09,7986.111111111111
-0.135,0.095,7988.888888888889
-0.13,0.105,7991.666666666667
-0.115,0.1,7994.444444444444
-0.14,0.09,7997.222222222223
-0.16,0.07,8000.0
-0.16,0.08,8002.777777777777
-0.17,0.105,8005.555555555556
-0.145,0.115,8008.333333333333
-0.14,0.105,8011.111111111111
-0.145,0.105,8013.888888888889
-0.165,0.1,8016.666666666667
-0.19,0.115,8019.444444444444
-0.185,0.14,8022.222222222223
-0.16,0.15,8025.0
-0.155,0.155,8027.777777777777
-0.17,0.135,8030.555555555556
-0.215,0.14,8033.333333333333
-0.22,0.14,8036.111111111111
-0.205,0.155,8038.888888888889
-0.205,0.16,8041.666666666667
-0.18,0.16,8044.444444444444
-0.185,0.15,8047.222222222223
-0.2,0.135,8050.0
-0.21,0.14,8052.777777777777
-0.215,0.16,8055.555555555556
-0.2,0.17,8058.333333333333
-0.205,0.16,8061.111111111111
-0.22,0.15,8063.888888888889
-0.22,0.15,8066.666666666667
-0.225,0.155,8069.444444444444
-0.225,0.16,8072.222222222223
-0.205,0.17,8075.0
-0.2,0.16,8077.777777777777
-0.2,0.145,8080.555555555556
-0.225,0.14,8083.333333333333
-0.235,0.15,8086.111111111111
-0.23,0.155,8088.888888888889
-0.21,0.155,8091.666666666667
-0.205,0.17,8094.444444444444
-0.21,0.165,8097.222222222223
-0.235,0.145,8100.0
-0.22,0.15,8102.777777777777
-0.225,0.155,8105.555555555556
-0.205,0.17,8108.333333333333
-0.195,0.17,8111.111111111111
-0.205,0.15,8113.888888888889
-0.215,0.145,8116.666666666667
-0.22,0.145,8119.444444444444
-0.22,0.165,8122.222222222223
-0.205,0.165,8125.0
-0.19,0.17,8127.777777777777
-0.21,0.16,8130.555555555556
-0.215,0.14,8133.333333333333
-0.22,0.15,8136.111111111111
-0.21,0.15,8138.888888888889
-0.2,0.16,8141.666666666667
-0.195,0.165,8144.444444444444
-0.2,0.145,8147.222222222223
-0.195,0.12,8150.0
-0.18,0.07,8152.777777777777
-0.155,0.01,8155.555555555556
-0.115,-0.065,8158.333333333333
-0.09,-0.2,8161.111111111111
-0.065,-0.33,8163.888888888889
-0.03,-0.475,8166.666666666667
0.01,-0.575,8169.444444444444
0.09,-0.68,8172.222222222223
0.17,-0.74,8175.0
0.22,-0.78,8177.777777777777
0.265,-0.805,8180.555555555556
0.275,-0.805,8183.333333333333
0.235,-0.8,8186.111111111111
0.195,-0.8,8188.888888888889
0.135,-0.795,8191.666666666667
0.08,-0.775,8194.444444444445
0.065,-0.76,8197.222222222223
0.08,-0.72,8200.0
0.135,-0.68,8202.777777777777
0.245,-0.635,8205.555555555555
0.385,-0.6,8208.333333333334
0.52,-0.585,8211.111111111111
0.645,-0.58,8213.888888888889
0.74,-0.565,8216.666666666666
0.815,-0.545,8219.444444444445
0.85,-0.505,8222.222222222223
0.835,-0.46,8225.0
0.77,-0.425,8227.777777777777
0.645,-0.39,8230.555555555555
0.56,-0.345,8233.333333333334
0.48,-0.28,8236.111111111111
0.385,-0.225,8238.888888888889
0.31,-0.16,8241.666666666666
0.235,-0.13,8244.444444444445
0.12,-0.08,8247.222222222223
-0.015,-0.04,8250.0
-0.13,0.025,8252.777777777777
-0.25,0.11,8255.555555555555
-0.33,0.165,8258.333333333334
-0.39,0.22,8261.111111111111
-0.43,0.245,8263.888888888889
-0.47,0.265,8266.666666666666
-0.485,0.285,8269.444444444445
-0.465,0.31,8272.222222222223
-0.405,0.33,8275.0
-0.37,0.33,8277.777777777777
-0.345,0.32,8280.555555555555
-0.305,0.325,8283.333333333334
-0.3,0.325,8286.111111111111
-0.295,0.355,8288.888888888889
-0.285,0.375,8291.666666666666
-0.28,0.375,8294.444444444445
-0.275,0.36,8297.222222222223
-0.285,0.36,8300.0
-0.29,0.355,8302.777777777777
-0.285,0.38,8305.555555555555
-0.27,0.39,8308.333333333334
-0.26,0.4,8311.111111111111
-0.26,0.38,8313.888888888889
-0.26,0.375,8316.666666666666
-0.285,0.385,8319.444444444445
-0.28,0.395,8322.222222222223
-0.265,0.415,8325.0
-0.25,0.41,8327.777777777777
-0.25,0.4,8330.555555555555
-0.26,0.4,8333.333333333334
-0.265,0.41,8336.111111111111
-0.26,0.415,8338.888888888889
-0.245,0.43,8341.666666666666
-0.24,0.435,8344.444444444445
-0.23,0.425,8347.222222222223
-0.25,0.41,8350.0
-0.25,0.43,8352.777777777777
-0.245,0.435,8355.555555555555
-0.235,0.45,8358.333333333334
-0.225,0.47,8361.111111111111
-0.23,0.455,8363.888888888889
-0.245,0.445,8366.666666666666
-0.235,0.465,8369.444444444445
-0.225,0.47,8372.222222222223
-0.21,0.49,8375.0
-0.195,0.485,8377.777777777777
-0.2,0.49,8380.555555555555
-0.205,0.47,8383.333333333334
-0.205,0.485,8386.111111111111
-0.215,0.505,8388.888888888889
-0.195,0.53,8391.666666666666
-0.16,0.525,8394.444444444445
-0.16,0.515,8397.222222222223
-0.175,0.515,8400.0
-0.175,0.515,8402.777777777777
-0.175,0.535,8405.555555555555
-0.15,0.545,8408.333333333334
-0.135,0.545,8411.111111111111
-0.145,0.535,8413.888888888889
-0.135,0.525,8416.666666666666
-0.135,0.53,8419.444444444445
-0.11,0.54,8422.222222222223
-0.095,0.545,8425.0
-0.095,0.545,8427.777777777777
-0.085,0.535,8430.555555555555
-0.095,0.525,8433.333333333334
-0.09,0.53,8436.111111111111
-0.07,0.52,8438.888888888889
-0.03,0.53,8441.666666666666
-0.005,0.52,8444.444444444445
-0.01,0.495,8447.222222222223
-0.005,0.475,8450.0
-0.005,0.46,8452.777777777777
0.0,0.455,8455.555555555555
0.035,0.44,8458.333333333334
0.055,0.425,8461.111111111111
0.055,0.385,8463.888888888889
0.055,0.36,8466.666666666666
0.05,0.345,8469.444444444445
0.07,0.33,8472.222222222223
0.105,0.325,8475.0
0.105,0.3,8477.777777777777
0.12,0.275,8480.555555555555
0.13,0.24,8483.333333333334
0.125,0.235,8486.111111111111
0.145,0.23,8488.888888888889
0.165,0.23,8491.666666666666
0.185,0.215,8494.444444444445
0.185,0.195,8497.222222222223
0.175,0.185,8500.0
0.16,0.175,8502.777777777777
0.145,0.175,8505.555555555555
0.15,0.19,8508.333333333334
0.135,0.195,8511.111111111111
0.11,0.17,8513.888888888889
0.08,0.165,8516.666666666666
0.035,0.175,8519.444444444445
0.025,0.165,8522.222222222223
0.01,0.175,8525.0
0.015,0.165,8527.777777777777
-0.01,0.165,8530.555555555555
-0.04,0.155,8533.333333333334
-0.065,0.165,8536.111111111111
-0.095,0.16,8538.888888888889
-0.095,0.17,8541.666666666666
-0.08,0.185,8544.444444444445
-0.105,0.165,8547.222222222223
-0.115,0.155,8550.0
-0.135,0.155,8552.777777777777
-0.15,0.17,8555.555555555555
-0.14,0.17,8558.333333333334
-0.14,0.165,8561.111111111111
-0.145,0.165,8563.888888888889
-0.155,0.14,8566.666666666666
-0.17,0.15,8569.444444444445
-0.17,0.155,8572.222222222223
-0.15,0.18,8575.0
-0.155,0.175,8577.777777777777
-0.17,0.175,8580.555555555555
-0.185,0.16,8583.333333333334
-0.185,0.16,8586.111111111111
-0.185,0.165,8588.888888888889
-0.17,0.195,8591.666666666666
-0.16,0.18,8594.444444444445
-0.165,0.175,8597.222222222223
-0.175,0.15,8600.0
-0.185,0.17,8602.777777777777
-0.185,0.175,8605.555555555555
-0.175,0.18,8608.333333333334
-0.165,0.19,8611.111111111111
-0.175,0.175,8613.888888888889
-0.195,0.17,8616.666666666666
-0.195,0.17,8619.444444444445
-0.21,0.185,8622.222222222223
-0.185,0.19,8625.0
-0.18,0.19,8627.777777777777
-0.19,0.195,8630.555555555555
-0.19,0.185,8633.333333333334
-0.195,0.175,8636.111111111111
-0.205,0.195,8638.888888888889
-0.185,0.215,8641.666666666666
-0.175,0.195,8644.444444444445
-0.18,0.19,8647.222222222223
-0.19,0.19,8650.0
-0.215,0.18,8652.777777777777
-0.2,0.195,8655.555555555555
-0.19,0.205,8658.333333333334
-0.18,0.215,8661.111111111111
-0.185,0.2,8663.888888888889
-0.185,0.2,8666.666666666666
-0.2,0.195,8669.444444444445
-0.2,0.215,8672.222222222223
-0.18,0.215,8675.0
-0.175,0.21,8677.777777777777
-0.185,0.2,8680.555555555555
-0.19,0.18,8683.333333333334
-0.21,0.18,8686.111111111111
-0.2,0.2,8688.888888888889
-0.19,0.21,8691.666666666666
-0.175,0.215,8694.444444444445
-0.19,0.185,8697.222222222223
-0.195,0.175,8700.0
-0.21,0.185,8702.777777777777
-0.2,0.19,8705.555555555555
-0.19,0.19,8708.333333333334
-0.18,0.19,8711.111111111111
-0.19,0.185,8713.888888888889
-0.22,0.165,8716.666666666666
-0.235,0.175,8719.444444444445
-0.21,0.19,8722.222222222223
-0.205,0.19,8725.0
-0.195,0.2,8727.777777777777
-0.205,0.185,8730.555555555555
-0.205,0.17,8733.333333333334
-0.22,0.175,8736.111111111111
-0.21,0.185,8738.888888888889
-0.2,0.195,8741.666666666666
-0.195,0.195,8744.444444444445
-0.2,0.185,8747.222222222223
-0.205,0.165,8750.0
-0.22,0.17,8752.777777777777
-0.215,0.185,8755.555555555555
-0.2,0.195,8758.333333333334
-0.195,0.18,8761.111111111111
-0.205,0.18,8763.888888888889
-0.21,0.17,8766.666666666666
-0.215,0.175,8769.444444444445
-0.23,0.18,8772.222222222223
-0.2,0.19,8775.0
-0.205,0.2,8777.777777777777
-0.21,0.175,8780.555555555555
-0.22,0.165,8783.333333333334
-0.24,0.17,8786.111111111111
-0.22,0.19,8788.888888888889
-0.215,0.2,8791.666666666666
-0.195,0.205,8794.444444444445
-0.2,0.205,8797.222222222223
-0.22,0.2,8800.0
-0.21,0.215,8802.777777777777
-0.215,0.225,8805.555555555555
-0.205,0.235,8808.333333333334
-0.19,0.23,8811.111111111111
-0.195,0.23,8813.888888888889
-0.19,0.215,8816.666666666666
-0.2,0.22,8819.444444444445
-0.18,0.23,8822.222222222223
-0.17,0.24,8825.0
-0.145,0.23,8827.777777777777
-0.155,0.22,8830.555555555555
-0.155,0.195,8833.333333333334
-0.16,0.185,8836.111111111111
-0.155,0.195,8838.888888888889
-0.125,0.185,8841.666666666666
-0.12,0.18,8844.444444444445
-0.115,0.165,8847.222222222223
-0.13,0.14,8850.0
-0.14,0.14,8852.777777777777
-0.13,0.155,8855.555555555555
-0.125,0.145,8858.333333333334
-0.12,0.145,8861.111111111111
-0.115,0.13,8863.888888888889
-0.15,0.12,8866.666666666666
-0.17,0.12,8869.444444444445
-0.16,0.125,8872.222222222223
-0.15,0.14,8875.0
-0.15,0.13,8877.777777777777
-0.16,0.115,8880.555555555555
-0.18,0.1,8883.333333333334
-0.195,0.1,8886.111111111111
-0.2,0.12,8888.888888888889
-0.19,0.14,8891.666666666666
-0.19,0.145,8894.444444444445
-0.19,0.135,8897.222222222223
-0.2,0.12,8900.0
-0.22,0.12,8902.777777777777
-0.22,0.145,8905.555555555555
-0.21,0.165,8908.333333333334
-0.195,0.18,8911.111111111111
-0.2,0.17,8913.888888888889
-0.225,0.165,8916.666666666666
-0.245,0.155,8919.444444444445
-0.25,0.165,8922.222222222223
-0.235,0.175,8925.0
-0.23,0.17,8927.777777777777
-0.225,0.17,8930.555555555555
-0.245,0.16,8933.333333333334
-0.26,0.16,8936.111111111111
-0.25,0.18,8938.888888888889
-0.25,0.18,8941.666666666666
-0.24,0.18,8944.444444444445
-0.25,0.175,8947.222222222223
-0.27,0.16,8950.0
-0.275,0.165,8952.777777777777
-0.285,0.185,8955.555555555555
-0.27,0.19,8958.333333333334
-0.25,0.19,8961.111111111111
-0.255,0.19,8963.888888888889
-0.27,0.17,8966.666666666666
-0.28,0.18,8969.444444444445
-0.295,0.175,8972.222222222223
-0.27,0.195,8975.0
-0.265,0.195,8977.777777777777
-0.27,0.175,8980.555555555555
-0.285,0.165,8983.333333333334
-0.29,0.17,8986.111111111111
-0.28,0.19,8988.888888888889
-0.27,0.185,8991.666666666666
-0.255,0.185,8994.444444444445
-0.26,0.185,8997.222222222223
-0.28,0.17,9000.0
-0.29,0.16,9002.777777777777
-0.295,0.175,9005.555555555555
-0.28,0.175,9008.333333333334
-0.265,0.175,9011.111111111111
-0.26,0.175,9013.888888888889
-0.275,0.155,9016.666666666666
-0.285,0.15,9019.444444444445
-0.285,0.165,9022.222222222223
-0.27,0.175,9025.0
-0.245,0.18,9027.777777777777
-0.245,0.16,9030.555555555555
-0.25,0.12,9033.333333333334
-0.24,0.055,9036.111111111111
-0.22,-0.01,9038.888888888889
-0.19,-0.09,9041.666666666666
-0.145,-0.21,9044.444444444445
-0.115,-0.345,9047.222222222223
-0.085,-0.465,9050.0
-0.03,-0.565,9052.777777777777
0.03,-0.65,9055.555555555555
0.1,-0.705,9058.333333333334
0.155,-0.745,9061.111111111111
0.19,-0.775,9063.888888888889
0.19,-0.78,9066.666666666666
0.145,-0.79,9069.444444444445
0.085,-0.785,9072.222222222223
0.03,-0.765,9075.0
-0.025,-0.74,9077.777777777777
-0.04,-0.72,9080.555555555555
-0.035,-0.7,9083.333333333334
0.04,-0.665,9086.111111111111
0.17,-0.625,9088.888888888889
0.335,-0.58,9091.666666666666
0.47,-0.555,9094.444444444445
0.595,-0.555,9097.222222222223
0.665,-0.535,9100.0
0.705,-0.5,9102.777777777777
0.69,-0.465,9105.555555555555
0.625,-0.4,9108.333333333334
0.535,-0.36,9111.111111111111
0.42,-0.32,9113.888888888889
0.29,-0.27,9116.666666666666
0.18,-0.225,9119.444444444445
0.085,-0.15,9122.222222222223
-0.035,-0.095,9125.0
-0.14,-0.035,9127.777777777777
-0.255,0.02,9130.555555555555
-0.365,0.08,9133.333333333334
-0.455,0.135,9136.111111111111
-0.51,0.2,9138.888888888889
-0.545,0.25,9141.666666666666
-0.565,0.29,9144.444444444445
-0.575,0.295,9147.222222222223
-0.58,0.3,9150.0
-0.555,0.305,9152.777777777777
-0.505,0.34,9155.555555555555
-0.45,0.35,9158.333333333334
-0.41,0.35,9161.111111111111
-0.385,0.345,9163.888888888889
-0.385,0.35,9166.666666666666
-0.38,0.345,9169.444444444445
-0.385,0.37,9172.222222222223
-0.37,0.39,9175.0
-0.36,0.4,9177.777777777777
-0.36,0.39,9180.555555555555
-0.365,0.38,9183.333333333334
-0.375,0.385,9186.111111111111
-0.38,0.41,9188.888888888889
-0.355,0.42,9191.666666666666
-0.345,0.41,9194.444444444445
-0.365,0.405,9197.222222222223
-0.365,0.405,9200.0
-0.375,0.415,9202.777777777777
-0.375,0.425,9205.555555555555
-0.34,0.445,9208.333333333334
-0.335,0.43,9211.111111111111
-0.345,0.44,9213.888888888889
-0.36,0.425,9216.666666666666
-0.375,0.435,9219.444444444445
-0.36,0.445,9222.222222222223
-0.34,0.45,9225.0
-0.32,0.45,9227.777777777777
-0.33,0.45,9230.555555555555
-0.34,0.455,9233.333333333334
-0.35,0.455,9236.111111111111
-0.345,0.465,9238.888888888889
-0.33,0.48,9241.666666666666
-0.32,0.48,9244.444444444445
-0.315,0.485,9247.222222222223
-0.32,0.48,9250.0
-0.33,0.48,9252.777777777777
-0.32,0.495,9255.555555555555
-0.295,0.51,9258.333333333334
-0.28,0.51,9261.111111111111
-0.29,0.51,9263.888888888889
-0.29,0.495,9266.666666666666
-0.29,0.515,9269.444444444445
-0.3,0.535,9272.222222222223
-0.28,0.55,9275.0
-0.265,0.545,9277.777777777777
-0.26,0.535,9280.555555555555
-0.255,0.54,9283.333333333334
-0.255,0.545,9286.111111111111
-0.255,0.56,9288.888888888889
-0.235,0.585,9291.666666666666
-0.21,0.57,9294.444444444445
-0.2,0.56,9297.222222222223
-0.2,0.55,9300.0
-0.205,0.57,9302.777777777777
-0.185,0.565,9305.555555555555
-0.165,0.57,9308.333333333334
-0.15,0.57,9311.111111111111
-0.14,0.565,9313.888888888889
-0.155,0.55,9316.666666666666
-0.135,0.54,9319.444444444445
-0.115,0.54,9322.222222222223
-0.09,0.545,9325.0
-0.06,0.54,9327.777777777777
-0.065,0.515,9330.555555555555
-0.065,0.485,9333.333333333334
-0.08,0.48,9336.111111111111
-0.075,0.465,9338.888888888889
-0.045,0.455,9341.666666666666
-0.005,0.44,9344.444444444445
-0.005,0.41,9347.222222222223
0.0,0.38,9350.0
0.0,0.355,9352.777777777777
0.015,0.33,9355.555555555555
0.035,0.32,9358.333333333334
0.055,0.31,9361.111111111111
0.075,0.275,9363.888888888889
0.065,0.27,9366.666666666666
0.065,0.255,9369.444444444445
0.06,0.25,9372.222222222223
0.08,0.245,9375.0
0.09,0.235,9377.777777777777
0.07,0.225,9380.555555555555
0.055,0.22,9383.333333333334
0.03,0.215,9386.111111111111
0.01,0.215,9388.888888888889
0.01,0.21,9391.666666666666
-0.025,0.22,9394.444444444445
-0.025,0.205,9397.222222222223
-0.075,0.205,9400.0
-0.105,0.195,9402.777777777777
-0.12,0.21,9405.555555555555
-0.135,0.205,9408.333333333334
-0.14,0.21,9411.111111111111
-0.165,0.19,9413.888888888889
-0.2,0.185,9416.666666666666
-0.235,0.19,9419.444444444445
-0.23,0.215,9422.222222222223
-0.225,0.22,9425.0
-0.225,0.215,9427.777777777777
-0.25,0.195,9430.555555555555
-0.27,0.185,9433.333333333334
-0.295,0.18,9436.111111111111
-0.295,0.195,9438.888888888889
-0.29,0.22,9441.666666666666
-0.27,0.22,9444.444444444445
-0.275,0.2,9447.222222222223
-0.295,0.18,9450.0
-0.3,0.195,9452.777777777777
-0.305,0.195,9455.555555555555
-0.31,0.195,9458.333333333334
-0.295,0.215,9461.111111111111
-0.305,0.205,9463.888888888889
-0.315,0.2,9466.666666666666
-0.335,0.185,9469.444444444445
-0.32,0.205,9472.222222222223
-0.315,0.215,9475.0
-0.295,0.205,9477.777777777777
-0.295,0.205,9480.555555555555
-0.325,0.195,9483.333333333334
-0.33,0.215,9486.111111111111
-0.325,0.215,9488.888888888889
-0.3,0.225,9491.666666666666
-0.29,0.225,9494.444444444445
-0.3,0.225,9497.222222222223
-0.325,0.215,9500.0
-0.33,0.225,9502.777777777777
-0.32,0.23,9505.555555555555
-0.3,0.24,9508.333333333334
-0.3,0.24,9511.111111111111
-0.3,0.235,9513.888888888889
-0.32,0.21,9516.666666666666
-0.33,0.21,9519.444444444445
-0.33,0.23,9522.222222222223
-0.32,0.23,9525.0
-0.305,0.24,9527.777777777777
-0.31,0.23,9530.555555555555
-0.32,0.225,9533.333333333334
-0.32,0.23,9536.111111111111
-0.33,0.23,9538.888888888889
-0.325,0.255,9541.666666666666
-0.32,0.245,9544.444444444445
-0.315,0.24,9547.222222222223
-0.33,0.24,9550.0
-0.325,0.235,9552.777777777777
-0.335,0.245,9555.555555555555
-0.315,0.27,9558.333333333334
-0.29,0.25,9561.111111111111
-0.305,0.245,9563.888888888889
-0.31,0.225,9566.666666666666
-0.325,0.21,9569.444444444445
-0.32,0.235,9572.222222222223
-0.31,0.235,9575.0
-0.305,0.235,9577.777777777777
-0.29,0.23,9580.555555555555
-0.305,0.215,9583.333333333334
-0.315,0.22,9586.111111111111
-0.32,0.235,9588.888888888889
-0.31,0.25,9591.666666666666
-0.3,0.24,9594.444444444445
-0.305,0.23,9597.222222222223
-0.32,0.21,9600.0
-0.34,0.215,9602.777777777777
-0.33,0.23,9605.555555555555
-0.32,0.255,9608.333333333334
-0.315,0.255,9611.111111111111
-0.33,0.23,9613.888888888889
-0.33,0.215,9616.666666666666
-0.335,0.2,9619.444444444445
-0.345,0.21,9622.222222222223
-0.315,0.23,9625.0
-0.31,0.235,9627.777777777777
-0.315,0.22,9630.555555555555
-0.33,0.205,9633.333333333334
-0.335,0.215,9636.111111111111
-0.33,0.235,9638.888888888889
-0.33,0.24,9641.666666666666
-0.31,0.24,9644.444444444445
-0.315,0.22,9647.222222222223
-0.335,0.215,9650.0
-0.335,0.215,9652.777777777777
-0.335,0.23,9655.555555555555
-0.325,0.24,9658.333333333334
-0.325,0.24,9661.111111111111
-0.32,0.245,9663.888888888889
-0.325,0.245,9666.666666666666
-0.35,0.255,9669.444444444445
-0.325,0.27,9672.222222222223
-0.305,0.29,9675.0
-0.29,0.28,9677.777777777777
-0.29,0.265,9680.555555555555
-0.3,0.25,9683.333333333334
-0.305,0.255,9686.111111111111
-0.295,0.27,9688.888888888889
-0.28,0.28,9691.666666666666
-0.255,0.27,9694.444444444445
-0.27,0.275,9697.222222222223
-0.28,0.235,9700.0
-0.275,0.225,9702.777777777777
-0.26,0.225,9705.555555555555
-0.245,0.23,9708.333333333334
-0.24,0.23,9711.111111111111
-0.25,0.22,9713.888888888889
-0.24,0.185,9716.666666666666
-0.23,0.18,9719.444444444445
-0.235,0.175,9722.222222222223
-0.23,0.195,9725.0
-0.22,0.18,9727.777777777777
-0.225,0.15,9730.555555555555
-0.24,0.145,9733.333333333334
-0.255,0.145,9736.111111111111
-0.275,0.16,9738.888888888889
-0.255,0.17,9741.666666666666
-0.25,0.18,9744.444444444445
-0.26,0.155,9747.222222222223
-0.28,0.145,9750.0
-0.31,0.145,9752.777777777777
-0.295,0.165,9755.555555555555
-0.285,0.175,9758.333333333334
-0.29,0.155,9761.111111111111
-0.29,0.155,9763.888888888889
-0.305,0.145,9766.666666666666
-0.325,0.15,9769.444444444445
-0.335,0.175,9772.222222222223
-0.315,0.19,9775.0
-0.3,0.205,9777.777777777777
-0.345,0.185,9780.555555555555
-0.335,0.18,9783.333333333334
-0.35,0.195,9786.111111111111
-0.355,0.195,9788.888888888889
-0.335,0.21,9791.666666666666
-0.315,0.215,9794.444444444445
-0.315,0.195,9797.222222222223
-0.33,0.19,9800.0
-0.335,0.185,9802.777777777777
-0.345,0.205,9805.555555555555
-0.325,0.22,9808.333333333334
-0.33,0.215,9811.111111111111
-0.335,0.2,9813.888888888889
-0.34,0.19,9816.666666666666
-0.345,0.18,9819.444444444445
-0.335,0.2,9822.222222222223
-0.34,0.21,9825.0
-0.32,0.21,9827.777777777777
-0.33,0.2,9830.555555555555
-0.335,0.195,9833.333333333334
-0.345,0.195,9836.111111111111
-0.35,0.205,9838.888888888889
-0.32,0.215,9841.666666666666
-0.31,0.205,9844.444444444445
-0.315,0.205,9847.222222222223
-0.33,0.18,9850.0
-0.335,0.18,9852.777777777777
-0.33,0.185,9855.555555555555
-0.315,0.2,9858.333333333334
-0.305,0.195,9861.111111111111
-0.305,0.19,9863.888888888889
-0.295,0.17,9866.666666666666
-0.31,0.155,9869.444444444445
-0.29,0.12,9872.222222222223
-0.265,0.065,9875.0
-0.225,-0.03,9877.777777777777
-0.195,-0.145,9880.555555555555
-0.17,-0.31,9883.333333333334
-0.11,-0.425,9886.111111111111
-0.03,-0.54,9888.888888888889
0.045,-0.625,9891.666666666666
0.125,-0.67,9894.444444444445
0.16,-0.72,9897.222222222223
0.185,-0.71,9900.0
0.155,-0.71,9902.777777777777
0.105,-0.705,9905.555555555555
0.03,-0.7,9908.333333333334
-0.035,-0.69,9911.111111111111
-0.1,-0.655,9913.888888888889
-0.085,-0.64,9916.666666666666
-0.02,-0.605,9919.444444444445
0.085,-0.56,9922.222222222223
0.21,-0.52,9925.0
0.35,-0.5,9927.777777777777
0.445,-0.49,9930.555555555555
0.52,-0.48,9933.333333333334
0.57,-0.45,9936.111111111111
0.615,-0.42,9938.888888888889
0.58,-0.355,9941.666666666666
0.535,-0.305,9944.444444444445
0.425,-0.265,9947.222222222223
0.32,-0.23,9950.0
0.24,-0.175,9952.777777777777
0.125,-0.115,9955.555555555555
0.05,-0.06,9958.333333333334
-0.005,0.0,9961.111111111111
-0.12,0.05,9963.888888888889
-0.23,0.08,9966.666666666666
-0.325,0.155,9969.444444444445
-0.405,0.22,9972.222222222223
-0.47,0.27,9975.0
-0.485,0.305,9977.777777777777
-0.52,0.315,9980.555555555555
-0.525,0.32,9983.333333333334
-0.505,0.33,9986.111111111111
-0.465,0.35,9988.888888888889
-0.42,0.37,9991.666666666666
-0.39,0.39,9994.444444444445
-0.365,0.375,9997.222222222223
-0.36,0.37,10000.0
-0.36,0.38,10002.777777777777
-0.36,0.4,10005.555555555555
-0.335,0.405,10008.333333333334
-0.33,0.405,10011.111111111111
-0.345,0.41,10013.888888888889
-0.36,0.405,10016.666666666666
-0.34,0.4,10019.444444444445
-0.345,0.415,10022.222222222223
-0.33,0.435,10025.0
-0.315,0.435,10027.777777777777
-0.32,0.42,10030.555555555555
-0.32,0.42,10033.333333333334
-0.335,0.425,10036.111111111111
-0.315,0.435,10038.888888888889
-0.305,0.445,10041.666666666666
-0.295,0.445,10044.444444444445
-0.32,0.435,10047.222222222223
-0.315,0.425,10050.0
-0.33,0.435,10052.777777777777
-0.325,0.455,10055.555555555555
-0.31,0.46,10058.333333333334
-0.295,0.46,10061.111111111111
-0.29,0.465,10063.888888888889
-0.3,0.46,10066.666666666666
-0.305,0.45,10069.444444444445
-0.3,0.48,10072.222222222223
-0.29,0.495,10075.0
-0.265,0.51,10077.777777777777
-0.27,0.495,10080.555555555555
-0.285,0.49,10083.333333333334
-0.275,0.49,10086.111111111111
-0.265,0.505,10088.888888888889
-0.255,0.52,10091.666666666666
-0.24,0.525,10094.444444444445
-0.23,0.53,10097.222222222223
-0.235,0.52,10100.0
-0.25,0.52,10102.777777777777
-0.235,0.54,10105.555555555555
-0.215,0.565,10108.333333333334
-0.18,0.565,10111.111111111111
-0.195,0.555,10113.888888888889
-0.195,0.545,10116.666666666666
-0.195,0.56,10119.444444444445
-0.175,0.565,10122.222222222223
-0.165,0.59,10125.0
-0.13,0.59,10127.777777777777
-0.125,0.565,10130.555555555555
-0.135,0.555,10133.333333333334
-0.125,0.56,10136.111111111111
-0.12,0.56,10138.888888888889
-0.105,0.585,10141.666666666666
-0.085,0.57,10144.444444444445
-0.07,0.57,10147.222222222223
-0.06,0.545,10150.0
-0.06,0.54,10152.777777777777
-0.04,0.535,10155.555555555555
-0.015,0.525,10158.333333333334
0.005,0.51,10161.111111111111
0.015,0.485,10163.888888888889
0.015,0.455,10166.666666666666
0.02,0.445,10169.444444444445
0.02,0.43,10172.222222222223
0.045,0.415,10175.0
0.075,0.405,10177.777777777777
0.085,0.36,10180.555555555555
0.09,0.335,10183.333333333334
0.085,0.32,10186.111111111111
0.11,0.32,10188.888888888889
0.13,0.31,10191.666666666666
0.16,0.29,10194.444444444445
0.155,0.27,10197.222222222223
0.14,0.26,10200.0
0.14,0.25,10202.777777777777
0.14,0.26,10205.555555555555
0.15,0.27,10208.333333333334
0.125,0.27,10211.111111111111
0.11,0.245,10213.888888888889
0.085,0.235,10216.666666666666
0.055,0.225,10219.444444444445
0.035,0.225,10222.222222222223
0.02,0.23,10225.0
0.015,0.23,10227.777777777777
-0.005,0.22,10230.555555555555
-0.03,0.21,10233.333333333334
-0.065,0.22,10236.111111111111
-0.075,0.225,10238.888888888889
-0.095,0.235,10241.666666666666
-0.085,0.23,10244.444444444445
-0.105,0.225,10247.222222222223
-0.13,0.215,10250.0
-0.155,0.21,10252.777777777777
-0.16,0.245,10255.555555555555
-0.145,0.24,10258.333333333334
-0.155,0.24,10261.111111111111
-0.15,0.22,10263.888888888889
-0.18,0.205,10266.666666666666
-0.2,0.215,10269.444444444445
-0.2,0.225,10272.222222222223
-0.19,0.22,10275.0
-0.195,0.22,10277.777777777777
-0.175,0.21,10280.555555555555
-0.19,0.195,10283.333333333334
-0.2,0.205,10286.111111111111
-0.19,0.21,10288.888888888889
-0.2,0.235,10291.666666666666
-0.175,0.235,10294.444444444445
-0.17,0.21,10297.222222222223
-0.19,0.2,10300.0
-0.2,0.2,10302.777777777777
-0.2,0.215,10305.555555555555
-0.195,0.225,10308.333333333334
-0.19,0.23,10311.111111111111
-0.2,0.225,10313.888888888889
-0.2,0.21,10316.666666666666
-0.205,0.215,10319.444444444445
-0.2,0.225,10322.222222222223
-0.19,0.225,10325.0
-0.165,0.235,10327.777777777777
-0.185,0.23,10330.555555555555
-0.195,0.22,10333.333333333334
-0.2,0.215,10336.111111111111
-0.215,0.23,10338.888888888889
-0.19,0.245,10341.666666666666
-0.165,0.24,10344.444444444445
-0.175,0.24,10347.222222222223
-0.185,0.225,10350.0
-0.195,0.22,10352.777777777777
-0.19,0.225,10355.555555555555
-0.18,0.24,10358.333333333334
-0.165,0.235,10361.111111111111
-0.18,0.22,10363.888888888889
-0.185,0.23,10366.666666666666
-0.185,0.205,10369.444444444445
-0.195,0.22,10372.222222222223
-0.175,0.23,10375.0
-0.165,0.23,10377.777777777777
-0.18,0.22,10380.555555555555
-0.185,0.195,10383.333333333334
-0.19,0.215,10386.111111111111
-0.205,0.22,10388.888888888889
-0.19,0.23,10391.666666666666
-0.175,0.235,10394.444444444445
-0.18,0.215,10397.222222222223
-0.195,0.205,10400.0
-0.205,0.205,10402.777777777777
-0.215,0.22,10405.555555555555
-0.2,0.23,10408.333333333334
-0.18,0.225,10411.111111111111
-0.195,0.195,10413.888888888889
-0.2,0.195,10416.666666666666
-0.2,0.195,10419.444444444445
-0.22,0.21,10422.222222222223
-0.2,0.21,10425.0
-0.18,0.22,10427.777777777777
-0.2,0.215,10430.555555555555
-0.195,0.195,10433.333333333334
-0.215,0.195,10436.111111111111
-0.225,0.2,10438.888888888889
-0.195,0.225,10441.666666666666
-0.185,0.21,10444.444444444445
-0.19,0.21,10447.222222222223
-0.205,0.195,10450.0
-0.21,0.195,10452.777777777777
-0.225,0.205,10455.555555555555
-0.215,0.215,10458.333333333334
-0.2,0.215,10461.111111111111
-0.195,0.2,10463.888888888889
-0.195,0.19,10466.666666666666
-0.215,0.185,10469.444444444445
-0.215,0.205,10472.222222222223
-0.2,0.22,10475.0
-0.195,0.215,10477.777777777777
-0.215,0.21,10480.555555555555
-0.235,0.2,10483.333333333334
-0.235,0.21,10486.111111111111
-0.225,0.22,10488.888888888889
-0.215,0.235,10491.666666666666
-0.2,0.245,10494.444444444445
-0.2,0.23,10497.222222222223
-0.205,0.225,10500.0
-0.22,0.235,10502.777777777777
-0.215,0.24,10505.555555555555
-0.205,0.25,10508.333333333334
-0.185,0.245,10511.111111111111
-0.185,0.24,10513.888888888889
-0.185,0.235,10516.666666666666
-0.18,0.225,10519.444444444445
-0.185,0.23,10522.222222222223
-0.17,0.255,10525.0
-0.15,0.235,10527.777777777777
-0.15,0.215,10530.555555555555
-0.16,0.195,10533.333333333334
-0.155,0.19,10536.111111111111
-0.155,0.195,10538.888888888889
-0.135,0.19,10541.666666666666
-0.11,0.175,10544.444444444445
-0.105,0.16,10547.222222222223
-0.115,0.135,10550.0
-0.15,0.135,10552.777777777777
-0.135,0.145,10555.555555555555
-0.14,0.16,10558.333333333334
-0.14,0.145,10561.111111111111
-0.135,0.145,10563.888888888889
-0.15,0.125,10566.666666666666
-0.165,0.12,10569.444444444445
-0.175,0.135,10572.222222222223
-0.175,0.145,10575.0
-0.165,0.135,10577.777777777777
-0.175,0.14,10580.555555555555
-0.18,0.12,10583.333333333334
-0.195,0.11,10586.111111111111
-0.2,0.135,10588.888888888889
-0.19,0.135,10591.666666666666
-0.19,0.15,10594.444444444445
-0.2,0.135,10597.222222222223
-0.2,0.13,10600.0
-0.215,0.14,10602.777777777777
-0.205,0.165,10605.555555555555
-0.195,0.185,10608.333333333334
-0.2,0.175,10611.111111111111
-0.2,0.165,10613.888888888889
-0.235,0.15,10616.666666666666
-0.265,0.15,10619.444444444445
-0.27,0.165,10622.222222222223
-0.25,0.175,10625.0
-0.23,0.165,10627.777777777777
-0.24,0.165,10630.555555555555
-0.235,0.15,10633.333333333334
-0.26,0.16,10636.111111111111
-0.25,0.18,10638.888888888889
-0.255,0.195,10641.666666666666
-0.245,0.19,10644.444444444445
-0.265,0.165,10647.222222222223
-0.27,0.17,10650.0
-0.3,0.165,10652.777777777777
-0.295,0.175,10655.555555555555
-0.265,0.19,10658.333333333334
-0.245,0.21,10661.111111111111
-0.25,0.18,10663.888888888889
-0.265,0.175,10666.666666666666
-0.285,0.175,10669.444444444445
-0.28,0.195,10672.222222222223
-0.27,0.19,10675.0
-0.26,0.19,10677.777777777777
-0.255,0.175,10680.555555555555
-0.28,0.165,10683.333333333334
-0.275,0.165,10686.111111111111
-0.275,0.185,10688.888888888889
-0.26,0.19,10691.666666666666
-0.25,0.2,10694.444444444445
-0.245,0.19,10697.222222222223
-0.26,0.175,10700.0
-0.27,0.17,10702.777777777777
-0.265,0.185,10705.555555555555
-0.255,0.185,10708.333333333334
-0.25,0.195,10711.111111111111
-0.25,0.185,10713.888888888889
-0.27,0.18,10716.666666666666
-0.26,0.19,10719.444444444445
-0.25,0.185,10722.222222222223
-0.225,0.17,10725.0
-0.2,0.11,10727.777777777777
-0.175,0.015,10730.555555555555
-0.16,-0.105,10733.333333333334
-0.15,-0.215,10736.111111111111
-0.1,-0.325,10738.888888888889
-0.04,-0.43,10741.666666666666
0.045,-0.535,10744.444444444445
0.09,-0.625,10747.222222222223
0.155,-0.68,10750.0
0.185,-0.705,10752.777777777777
0.18,-0.685,10755.555555555555
0.17,-0.675,10758.333333333334
0.13,-0.69,10761.111111111111
0.04,-0.715,10763.888888888889
-0.02,-0.695,10766.666666666666
-0.055,-0.675,10769.444444444445
-0.03,-0.62,10772.222222222223
0.045,-0.59,10775.0
0.18,-0.555,10777.777777777777
0.29,-0.535,10780.555555555555
0.42,-0.525,10783.333333333334
0.53,-0.51,10786.111111111111
0.655,-0.47,10788.888888888889
0.735,-0.445,10791.666666666666
0.775,-0.415,10794.444444444445
0.7,-0.385,10797.222222222223
0.585,-0.355,10800.0
0.46,-0.295,10802.777777777777
0.365,-0.23,10805.555555555555
0.285,-0.165,10808.333333333334
0.21,-0.105,10811.111111111111
0.09,-0.065,10813.888888888889
-0.05,-0.01,10816.666666666666
-0.18,0.035,10819.444444444445
-0.31,0.13,10822.222222222223
-0.395,0.195,10825.0
-0.455,0.25,10827.777777777777
-0.49,0.26,10830.555555555555
-0.535,0.27,10833.333333333334
-0.515,0.285,10836.111111111111
-0.5,0.3,10838.888888888889
-0.435,0.33,10841.666666666666
-0.395,0.34,10844.444444444445
-0.355,0.34,10847.222222222223
-0.35,0.34,10850.0
-0.345,0.36,10852.777777777777
-0.31,0.375,10855.555555555555
-0.305,0.385,10858.333333333334
-0.3,0.4,10861.111111111111
-0.305,0.395,10863.888888888889
-0.315,0.375,10866.666666666666
-0.31,0.36,10869.444444444445
-0.305,0.375,10872.222222222223
-0.3,0.395,10875.0
-0.27,0.405,10877.777777777777
-0.265,0.39,10880.555555555555
-0.29,0.39,10883.333333333334
-0.305,0.39,10886.111111111111
-0.295,0.41,10888.888888888889
-0.275,0.41,10891.666666666666
-0.255,0.42,10894.444444444445
-0.265,0.425,10897.222222222223
-0.27,0.4,10900.0
-0.295,0.415,10902.777777777777
-0.29,0.43,10905.555555555555
-0.29,0.435,10908.333333333334
-0.275,0.445,10911.111111111111
-0.28,0.445,10913.888888888889
-0.305,0.425,10916.666666666666
-0.295,0.435,10919.444444444445
-0.29,0.445,10922.222222222223
-0.27,0.46,10925.0
-0.24,0.47,10927.777777777777
-0.23,0.455,10930.555555555555
-0.23,0.455,10933.333333333334
-0.255,0.465,10936.111111111111
-0.24,0.465,10938.888888888889
-0.23,0.485,10941.666666666666
-0.2,0.485,10944.444444444445
-0.195,0.495,10947.222222222223
-0.21,0.49,10950.0
-0.225,0.485,10952.777777777777
-0.22,0.5,10955.555555555555
-0.2,0.515,10958.333333333334
-0.165,0.525,10961.111111111111
-0.16,0.52,10963.888888888889
-0.175,0.505,10966.666666666666
-0.175,0.505,10969.444444444445
-0.16,0.525,10972.222222222223
-0.14,0.54,10975.0
-0.12,0.545,10977.777777777777
-0.125,0.535,10980.555555555555
-0.13,0.525,10983.333333333334
-0.14,0.515,10986.111111111111
-0.135,0.525,10988.888888888889
-0.11,0.53,10991.666666666666
-0.075,0.53,10994.444444444445
-0.07,0.52,10997.222222222223
-0.065,0.505,11000.0
-0.07,0.495,11002.777777777777
-0.055,0.495,11005.555555555555
-0.035,0.51,11008.333333333334
-0.015,0.48,11011.111111111111
-0.005,0.465,11013.888888888889
-0.005,0.435,11016.666666666666
-0.005,0.41,11019.444444444445
0.015,0.405,11022.222222222223
0.03,0.4,11025.0
0.065,0.36,11027.777777777777
0.075,0.335,11030.555555555555
0.07,0.295,11033.333333333334
0.055,0.275,11036.111111111111
0.085,0.265,11038.888888888889
0.11,0.275,11041.666666666666
0.135,0.255,11044.444444444445
0.13,0.245,11047.222222222223
0.145,0.22,11050.0
0.13,0.215,11052.777777777777
0.135,0.225,11055.555555555555
0.165,0.23,11058.333333333334
0.155,0.225,11061.111111111111
0.125,0.2,11063.888888888889
0.095,0.2,11066.666666666666
0.065,0.2,11069.444444444445
0.02,0.21,11072.222222222223
0.02,0.215,11075.0
0.0,0.215,11077.777777777777
-0.01,0.2,11080.555555555555
-0.04,0.175,11083.333333333334
-0.08,0.185,11086.111111111111
-0.085,0.19,11088.888888888889
-0.09,0.205,11091.666666666666
-0.09,0.2,11094.444444444445
-0.1,0.175,11097.222222222223
-0.125,0.165,11100.0
-0.16,0.175,11102.777777777777
-0.165,0.18,11105.555555555555
-0.17,0.19,11108.333333333334
-0.16,0.195,11111.111111111111
-0.165,0.19,11113.888888888889
-0.19,0.16,11116.666666666666
-0.22,0.17,11119.444444444445
-0.21,0.195,11122.222222222223
-0.205,0.2,11125.0
-0.185,0.2,11127.777777777777
-0.2,0.185,11130.555555555555
-0.21,0.17,11133.333333333334
-0.225,0.19,11136.111111111111
-0.205,0.18,11138.888888888889
-0.2,0.19,11141.666666666666
-0.2,0.2,11144.444444444445
-0.21,0.19,11147.222222222223
-0.21,0.175,11150.0
-0.22,0.185,11152.777777777777
-0.215,0.195,11155.555555555555
-0.21,0.205,11158.333333333334
-0.19,0.21,11161.111111111111
-0.205,0.19,11163.888888888889
-0.225,0.18,11166.666666666666
-0.24,0.185,11169.444444444445
-0.23,0.195,11172.222222222223
-0.21,0.205,11175.0
-0.185,0.21,11177.777777777777
-0.2,0.21,11180.555555555555
-0.2,0.195,11183.333333333334
-0.2,0.19,11186.111111111111
-0.205,0.2,11188.888888888889
-0.195,0.215,11191.666666666666
-0.2,0.215,11194.444444444445
-0.205,0.205,11197.222222222223
-0.235,0.195,11200.0
-0.24,0.2,11202.777777777777
-0.23,0.2,11205.555555555555
-0.205,0.215,11208.333333333334
-0.19,0.215,11211.111111111111
-0.195,0.195,11213.888888888889
-0.21,0.195,11216.666666666666
-0.22,0.195,11219.444444444445
-0.215,0.21,11222.222222222223
-0.215,0.22,11225.0
-0.21,0.225,11227.777777777777
-0.22,0.215,11230.555555555555
-0.24,0.195,11233.333333333334
-0.235,0.205,11236.111111111111
-0.23,0.2,11238.888888888889
-0.225,0.22,11241.666666666666
-0.21,0.22,11244.444444444445
-0.225,0.205,11247.222222222223
-0.22,0.195,11250.0
-0.24,0.19,11252.777777777777
-0.245,0.2,11255.555555555555
-0.235,0.2,11258.333333333334
-0.225,0.195,11261.111111111111
-0.23,0.185,11263.888888888889
-0.235,0.19,11266.666666666666
-0.25,0.175,11269.444444444445
-0.235,0.195,11272.222222222223
-0.23,0.2,11275.0
-0.215,0.195,11277.777777777777
-0.215,0.185,11280.555555555555
-0.245,0.165,11283.333333333334
-0.255,0.18,11286.111111111111
-0.255,0.185,11288.888888888889
-0.245,0.19,11291.666666666666
-0.23,0.195,11294.444444444445
-0.215,0.18,11297.222222222223
-0.255,0.17,11300.0
-0.26,0.175,11302.777777777777
-0.245,0.17,11305.555555555555
-0.255,0.185,11308.333333333334
-0.235,0.175,11311.111111111111
-0.235,0.175,11313.888888888889
-0.235,0.155,11316.666666666666
-0.255,0.16,11319.444444444445
-0.26,0.17,11322.222222222223
-0.265,0.175,11325.0
-0.25,0.175,11327.777777777777
-0.25,0.17,11330.555555555555
-0.27,0.165,11333.333333333334
-0.275,0.17,11336.111111111111
-0.255,0.175,11338.888888888889
-0.265,0.2,11341.666666666666
-0.235,0.19,11344.444444444445
-0.225,0.195,11347.222222222223
-0.235,0.185,11350.0
-0.25,0.195,11352.777777777777
-0.255,0.205,11355.555555555555
-0.23,0.225,11358.333333333334
-0.2,0.22,11361.111111111111
-0.205,0.205,11363.888888888889
-0.215,0.19,11366.666666666666
-0.225,0.2,11369.444444444445
-0.22,0.2,11372.222222222223
-0.215,0.22,11375.0
-0.19,0.235,11377.777777777777
-0.185,0.205,11380.555555555555
-0.195,0.185,11383.333333333334
-0.195,0.17,11386.111111111111
-0.195,0.17,11388.888888888889
-0.17,0.175,11391.666666666666
-0.14,0.175,11394.444444444445
-0.155,0.16,11397.222222222223
-0.15,0.13,11400.0
-0.175,0.125,11402.777777777777
-0.165,0.135,11405.555555555555
-0.155,0.14,11408.333333333334
-0.145,0.12,11411.111111111111
-0.16,0.115,11413.888888888889
-0.19,0.095,11416.666666666666
-0.205,0.095,11419.444444444445
-0.215,0.11,11422.222222222223
-0.2,0.115,11425.0
-0.185,0.11,11427.777777777777
-0.195,0.11,11430.555555555555
-0.21,0.095,11433.333333333334
-0.225,0.08,11436.111111111111
-0.22,0.1,11438.888888888889
-0.215,0.105,11441.666666666666
-0.215,0.11,11444.444444444445
-0.23,0.095,11447.222222222223
-0.255,0.085,11450.0
-0.265,0.095,11452.777777777777
-0.27,0.115,11455.555555555555
-0.265,0.13,11458.333333333334
-0.235,0.14,11461.111111111111
-0.24,0.14,11463.888888888889
-0.26,0.13,11466.666666666666
-0.28,0.125,11469.444444444445
-0.305,0.14,11472.222222222223
-0.285,0.155,11475.0
-0.27,0.15,11477.777777777777
-0.27,0.145,11480.555555555555
-0.275,0.135,11483.333333333334
-0.29,0.135,11486.111111111111
-0.285,0.155,11488.888888888889
-0.285,0.165,11491.666666666666
-0.275,0.16,11494.444444444445
-0.285,0.16,11497.222222222223
