MLII,V1,time_ms
-0.75,-0.62,0.0
-0.75,-0.62,2.7777777777777777
-0.75,-0.62,5.555555555555555
-0.75,-0.62,8.333333333333334
-0.75,-0.62,11.11111111111111
-0.75,-0.62,13.88888888888889
-0.75,-0.62,16.666666666666668
-0.76,-0.62,19.444444444444443
-0.77,-0.63,22.22222222222222
-0.775,-0.615,25.0
-0.775,-0.62,27.77777777777778
-0.785,-0.605,30.555555555555557
-0.78,-0.595,33.333333333333336
-0.76,-0.595,36.111111111111114
-0.77,-0.59,38.888888888888886
-0.77,-0.585,41.666666666666664
-0.77,-0.595,44.44444444444444
-0.78,-0.615,47.22222222222222
-0.78,-0.615,50.0
-0.79,-0.62,52.77777777777778
-0.79,-0.625,55.55555555555556
-0.8,-0.635,58.333333333333336
-0.795,-0.625,61.111111111111114
-0.795,-0.615,63.888888888888886
-0.785,-0.61,66.66666666666667
-0.785,-0.61,69.44444444444444
-0.765,-0.595,72.22222222222223
-0.78,-0.62,75.0
-0.795,-0.63,77.77777777777777
-0.79,-0.625,80.55555555555556
-0.8,-0.63,83.33333333333333
-0.82,-0.64,86.11111111111111
-0.81,-0.645,88.88888888888889
-0.815,-0.635,91.66666666666667
-0.805,-0.635,94.44444444444444
-0.795,-0.63,97.22222222222223
-0.8,-0.62,100.0
-0.79,-0.61,102.77777777777777
-0.785,-0.605,105.55555555555556
-0.775,-0.6,108.33333333333333
-0.77,-0.6,111.11111111111111
-0.795,-0.615,113.88888888888889
-0.805,-0.625,116.66666666666667
-0.79,-0.64,119.44444444444444
-0.8,-0.62,122.22222222222223
-0.795,-0.64,125.0
-0.785,-0.62,127.77777777777777
-0.795,-0.605,130.55555555555554
-0.78,-0.61,133.33333333333334
-0.755,-0.6,136.11111111111111
-0.75,-0.605,138.88888888888889
-0.745,-0.61,141.66666666666666
-0.74,-0.62,144.44444444444446
-0.73,-0.62,147.22222222222223
-0.715,-0.635,150.0
-0.71,-0.625,152.77777777777777
-0.71,-0.62,155.55555555555554
-0.72,-0.615,158.33333333333334
-0.715,-0.625,161.11111111111111
-0.72,-0.61,163.88888888888889
-0.69,-0.615,166.66666666666666
-0.685,-0.6,169.44444444444446
-0.68,-0.605,172.22222222222223
-0.675,-0.61,175.0
-0.68,-0.625,177.77777777777777
-0.66,-0.625,180.55555555555554
-0.67,-0.635,183.33333333333334
-0.67,-0.635,186.11111111111111
-0.675,-0.655,188.88888888888889
-0.69,-0.645,191.66666666666666
-0.71,-0.65,194.44444444444446
-0.71,-0.635,197.22222222222223
-0.72,-0.625,200.0
-0.74,-0.64,202.77777777777777
-0.735,-0.625,205.55555555555554
-0.75,-0.635,208.33333333333334
-0.75,-0.645,211.11111111111111
-0.745,-0.67,213.88888888888889
-0.75,-0.675,216.66666666666666
-0.76,-0.67,219.44444444444446
-0.78,-0.68,222.22222222222223
-0.8,-0.685,225.0
-0.82,-0.67,227.77777777777777
-0.83,-0.65,230.55555555555554
-0.825,-0.625,233.33333333333334
-0.83,-0.605,236.11111111111111
-0.83,-0.6,238.88888888888889
-0.84,-0.59,241.66666666666666
-0.845,-0.59,244.44444444444446
-0.845,-0.605,247.22222222222223
-0.865,-0.615,250.0
-0.865,-0.63,252.77777777777777
-0.86,-0.65,255.55555555555554
-0.87,-0.635,258.3333333333333
-0.865,-0.635,261.1111111111111
-0.87,-0.62,263.8888888888889
-0.85,-0.62,266.6666666666667
-0.86,-0.61,269.44444444444446
-0.855,-0.6,272.22222222222223
-0.845,-0.615,275.0
-0.845,-0.61,277.77777777777777
-0.845,-0.61,280.55555555555554
-0.86,-0.625,283.3333333333333
-0.855,-0.64,286.1111111111111
-0.865,-0.635,288.8888888888889
-0.865,-0.635,291.6666666666667
-0.86,-0.63,294.44444444444446
-0.86,-0.625,297.22222222222223
-0.86,-0.61,300.0
-0.855,-0.59,302.77777777777777
-0.845,-0.595,305.55555555555554
-0.845,-0.59,308.3333333333333
-0.83,-0.59,311.1111111111111
-0.835,-0.6,313.8888888888889
-0.835,-0.605,316.6666666666667
-0.83,-0.61,319.44444444444446
-0.8,-0.61,322.22222222222223
-0.76,-0.62,325.0
-0.69,-0.61,327.77777777777777
-0.6,-0.605,330.55555555555554
-0.475,-0.625,333.3333333333333
-0.345,-0.645,336.1111111111111
-0.22,-0.665,338.8888888888889
-0.125,-0.69,341.6666666666667
-0.045,-0.72,344.44444444444446
-0.045,-0.74,347.22222222222223
-0.145,-0.77,350.0
-0.29,-0.79,352.77777777777777
-0.445,-0.81,355.55555555555554
-0.64,-0.815,358.3333333333333
-0.845,-0.8,361.1111111111111
-1.03,-0.735,363.8888888888889
-1.15,-0.65,366.6666666666667
-1.19,-0.545,369.44444444444446
-1.175,-0.425,372.22222222222223
-1.155,-0.345,375.0
-1.11,-0.315,377.77777777777777
-1.085,-0.35,380.55555555555554
-1.06,-0.42,383.3333333333333
-1.04,-0.505,386.1111111111111
-1.025,-0.585,388.8888888888889
-1.025,-0.605,391.6666666666667
-1.0,-0.62,394.44444444444446
-0.975,-0.615,397.22222222222223
-0.96,-0.62,400.0
-0.955,-0.615,402.77777777777777
-0.945,-0.6,405.55555555555554
-0.94,-0.615,408.3333333333333
-0.945,-0.615,411.1111111111111
-0.96,-0.62,413.8888888888889
-0.96,-0.63,416.6666666666667
-0.965,-0.635,419.44444444444446
-0.98,-0.64,422.22222222222223
-0.98,-0.64,425.0
-0.97,-0.625,427.77777777777777
-0.97,-0.62,430.55555555555554
-0.97,-0.62,433.3333333333333
-0.955,-0.625,436.1111111111111
-0.95,-0.615,438.8888888888889
-0.955,-0.615,441.6666666666667
-0.945,-0.62,444.44444444444446
-0.955,-0.635,447.22222222222223
-0.965,-0.645,450.0
-0.965,-0.655,452.77777777777777
-0.97,-0.655,455.55555555555554
-0.975,-0.655,458.3333333333333
-0.975,-0.635,461.1111111111111
-0.98,-0.64,463.8888888888889
-0.965,-0.63,466.6666666666667
-0.965,-0.62,469.44444444444446
-0.975,-0.625,472.22222222222223
-0.98,-0.625,475.0
-0.975,-0.635,477.77777777777777
-0.975,-0.64,480.55555555555554
-0.98,-0.65,483.3333333333333
-0.99,-0.655,486.1111111111111
-0.995,-0.65,488.8888888888889
-1.0,-0.66,491.6666666666667
-1.015,-0.66,494.44444444444446
-1.01,-0.64,497.22222222222223
-1.01,-0.645,500.0
-1.01,-0.64,502.77777777777777
-0.99,-0.63,505.55555555555554
-0.99,-0.64,508.3333333333333
-0.99,-0.64,511.1111111111111
-1.01,-0.655,513.8888888888889
-1.02,-0.665,516.6666666666666
-1.03,-0.665,519.4444444444445
-1.035,-0.67,522.2222222222222
-1.045,-0.67,525.0
-1.04,-0.67,527.7777777777778
-1.04,-0.66,530.5555555555555
-1.04,-0.665,533.3333333333334
-1.035,-0.66,536.1111111111111
-1.03,-0.655,538.8888888888889
-1.025,-0.655,541.6666666666666
-1.04,-0.66,544.4444444444445
-1.04,-0.675,547.2222222222222
-1.05,-0.685,550.0
-1.06,-0.68,552.7777777777778
-1.065,-0.685,555.5555555555555
-1.08,-0.685,558.3333333333334
-1.07,-0.685,561.1111111111111
-1.07,-0.675,563.8888888888889
-1.07,-0.665,566.6666666666666
-1.055,-0.655,569.4444444444445
-1.06,-0.655,572.2222222222222
-1.06,-0.65,575.0
-1.06,-0.65,577.7777777777778
-1.06,-0.655,580.5555555555555
-1.07,-0.67,583.3333333333334
-1.07,-0.685,586.1111111111111
-1.075,-0.685,588.8888888888889
-1.065,-0.68,591.6666666666666
-1.065,-0.68,594.4444444444445
-1.065,-0.675,597.2222222222222
-1.055,-0.675,600.0
-1.055,-0.66,602.7777777777778
-1.045,-0.665,605.5555555555555
-1.04,-0.68,608.3333333333334
-1.03,-0.68,611.1111111111111
-1.015,-0.68,613.8888888888889
-1.025,-0.68,616.6666666666666
-1.01,-0.685,619.4444444444445
-1.02,-0.705,622.2222222222222
-1.005,-0.705,625.0
-1.0,-0.705,627.7777777777778
-0.965,-0.68,630.5555555555555
-0.945,-0.685,633.3333333333334
-0.915,-0.675,636.1111111111111
-0.895,-0.685,638.8888888888889
-0.875,-0.685,641.6666666666666
-0.855,-0.69,644.4444444444445
-0.84,-0.7,647.2222222222222
-0.825,-0.705,650.0
-0.805,-0.705,652.7777777777778
-0.8,-0.715,655.5555555555555
-0.785,-0.71,658.3333333333334
-0.775,-0.7,661.1111111111111
-0.755,-0.69,663.8888888888889
-0.74,-0.675,666.6666666666666
-0.72,-0.675,669.4444444444445
-0.71,-0.675,672.2222222222222
-0.7,-0.655,675.0
-0.69,-0.665,677.7777777777778
-0.695,-0.67,680.5555555555555
-0.705,-0.685,683.3333333333334
-0.71,-0.685,686.1111111111111
-0.72,-0.685,688.8888888888889
-0.705,-0.67,691.6666666666666
-0.715,-0.66,694.4444444444445
-0.71,-0.655,697.2222222222222
-0.71,-0.63,700.0
-0.715,-0.625,702.7777777777778
-0.715,-0.625,705.5555555555555
-0.71,-0.63,708.3333333333334
-0.72,-0.625,711.1111111111111
-0.715,-0.63,713.8888888888889
-0.73,-0.635,716.6666666666666
-0.74,-0.65,719.4444444444445
-0.76,-0.665,722.2222222222222
-0.745,-0.66,725.0
-0.75,-0.66,727.7777777777778
-0.765,-0.645,730.5555555555555
-0.75,-0.635,733.3333333333334
-0.745,-0.635,736.1111111111111
-0.745,-0.63,738.8888888888889
-0.745,-0.63,741.6666666666666
-0.755,-0.64,744.4444444444445
-0.765,-0.65,747.2222222222222
-0.775,-0.64,750.0
-0.77,-0.65,752.7777777777778
-0.79,-0.655,755.5555555555555
-0.79,-0.66,758.3333333333334
-0.795,-0.635,761.1111111111111
-0.785,-0.645,763.8888888888889
-0.785,-0.63,766.6666666666666
-0.79,-0.635,769.4444444444445
-0.79,-0.62,772.2222222222222
-0.79,-0.625,775.0
-0.77,-0.635,777.7777777777778
-0.79,-0.64,780.5555555555555
-0.795,-0.645,783.3333333333334
-0.8,-0.655,786.1111111111111
-0.795,-0.66,788.8888888888889
-0.8,-0.665,791.6666666666666
-0.805,-0.665,794.4444444444445
-0.795,-0.66,797.2222222222222
-0.795,-0.65,800.0
-0.79,-0.645,802.7777777777778
-0.78,-0.645,805.5555555555555
-0.79,-0.65,808.3333333333334
-0.785,-0.655,811.1111111111111
-0.795,-0.66,813.8888888888889
-0.79,-0.675,816.6666666666666
-0.805,-0.68,819.4444444444445
-0.825,-0.685,822.2222222222222
-0.82,-0.675,825.0
-0.81,-0.67,827.7777777777778
-0.805,-0.665,830.5555555555555
-0.795,-0.66,833.3333333333334
-0.785,-0.655,836.1111111111111
-0.78,-0.635,838.8888888888889
-0.78,-0.645,841.6666666666666
-0.785,-0.645,844.4444444444445
-0.79,-0.64,847.2222222222222
-0.79,-0.66,850.0
-0.805,-0.665,852.7777777777778
-0.815,-0.675,855.5555555555555
-0.81,-0.665,858.3333333333334
-0.8,-0.655,861.1111111111111
-0.79,-0.645,863.8888888888889
-0.78,-0.645,866.6666666666666
-0.76,-0.64,869.4444444444445
-0.75,-0.63,872.2222222222222
-0.745,-0.635,875.0
-0.735,-0.625,877.7777777777778
-0.72,-0.63,880.5555555555555
-0.71,-0.635,883.3333333333334
-0.71,-0.66,886.1111111111111
-0.715,-0.65,888.8888888888889
-0.705,-0.645,891.6666666666666
-0.71,-0.645,894.4444444444445
-0.71,-0.645,897.2222222222222
-0.705,-0.635,900.0
-0.695,-0.63,902.7777777777778
-0.675,-0.625,905.5555555555555
-0.67,-0.645,908.3333333333334
-0.66,-0.635,911.1111111111111
-0.655,-0.655,913.8888888888889
-0.655,-0.655,916.6666666666666
-0.67,-0.665,919.4444444444445
-0.685,-0.68,922.2222222222222
-0.71,-0.685,925.0
-0.72,-0.68,927.7777777777778
-0.75,-0.68,930.5555555555555
-0.745,-0.67,933.3333333333334
-0.745,-0.66,936.1111111111111
-0.74,-0.67,938.8888888888889
-0.745,-0.67,941.6666666666666
-0.745,-0.68,944.4444444444445
-0.755,-0.675,947.2222222222222
-0.78,-0.7,950.0
-0.8,-0.7,952.7777777777778
-0.83,-0.705,955.5555555555555
-0.845,-0.69,958.3333333333334
-0.84,-0.67,961.1111111111111
-0.85,-0.655,963.8888888888889
-0.85,-0.625,966.6666666666666
-0.85,-0.62,969.4444444444445
-0.84,-0.615,972.2222222222222
-0.84,-0.62,975.0
-0.855,-0.635,977.7777777777778
-0.85,-0.63,980.5555555555555
-0.87,-0.645,983.3333333333334
-0.865,-0.66,986.1111111111111
-0.875,-0.67,988.8888888888889
-0.875,-0.65,991.6666666666666
-0.865,-0.65,994.4444444444445
-0.875,-0.645,997.2222222222222
-0.86,-0.645,1000.0
-0.86,-0.635,1002.7777777777778
-0.855,-0.64,1005.5555555555555
-0.855,-0.635,1008.3333333333334
-0.86,-0.625,1011.1111111111111
-0.855,-0.64,1013.8888888888889
-0.86,-0.65,1016.6666666666666
-0.86,-0.645,1019.4444444444445
-0.87,-0.655,1022.2222222222222
-0.865,-0.65,1025.0
-0.845,-0.645,1027.7777777777778
-0.855,-0.63,1030.5555555555557
-0.835,-0.62,1033.3333333333333
-0.8,-0.605,1036.111111111111
-0.76,-0.6,1038.888888888889
-0.705,-0.615,1041.6666666666667
-0.625,-0.62,1044.4444444444443
-0.53,-0.645,1047.2222222222222
-0.415,-0.66,1050.0
-0.295,-0.705,1052.7777777777778
-0.19,-0.73,1055.5555555555557
-0.105,-0.755,1058.3333333333333
-0.055,-0.76,1061.111111111111
-0.095,-0.765,1063.888888888889
-0.185,-0.775,1066.6666666666667
-0.31,-0.795,1069.4444444444443
-0.43,-0.8,1072.2222222222222
-0.575,-0.805,1075.0
-0.725,-0.8,1077.7777777777778
-0.89,-0.79,1080.5555555555557
-1.05,-0.755,1083.3333333333333
-1.16,-0.685,1086.111111111111
-1.21,-0.6,1088.888888888889
-1.195,-0.495,1091.6666666666667
-1.16,-0.405,1094.4444444444443
-1.125,-0.345,1097.2222222222222
-1.095,-0.335,1100.0
-1.085,-0.395,1102.7777777777778
-1.055,-0.455,1105.5555555555557
-1.035,-0.525,1108.3333333333333
-1.02,-0.59,1111.111111111111
-1.005,-0.615,1113.888888888889
-0.99,-0.625,1116.6666666666667
-0.98,-0.64,1119.4444444444443
-0.975,-0.645,1122.2222222222222
-0.975,-0.65,1125.0
-0.965,-0.65,1127.7777777777778
-0.975,-0.65,1130.5555555555557
-0.965,-0.64,1133.3333333333333
-0.955,-0.63,1136.111111111111
-0.96,-0.62,1138.888888888889
-0.955,-0.63,1141.6666666666667
-0.955,-0.635,1144.4444444444443
-0.965,-0.645,1147.2222222222222
-0.98,-0.645,1150.0
-0.98,-0.665,1152.7777777777778
-0.985,-0.665,1155.5555555555557
-0.985,-0.66,1158.3333333333333
-0.99,-0.66,1161.111111111111
-0.98,-0.645,1163.888888888889
-0.985,-0.65,1166.6666666666667
-0.985,-0.66,1169.4444444444443
-0.98,-0.64,1172.2222222222222
-0.96,-0.65,1175.0
-0.975,-0.65,1177.7777777777778
-0.98,-0.655,1180.5555555555557
-0.985,-0.655,1183.3333333333333
-0.995,-0.665,1186.111111111111
-1.0,-0.66,1188.888888888889
-1.01,-0.66,1191.6666666666667
-1.005,-0.655,1194.4444444444443
-1.01,-0.645,1197.2222222222222
-1.0,-0.65,1200.0
-1.005,-0.63,1202.7777777777778
-1.005,-0.64,1205.5555555555557
-1.0,-0.645,1208.3333333333333
-1.005,-0.64,1211.111111111111
-1.01,-0.64,1213.888888888889
-1.025,-0.665,1216.6666666666667
-1.03,-0.675,1219.4444444444443
-1.035,-0.675,1222.2222222222222
-1.04,-0.675,1225.0
-1.045,-0.67,1227.7777777777778
-1.055,-0.65,1230.5555555555557
-1.045,-0.655,1233.3333333333333
-1.03,-0.64,1236.111111111111
-1.03,-0.645,1238.888888888889
-1.03,-0.655,1241.6666666666667
-1.04,-0.665,1244.4444444444443
-1.045,-0.665,1247.2222222222222
-1.055,-0.68,1250.0
-1.07,-0.69,1252.7777777777778
-1.09,-0.695,1255.5555555555557
-1.085,-0.695,1258.3333333333333
-1.095,-0.7,1261.111111111111
-1.095,-0.685,1263.888888888889
-1.085,-0.695,1266.6666666666667
-1.085,-0.67,1269.4444444444443
-1.075,-0.66,1272.2222222222222
-1.075,-0.67,1275.0
-1.075,-0.67,1277.7777777777778
-1.08,-0.685,1280.5555555555557
-1.1,-0.7,1283.3333333333333
-1.1,-0.69,1286.111111111111
-1.095,-0.695,1288.888888888889
-1.105,-0.69,1291.6666666666667
-1.105,-0.685,1294.4444444444443
-1.115,-0.69,1297.2222222222222
-1.1,-0.675,1300.0
-1.1,-0.67,1302.7777777777778
-1.09,-0.665,1305.5555555555557
-1.09,-0.67,1308.3333333333333
-1.075,-0.68,1311.111111111111
-1.075,-0.685,1313.888888888889
-1.08,-0.705,1316.6666666666667
-1.085,-0.7,1319.4444444444443
-1.08,-0.71,1322.2222222222222
-1.08,-0.7,1325.0
-1.08,-0.705,1327.7777777777778
-1.065,-0.7,1330.5555555555557
-1.06,-0.695,1333.3333333333333
-1.04,-0.685,1336.111111111111
-1.045,-0.68,1338.888888888889
-1.02,-0.68,1341.6666666666667
-1.01,-0.675,1344.4444444444443
-0.985,-0.695,1347.2222222222222
-0.985,-0.71,1350.0
-0.975,-0.735,1352.7777777777778
-0.965,-0.725,1355.5555555555557
-0.95,-0.73,1358.3333333333333
-0.925,-0.72,1361.111111111111
-0.915,-0.705,1363.888888888889
-0.875,-0.71,1366.6666666666667
-0.86,-0.705,1369.4444444444443
-0.83,-0.695,1372.2222222222222
-0.805,-0.695,1375.0
-0.785,-0.705,1377.7777777777778
-0.78,-0.71,1380.5555555555557
-0.765,-0.71,1383.3333333333333
-0.765,-0.71,1386.111111111111
-0.77,-0.71,1388.888888888889
-0.765,-0.71,1391.6666666666667
-0.75,-0.705,1394.4444444444443
-0.745,-0.695,1397.2222222222222
-0.735,-0.67,1400.0
-0.735,-0.665,1402.7777777777778
-0.73,-0.65,1405.5555555555557
-0.73,-0.655,1408.3333333333333
-0.73,-0.665,1411.111111111111
-0.74,-0.66,1413.888888888889
-0.755,-0.67,1416.6666666666667
-0.765,-0.685,1419.4444444444443
-0.775,-0.67,1422.2222222222222
-0.78,-0.685,1425.0
-0.77,-0.675,1427.7777777777778
-0.775,-0.67,1430.5555555555557
-0.775,-0.66,1433.3333333333333
-0.77,-0.66,1436.111111111111
-0.77,-0.645,1438.888888888889
-0.775,-0.66,1441.6666666666667
-0.79,-0.66,1444.4444444444443
-0.79,-0.655,1447.2222222222222
-0.805,-0.67,1450.0
-0.805,-0.665,1452.7777777777778
-0.81,-0.685,1455.5555555555557
-0.815,-0.675,1458.3333333333333
-0.815,-0.665,1461.111111111111
-0.815,-0.66,1463.888888888889
-0.81,-0.65,1466.6666666666667
-0.8,-0.655,1469.4444444444443
-0.795,-0.635,1472.2222222222222
-0.805,-0.645,1475.0
-0.8,-0.65,1477.7777777777778
-0.815,-0.665,1480.5555555555557
-0.825,-0.66,1483.3333333333333
-0.835,-0.66,1486.111111111111
-0.83,-0.665,1488.888888888889
-0.845,-0.68,1491.6666666666667
-0.845,-0.675,1494.4444444444443
-0.835,-0.665,1497.2222222222222
-0.835,-0.655,1500.0
-0.835,-0.64,1502.7777777777778
-0.83,-0.65,1505.5555555555557
-0.84,-0.645,1508.3333333333333
-0.825,-0.65,1511.111111111111
-0.82,-0.66,1513.888888888889
-0.825,-0.675,1516.6666666666667
-0.825,-0.675,1519.4444444444443
-0.84,-0.68,1522.2222222222222
-0.845,-0.685,1525.0
-0.855,-0.69,1527.7777777777778
-0.855,-0.68,1530.5555555555557
-0.835,-0.68,1533.3333333333333
-0.83,-0.665,1536.111111111111
-0.84,-0.675,1538.888888888889
-0.825,-0.675,1541.6666666666667
-0.83,-0.665,1544.4444444444443
-0.83,-0.67,1547.2222222222222
-0.835,-0.68,1550.0
-0.84,-0.675,1552.7777777777778
-0.84,-0.68,1555.5555555555557
-0.84,-0.685,1558.3333333333333
-0.845,-0.685,1561.111111111111
-0.855,-0.67,1563.888888888889
-0.84,-0.675,1566.6666666666667
-0.835,-0.67,1569.4444444444443
-0.825,-0.66,1572.2222222222222
-0.82,-0.66,1575.0
-0.82,-0.67,1577.7777777777778
-0.83,-0.665,1580.5555555555557
-0.815,-0.67,1583.3333333333333
-0.82,-0.69,1586.111111111111
-0.825,-0.69,1588.888888888889
-0.815,-0.685,1591.6666666666667
-0.81,-0.675,1594.4444444444443
-0.79,-0.675,1597.2222222222222
-0.785,-0.66,1600.0
-0.76,-0.64,1602.7777777777778
-0.745,-0.635,1605.5555555555557
-0.735,-0.63,1608.3333333333333
-0.73,-0.65,1611.111111111111
-0.73,-0.65,1613.888888888889
-0.75,-0.66,1616.6666666666667
-0.745,-0.675,1619.4444444444443
-0.75,-0.68,1622.2222222222222
-0.755,-0.675,1625.0
-0.74,-0.685,1627.7777777777778
-0.735,-0.665,1630.5555555555557
-0.72,-0.665,1633.3333333333333
-0.72,-0.665,1636.111111111111
-0.7,-0.655,1638.888888888889
-0.7,-0.66,1641.6666666666667
-0.72,-0.675,1644.4444444444443
-0.755,-0.69,1647.2222222222222
-0.77,-0.685,1650.0
-0.79,-0.695,1652.7777777777778
-0.81,-0.71,1655.5555555555557
-0.825,-0.71,1658.3333333333333
-0.825,-0.705,1661.111111111111
-0.815,-0.695,1663.888888888889
-0.8,-0.705,1666.6666666666667
-0.81,-0.695,1669.4444444444443
-0.815,-0.695,1672.2222222222222
-0.835,-0.705,1675.0
-0.845,-0.7,1677.7777777777778
-0.865,-0.685,1680.5555555555557
-0.87,-0.675,1683.3333333333333
-0.89,-0.665,1686.111111111111
-0.895,-0.67,1688.888888888889
-0.905,-0.65,1691.6666666666667
-0.905,-0.645,1694.4444444444443
-0.9,-0.65,1697.2222222222222
-0.905,-0.645,1700.0
-0.9,-0.645,1702.7777777777778
-0.905,-0.635,1705.5555555555557
-0.895,-0.645,1708.3333333333333
-0.895,-0.65,1711.111111111111
-0.905,-0.66,1713.888888888889
-0.92,-0.665,1716.6666666666667
-0.915,-0.67,1719.4444444444443
-0.915,-0.68,1722.2222222222222
-0.93,-0.68,1725.0
-0.93,-0.685,1727.7777777777778
-0.91,-0.66,1730.5555555555557
-0.93,-0.645,1733.3333333333333
-0.895,-0.65,1736.111111111111
-0.91,-0.64,1738.888888888889
-0.89,-0.635,1741.6666666666667
-0.88,-0.63,1744.4444444444443
-0.9,-0.64,1747.2222222222222
-0.905,-0.655,1750.0
-0.895,-0.65,1752.7777777777778
-0.895,-0.65,1755.5555555555557
-0.895,-0.64,1758.3333333333333
-0.895,-0.63,1761.111111111111
-0.89,-0.625,1763.888888888889
-0.87,-0.62,1766.6666666666667
-0.83,-0.615,1769.4444444444443
-0.765,-0.605,1772.2222222222222
-0.695,-0.625,1775.0
-0.605,-0.63,1777.7777777777778
-0.49,-0.675,1780.5555555555557
-0.365,-0.705,1783.3333333333333
-0.24,-0.735,1786.111111111111
-0.145,-0.765,1788.888888888889
-0.105,-0.785,1791.6666666666667
-0.15,-0.8,1794.4444444444443
-0.265,-0.81,1797.2222222222222
-0.41,-0.825,1800.0
-0.565,-0.82,1802.7777777777778
-0.755,-0.815,1805.5555555555557
-0.945,-0.79,1808.3333333333333
-1.12,-0.745,1811.111111111111
-1.245,-0.665,1813.888888888889
-1.27,-0.575,1816.6666666666667
-1.255,-0.465,1819.4444444444443
-1.225,-0.39,1822.2222222222222
-1.195,-0.365,1825.0
-1.15,-0.39,1827.7777777777778
-1.135,-0.45,1830.5555555555557
-1.115,-0.51,1833.3333333333333
-1.09,-0.565,1836.111111111111
-1.06,-0.595,1838.888888888889
-1.045,-0.62,1841.6666666666667
-1.025,-0.63,1844.4444444444443
-1.02,-0.645,1847.2222222222222
-1.0,-0.655,1850.0
-1.005,-0.66,1852.7777777777778
-1.005,-0.655,1855.5555555555557
-1.01,-0.66,1858.3333333333333
-1.015,-0.66,1861.111111111111
-1.02,-0.655,1863.888888888889
-1.015,-0.655,1866.6666666666667
-1.015,-0.645,1869.4444444444443
-1.005,-0.64,1872.2222222222222
-0.995,-0.635,1875.0
-1.005,-0.65,1877.7777777777778
-1.005,-0.665,1880.5555555555557
-1.015,-0.675,1883.3333333333333
-1.025,-0.67,1886.111111111111
-1.04,-0.675,1888.888888888889
-1.04,-0.675,1891.6666666666667
-1.04,-0.68,1894.4444444444443
-1.04,-0.67,1897.2222222222222
-1.04,-0.655,1900.0
-1.035,-0.65,1902.7777777777778
-1.035,-0.635,1905.5555555555557
-1.015,-0.645,1908.3333333333333
-1.02,-0.66,1911.111111111111
-1.025,-0.65,1913.888888888889
-1.045,-0.665,1916.6666666666667
-1.055,-0.66,1919.4444444444443
-1.06,-0.675,1922.2222222222222
-1.07,-0.68,1925.0
-1.065,-0.67,1927.7777777777778
-1.055,-0.665,1930.5555555555557
-1.05,-0.665,1933.3333333333333
-1.04,-0.655,1936.111111111111
-1.04,-0.645,1938.888888888889
-1.045,-0.64,1941.6666666666667
-1.045,-0.655,1944.4444444444443
-1.05,-0.655,1947.2222222222222
-1.07,-0.66,1950.0
-1.075,-0.67,1952.7777777777778
-1.08,-0.685,1955.5555555555557
-1.09,-0.69,1958.3333333333333
-1.095,-0.68,1961.111111111111
-1.095,-0.67,1963.888888888889
-1.085,-0.655,1966.6666666666667
-1.08,-0.655,1969.4444444444443
-1.085,-0.645,1972.2222222222222
-1.065,-0.66,1975.0
-1.08,-0.68,1977.7777777777778
-1.085,-0.685,1980.5555555555557
-1.11,-0.68,1983.3333333333333
-1.11,-0.69,1986.111111111111
-1.125,-0.705,1988.888888888889
-1.135,-0.705,1991.6666666666667
-1.13,-0.705,1994.4444444444443
-1.14,-0.7,1997.2222222222222
-1.14,-0.685,2000.0
-1.13,-0.68,2002.7777777777778
-1.135,-0.67,2005.5555555555557
-1.12,-0.68,2008.3333333333333
-1.12,-0.685,2011.111111111111
-1.125,-0.695,2013.888888888889
-1.125,-0.705,2016.6666666666667
-1.135,-0.715,2019.4444444444443
-1.14,-0.725,2022.2222222222222
-1.14,-0.725,2025.0
-1.135,-0.71,2027.7777777777778
-1.13,-0.705,2030.5555555555557
-1.12,-0.695,2033.3333333333333
-1.115,-0.695,2036.111111111111
-1.11,-0.69,2038.888888888889
-1.09,-0.685,2041.6666666666667
-1.105,-0.685,2044.4444444444443
-1.095,-0.7,2047.2222222222222
-1.095,-0.72,2050.0
-1.08,-0.725,2052.777777777778
-1.065,-0.73,2055.5555555555557
-1.065,-0.73,2058.3333333333335
-1.035,-0.735,2061.1111111111113
-1.015,-0.735,2063.8888888888887
-0.985,-0.725,2066.6666666666665
-0.965,-0.715,2069.4444444444443
-0.94,-0.705,2072.222222222222
-0.92,-0.715,2075.0
-0.905,-0.725,2077.777777777778
-0.88,-0.73,2080.5555555555557
-0.875,-0.735,2083.3333333333335
-0.86,-0.74,2086.1111111111113
-0.85,-0.74,2088.8888888888887
-0.84,-0.74,2091.6666666666665
-0.825,-0.73,2094.4444444444443
-0.81,-0.725,2097.222222222222
-0.795,-0.705,2100.0
-0.785,-0.7,2102.777777777778
-0.765,-0.685,2105.5555555555557
-0.775,-0.69,2108.3333333333335
-0.77,-0.685,2111.1111111111113
-0.78,-0.69,2113.8888888888887
-0.765,-0.695,2116.6666666666665
-0.78,-0.695,2119.4444444444443
-0.78,-0.7,2122.222222222222
-0.79,-0.7,2125.0
-0.8,-0.685,2127.777777777778
-0.785,-0.69,2130.5555555555557
-0.785,-0.675,2133.3333333333335
-0.795,-0.67,2136.1111111111113
-0.79,-0.66,2138.8888888888887
-0.785,-0.665,2141.6666666666665
-0.795,-0.665,2144.4444444444443
-0.795,-0.675,2147.222222222222
-0.81,-0.68,2150.0
-0.815,-0.68,2152.777777777778
-0.84,-0.69,2155.5555555555557
-0.845,-0.675,2158.3333333333335
-0.84,-0.68,2161.1111111111113
-0.845,-0.665,2163.8888888888887
-0.845,-0.67,2166.6666666666665
-0.835,-0.66,2169.4444444444443
-0.84,-0.645,2172.222222222222
-0.83,-0.665,2175.0
-0.835,-0.66,2177.777777777778
-0.845,-0.67,2180.5555555555557
-0.85,-0.655,2183.3333333333335
-0.855,-0.67,2186.1111111111113
-0.875,-0.685,2188.8888888888887
-0.875,-0.69,2191.6666666666665
-0.875,-0.685,2194.4444444444443
-0.86,-0.68,2197.222222222222
-0.875,-0.67,2200.0
-0.85,-0.665,2202.777777777778
-0.86,-0.65,2205.5555555555557
-0.86,-0.655,2208.3333333333335
-0.87,-0.67,2211.1111111111113
-0.875,-0.685,2213.8888888888887
-0.885,-0.69,2216.6666666666665
-0.89,-0.69,2219.4444444444443
-0.895,-0.695,2222.222222222222
-0.905,-0.705,2225.0
-0.895,-0.695,2227.777777777778
-0.89,-0.695,2230.5555555555557
-0.88,-0.685,2233.3333333333335
-0.865,-0.68,2236.1111111111113
-0.87,-0.675,2238.8888888888887
-0.865,-0.665,2241.6666666666665
-0.865,-0.69,2244.4444444444443
-0.865,-0.7,2247.222222222222
-0.875,-0.71,2250.0
-0.88,-0.7,2252.777777777778
-0.895,-0.695,2255.5555555555557
-0.895,-0.71,2258.3333333333335
-0.885,-0.7,2261.1111111111113
-0.89,-0.69,2263.8888888888887
-0.88,-0.685,2266.6666666666665
-0.87,-0.68,2269.4444444444443
-0.875,-0.67,2272.222222222222
-0.87,-0.67,2275.0
-0.87,-0.665,2277.777777777778
-0.855,-0.69,2280.5555555555557
-0.855,-0.7,2283.3333333333335
-0.855,-0.68,2286.1111111111113
-0.86,-0.695,2288.8888888888887
-0.85,-0.71,2291.6666666666665
-0.845,-0.69,2294.4444444444443
-0.83,-0.68,2297.222222222222
-0.815,-0.665,2300.0
-0.8,-0.66,2302.777777777778
-0.78,-0.645,2305.5555555555557
-0.77,-0.64,2308.3333333333335
-0.775,-0.655,2311.1111111111113
-0.765,-0.655,2313.8888888888887
-0.77,-0.66,2316.6666666666665
-0.78,-0.675,2319.4444444444443
-0.79,-0.695,2322.222222222222
-0.79,-0.685,2325.0
-0.78,-0.695,2327.777777777778
-0.77,-0.68,2330.5555555555557
-0.755,-0.695,2333.3333333333335
-0.75,-0.68,2336.1111111111113
-0.745,-0.68,2338.8888888888887
-0.735,-0.68,2341.6666666666665
-0.765,-0.685,2344.4444444444443
-0.79,-0.705,2347.222222222222
-0.815,-0.705,2350.0
-0.83,-0.71,2352.777777777778
-0.84,-0.715,2355.5555555555557
-0.845,-0.73,2358.3333333333335
-0.83,-0.725,2361.1111111111113
-0.84,-0.72,2363.8888888888887
-0.84,-0.72,2366.6666666666665
-0.845,-0.7,2369.4444444444443
-0.87,-0.69,2372.222222222222
-0.885,-0.69,2375.0
-0.895,-0.68,2377.777777777778
-0.905,-0.665,2380.5555555555557
-0.92,-0.67,2383.3333333333335
-0.925,-0.66,2386.1111111111113
-0.95,-0.67,2388.8888888888887
-0.96,-0.68,2391.6666666666665
-0.945,-0.675,2394.4444444444443
-0.955,-0.68,2397.222222222222
-0.945,-0.68,2400.0
-0.935,-0.675,2402.777777777778
-0.915,-0.655,2405.5555555555557
-0.915,-0.65,2408.3333333333335
-0.92,-0.665,2411.1111111111113
-0.925,-0.67,2413.8888888888887
-0.93,-0.67,2416.6666666666665
-0.935,-0.68,2419.4444444444443
-0.955,-0.695,2422.222222222222
-0.95,-0.7,2425.0
-0.945,-0.685,2427.777777777778
-0.935,-0.675,2430.5555555555557
-0.935,-0.665,2433.3333333333335
-0.915,-0.66,2436.1111111111113
-0.905,-0.645,2438.8888888888887
-0.9,-0.635,2441.6666666666665
-0.9,-0.65,2444.4444444444443
-0.91,-0.64,2447.222222222222
-0.905,-0.65,2450.0
-0.9,-0.65,2452.777777777778
-0.875,-0.655,2455.5555555555557
-0.84,-0.665,2458.3333333333335
-0.76,-0.655,2461.1111111111113
-0.67,-0.68,2463.8888888888887
-0.555,-0.68,2466.6666666666665
-0.415,-0.695,2469.4444444444443
-0.285,-0.71,2472.222222222222
-0.18,-0.735,2475.0
-0.115,-0.77,2477.777777777778
-0.12,-0.78,2480.5555555555557
-0.2,-0.805,2483.3333333333335
-0.32,-0.825,2486.1111111111113
-0.475,-0.845,2488.8888888888887
-0.615,-0.855,2491.6666666666665
-0.765,-0.85,2494.4444444444443
-0.93,-0.82,2497.222222222222
-1.09,-0.78,2500.0
-1.19,-0.705,2502.777777777778
-1.225,-0.625,2505.5555555555557
-1.22,-0.505,2508.3333333333335
-1.205,-0.415,2511.1111111111113
-1.175,-0.36,2513.8888888888887
-1.165,-0.375,2516.6666666666665
-1.14,-0.415,2519.4444444444443
-1.145,-0.48,2522.222222222222
-1.125,-0.555,2525.0
-1.115,-0.615,2527.777777777778
-1.085,-0.635,2530.5555555555557
-1.065,-0.645,2533.3333333333335
-1.035,-0.64,2536.1111111111113
-1.015,-0.64,2538.8888888888887
-1.015,-0.655,2541.6666666666665
-1.01,-0.66,2544.4444444444443
-1.01,-0.66,2547.222222222222
-1.015,-0.675,2550.0
-1.025,-0.68,2552.777777777778
-1.04,-0.685,2555.5555555555557
-1.04,-0.685,2558.3333333333335
-1.05,-0.695,2561.1111111111113
-1.045,-0.68,2563.8888888888887
-1.02,-0.675,2566.6666666666665
-1.01,-0.67,2569.4444444444443
-1.015,-0.66,2572.222222222222
-1.0,-0.67,2575.0
-1.005,-0.66,2577.777777777778
-1.01,-0.68,2580.5555555555557
-1.02,-0.685,2583.3333333333335
-1.025,-0.7,2586.1111111111113
-1.03,-0.72,2588.8888888888887
-1.04,-0.71,2591.6666666666665
-1.04,-0.71,2594.4444444444443
-1.03,-0.715,2597.222222222222
-1.03,-0.695,2600.0
-1.03,-0.68,2602.777777777778
-1.03,-0.675,2605.5555555555557
-1.03,-0.675,2608.3333333333335
-1.035,-0.675,2611.1111111111113
-1.05,-0.685,2613.8888888888887
-1.045,-0.695,2616.6666666666665
-1.065,-0.695,2619.4444444444443
-1.065,-0.715,2622.222222222222
-1.07,-0.715,2625.0
-1.065,-0.71,2627.777777777778
-1.065,-0.705,2630.5555555555557
-1.06,-0.685,2633.3333333333335
-1.07,-0.68,2636.1111111111113
-1.065,-0.69,2638.8888888888887
-1.045,-0.69,2641.6666666666665
-1.055,-0.69,2644.4444444444443
-1.06,-0.695,2647.222222222222
-1.075,-0.705,2650.0
-1.085,-0.715,2652.777777777778
-1.09,-0.705,2655.5555555555557
-1.1,-0.715,2658.3333333333335
-1.095,-0.7,2661.1111111111113
-1.115,-0.71,2663.8888888888887
-1.105,-0.7,2666.6666666666665
-1.095,-0.685,2669.4444444444443
-1.095,-0.685,2672.222222222222
-1.095,-0.69,2675.0
-1.1,-0.69,2677.777777777778
-1.1,-0.705,2680.5555555555557
-1.11,-0.73,2683.3333333333335
-1.11,-0.73,2686.1111111111113
-1.12,-0.74,2688.8888888888887
-1.13,-0.735,2691.6666666666665
-1.135,-0.745,2694.4444444444443
-1.135,-0.715,2697.222222222222
-1.145,-0.715,2700.0
-1.14,-0.72,2702.777777777778
-1.135,-0.72,2705.5555555555557
-1.13,-0.715,2708.3333333333335
-1.125,-0.72,2711.1111111111113
-1.13,-0.72,2713.8888888888887
-1.145,-0.72,2716.6666666666665
-1.145,-0.725,2719.4444444444443
-1.15,-0.745,2722.222222222222
-1.145,-0.75,2725.0
-1.15,-0.74,2727.777777777778
-1.14,-0.735,2730.5555555555557
-1.12,-0.725,2733.3333333333335
-1.115,-0.715,2736.1111111111113
-1.11,-0.705,2738.8888888888887
-1.09,-0.715,2741.6666666666665
-1.085,-0.715,2744.4444444444443
-1.09,-0.72,2747.222222222222
-1.08,-0.735,2750.0
-1.08,-0.73,2752.777777777778
-1.08,-0.74,2755.5555555555557
-1.07,-0.745,2758.3333333333335
-1.075,-0.755,2761.1111111111113
-1.055,-0.75,2763.8888888888887
-1.03,-0.735,2766.6666666666665
-0.995,-0.74,2769.4444444444443
-0.985,-0.73,2772.222222222222
-0.925,-0.745,2775.0
-0.905,-0.75,2777.777777777778
-0.885,-0.755,2780.5555555555557
-0.875,-0.755,2783.3333333333335
-0.87,-0.76,2786.1111111111113
-0.865,-0.75,2788.8888888888887
-0.835,-0.755,2791.6666666666665
-0.82,-0.745,2794.4444444444443
-0.82,-0.73,2797.222222222222
-0.78,-0.73,2800.0
-0.77,-0.715,2802.777777777778
-0.765,-0.705,2805.5555555555557
-0.775,-0.72,2808.3333333333335
-0.775,-0.715,2811.1111111111113
-0.775,-0.72,2813.8888888888887
-0.79,-0.73,2816.6666666666665
-0.795,-0.73,2819.4444444444443
-0.79,-0.735,2822.222222222222
-0.79,-0.725,2825.0
-0.79,-0.71,2827.777777777778
-0.795,-0.705,2830.5555555555557
-0.8,-0.69,2833.3333333333335
-0.79,-0.68,2836.1111111111113
-0.8,-0.69,2838.8888888888887
-0.795,-0.69,2841.6666666666665
-0.8,-0.695,2844.4444444444443
-0.81,-0.715,2847.222222222222
-0.815,-0.7,2850.0
-0.82,-0.715,2852.777777777778
-0.825,-0.72,2855.5555555555557
-0.83,-0.715,2858.3333333333335
-0.84,-0.705,2861.1111111111113
-0.855,-0.705,2863.8888888888887
-0.845,-0.705,2866.6666666666665
-0.845,-0.7,2869.4444444444443
-0.84,-0.715,2872.222222222222
-0.83,-0.705,2875.0
-0.835,-0.7,2877.777777777778
-0.84,-0.705,2880.5555555555557
-0.835,-0.715,2883.3333333333335
-0.84,-0.715,2886.1111111111113
-0.845,-0.72,2888.8888888888887
-0.86,-0.705,2891.6666666666665
-0.86,-0.69,2894.4444444444443
-0.87,-0.69,2897.222222222222
-0.87,-0.675,2900.0
-0.86,-0.675,2902.777777777778
-0.86,-0.665,2905.5555555555557
-0.86,-0.675,2908.3333333333335
-0.865,-0.685,2911.1111111111113
-0.875,-0.69,2913.8888888888887
-0.875,-0.71,2916.6666666666665
-0.885,-0.705,2919.4444444444443
-0.88,-0.72,2922.222222222222
-0.88,-0.715,2925.0
-0.875,-0.7,2927.777777777778
-0.87,-0.695,2930.5555555555557
-0.87,-0.69,2933.3333333333335
-0.865,-0.675,2936.1111111111113
-0.865,-0.69,2938.8888888888887
-0.865,-0.7,2941.6666666666665
-0.88,-0.705,2944.4444444444443
-0.885,-0.715,2947.222222222222
-0.89,-0.705,2950.0
-0.895,-0.71,2952.777777777778
-0.89,-0.73,2955.5555555555557
-0.89,-0.715,2958.3333333333335
-0.905,-0.71,2961.1111111111113
-0.89,-0.705,2963.8888888888887
-0.895,-0.69,2966.6666666666665
-0.875,-0.69,2969.4444444444443
-0.865,-0.685,2972.222222222222
-0.865,-0.68,2975.0
-0.865,-0.68,2977.777777777778
-0.87,-0.68,2980.5555555555557
-0.87,-0.69,2983.3333333333335
-0.885,-0.71,2986.1111111111113
-0.885,-0.71,2988.8888888888887
-0.89,-0.705,2991.6666666666665
-0.9,-0.7,2994.4444444444443
-0.87,-0.69,2997.222222222222
-0.855,-0.675,3000.0
-0.835,-0.67,3002.777777777778
-0.815,-0.655,3005.5555555555557
-0.815,-0.665,3008.3333333333335
-0.805,-0.665,3011.1111111111113
-0.81,-0.67,3013.8888888888887
-0.81,-0.67,3016.6666666666665
-0.815,-0.68,3019.4444444444443
-0.82,-0.695,3022.222222222222
-0.83,-0.69,3025.0
-0.82,-0.69,3027.777777777778
-0.815,-0.695,3030.5555555555557
-0.8,-0.68,3033.3333333333335
-0.785,-0.685,3036.1111111111113
-0.77,-0.685,3038.8888888888887
-0.765,-0.7,3041.6666666666665
-0.765,-0.71,3044.4444444444443
-0.78,-0.71,3047.222222222222
-0.79,-0.725,3050.0
-0.815,-0.73,3052.777777777778
-0.845,-0.735,3055.5555555555557
-0.875,-0.735,3058.3333333333335
-0.875,-0.72,3061.1111111111113
-0.865,-0.705,3063.8888888888887
-0.845,-0.715,3066.6666666666665
-0.845,-0.705,3069.4444444444443
-0.85,-0.715,3072.222222222222
-0.86,-0.72,3075.0
-0.89,-0.73,3077.777777777778
-0.91,-0.73,3080.5555555555557
-0.935,-0.73,3083.3333333333335
-0.95,-0.725,3086.1111111111113
-0.97,-0.71,3088.8888888888887
-0.97,-0.69,3091.6666666666665
-0.975,-0.66,3094.4444444444443
-0.975,-0.65,3097.222222222222
-0.97,-0.65,3100.0
-0.96,-0.64,3102.777777777778
-0.96,-0.66,3105.5555555555557
-0.97,-0.655,3108.3333333333335
-0.96,-0.66,3111.1111111111113
-0.975,-0.68,3113.8888888888887
-0.98,-0.675,3116.6666666666665
-0.975,-0.675,3119.4444444444443
-0.975,-0.7,3122.222222222222
-0.975,-0.69,3125.0
-0.97,-0.68,3127.777777777778
-0.97,-0.69,3130.5555555555557
-0.985,-0.67,3133.3333333333335
-0.97,-0.665,3136.1111111111113
-0.975,-0.67,3138.8888888888887
-0.96,-0.67,3141.6666666666665
-0.965,-0.675,3144.4444444444443
-0.965,-0.67,3147.222222222222
-0.975,-0.69,3150.0
-0.985,-0.69,3152.777777777778
-0.985,-0.69,3155.5555555555557
-0.975,-0.68,3158.3333333333335
-0.97,-0.68,3161.1111111111113
-0.965,-0.655,3163.8888888888887
-0.955,-0.64,3166.6666666666665
-0.915,-0.625,3169.4444444444443
-0.86,-0.635,3172.222222222222
-0.8,-0.645,3175.0
-0.705,-0.66,3177.777777777778
-0.6,-0.685,3180.5555555555557
-0.465,-0.72,3183.3333333333335
-0.35,-0.755,3186.1111111111113
-0.23,-0.775,3188.8888888888887
-0.185,-0.8,3191.6666666666665
-0.205,-0.795,3194.4444444444443
-0.3,-0.8,3197.222222222222
-0.44,-0.785,3200.0
-0.585,-0.765,3202.777777777778
-0.765,-0.715,3205.5555555555557
-0.985,-0.67,3208.3333333333335
-1.155,-0.59,3211.1111111111113
-1.25,-0.505,3213.8888888888887
-1.28,-0.385,3216.6666666666665
-1.255,-0.28,3219.4444444444443
-1.245,-0.21,3222.222222222222
-1.23,-0.22,3225.0
-1.225,-0.295,3227.777777777778
-1.205,-0.405,3230.5555555555557
-1.185,-0.51,3233.3333333333335
-1.155,-0.58,3236.1111111111113
-1.125,-0.635,3238.8888888888887
-1.095,-0.66,3241.6666666666665
-1.085,-0.67,3244.4444444444443
-1.075,-0.68,3247.222222222222
-1.085,-0.685,3250.0
-1.095,-0.695,3252.777777777778
-1.09,-0.705,3255.5555555555557
-1.105,-0.7,3258.3333333333335
-1.11,-0.695,3261.1111111111113
-1.105,-0.7,3263.8888888888887
-1.095,-0.69,3266.6666666666665
-1.1,-0.685,3269.4444444444443
-1.085,-0.695,3272.222222222222
-1.09,-0.695,3275.0
-1.085,-0.69,3277.777777777778
-1.095,-0.705,3280.5555555555557
-1.105,-0.705,3283.3333333333335
-1.105,-0.715,3286.1111111111113
-1.1,-0.715,3288.8888888888887
-1.125,-0.72,3291.6666666666665
-1.13,-0.72,3294.4444444444443
-1.12,-0.705,3297.222222222222
-1.12,-0.7,3300.0
-1.115,-0.695,3302.777777777778
-1.11,-0.705,3305.5555555555557
-1.125,-0.705,3308.3333333333335
-1.125,-0.705,3311.1111111111113
-1.125,-0.71,3313.8888888888887
-1.135,-0.705,3316.6666666666665
-1.145,-0.725,3319.4444444444443
-1.14,-0.73,3322.222222222222
-1.155,-0.73,3325.0
-1.15,-0.715,3327.777777777778
-1.135,-0.72,3330.5555555555557
-1.12,-0.715,3333.3333333333335
-1.115,-0.71,3336.1111111111113
-1.115,-0.7,3338.8888888888887
-1.125,-0.7,3341.6666666666665
-1.115,-0.71,3344.4444444444443
-1.135,-0.71,3347.222222222222
-1.16,-0.71,3350.0
-1.165,-0.725,3352.777777777778
-1.17,-0.735,3355.5555555555557
-1.165,-0.725,3358.3333333333335
-1.175,-0.72,3361.1111111111113
-1.175,-0.715,3363.8888888888887
-1.165,-0.71,3366.6666666666665
-1.165,-0.715,3369.4444444444443
-1.16,-0.71,3372.222222222222
-1.15,-0.72,3375.0
-1.15,-0.73,3377.777777777778
-1.17,-0.74,3380.5555555555557
-1.18,-0.74,3383.3333333333335
-1.195,-0.755,3386.1111111111113
-1.195,-0.765,3388.8888888888887
-1.22,-0.77,3391.6666666666665
-1.215,-0.76,3394.4444444444443
-1.22,-0.76,3397.222222222222
-1.215,-0.74,3400.0
-1.215,-0.735,3402.777777777778
-1.205,-0.73,3405.5555555555557
-1.22,-0.73,3408.3333333333335
-1.225,-0.735,3411.1111111111113
-1.23,-0.74,3413.8888888888887
-1.23,-0.745,3416.6666666666665
-1.235,-0.755,3419.4444444444443
-1.225,-0.745,3422.222222222222
-1.225,-0.765,3425.0
-1.225,-0.75,3427.777777777778
-1.21,-0.75,3430.5555555555557
-1.2,-0.74,3433.3333333333335
-1.21,-0.73,3436.1111111111113
-1.195,-0.74,3438.8888888888887
-1.19,-0.735,3441.6666666666665
-1.185,-0.75,3444.4444444444443
-1.2,-0.76,3447.222222222222
-1.17,-0.765,3450.0
-1.175,-0.77,3452.777777777778
-1.18,-0.79,3455.5555555555557
-1.165,-0.785,3458.3333333333335
-1.145,-0.765,3461.1111111111113
-1.125,-0.765,3463.8888888888887
-1.11,-0.755,3466.6666666666665
-1.07,-0.75,3469.4444444444443
-1.045,-0.755,3472.222222222222
-1.035,-0.77,3475.0
-1.02,-0.775,3477.777777777778
-1.0,-0.78,3480.5555555555557
-0.995,-0.79,3483.3333333333335
-0.98,-0.805,3486.1111111111113
-0.97,-0.79,3488.8888888888887
-0.96,-0.785,3491.6666666666665
-0.935,-0.78,3494.4444444444443
-0.915,-0.75,3497.222222222222
-0.91,-0.745,3500.0
-0.89,-0.735,3502.777777777778
-0.885,-0.725,3505.5555555555557
-0.87,-0.73,3508.3333333333335
-0.87,-0.725,3511.1111111111113
-0.875,-0.72,3513.8888888888887
-0.885,-0.735,3516.6666666666665
-0.89,-0.73,3519.4444444444443
-0.9,-0.735,3522.222222222222
-0.91,-0.725,3525.0
-0.915,-0.71,3527.777777777778
-0.92,-0.7,3530.5555555555557
-0.905,-0.7,3533.3333333333335
-0.885,-0.68,3536.1111111111113
-0.88,-0.675,3538.8888888888887
-0.89,-0.68,3541.6666666666665
-0.885,-0.68,3544.4444444444443
-0.9,-0.685,3547.222222222222
-0.905,-0.7,3550.0
-0.915,-0.71,3552.777777777778
-0.93,-0.71,3555.5555555555557
-0.945,-0.72,3558.3333333333335
-0.935,-0.7,3561.1111111111113
-0.935,-0.705,3563.8888888888887
-0.925,-0.7,3566.6666666666665
-0.915,-0.685,3569.4444444444443
-0.915,-0.685,3572.222222222222
-0.93,-0.68,3575.0
-0.93,-0.68,3577.777777777778
-0.94,-0.7,3580.5555555555557
-0.95,-0.71,3583.3333333333335
-0.96,-0.715,3586.1111111111113
-0.955,-0.7,3588.8888888888887
-0.96,-0.71,3591.6666666666665
-0.95,-0.71,3594.4444444444443
-0.95,-0.705,3597.222222222222
-0.945,-0.685,3600.0
-0.94,-0.685,3602.777777777778
-0.935,-0.685,3605.5555555555557
-0.95,-0.7,3608.3333333333335
-0.96,-0.7,3611.1111111111113
-0.95,-0.71,3613.8888888888887
-0.965,-0.7,3616.6666666666665
-0.965,-0.715,3619.4444444444443
-0.96,-0.715,3622.222222222222
-0.97,-0.715,3625.0
-0.96,-0.715,3627.777777777778
-0.95,-0.7,3630.5555555555557
-0.955,-0.7,3633.3333333333335
-0.945,-0.69,3636.1111111111113
-0.94,-0.7,3638.8888888888887
-0.945,-0.7,3641.6666666666665
-0.945,-0.69,3644.4444444444443
-0.96,-0.715,3647.222222222222
-0.955,-0.715,3650.0
-0.955,-0.72,3652.777777777778
-0.955,-0.71,3655.5555555555557
-0.95,-0.72,3658.3333333333335
-0.955,-0.715,3661.1111111111113
-0.93,-0.715,3663.8888888888887
-0.92,-0.705,3666.6666666666665
-0.92,-0.695,3669.4444444444443
-0.91,-0.69,3672.222222222222
-0.905,-0.69,3675.0
-0.91,-0.695,3677.777777777778
-0.9,-0.7,3680.5555555555557
-0.895,-0.7,3683.3333333333335
-0.885,-0.71,3686.1111111111113
-0.88,-0.695,3688.8888888888887
-0.885,-0.685,3691.6666666666665
-0.865,-0.67,3694.4444444444443
-0.865,-0.665,3697.222222222222
-0.865,-0.645,3700.0
-0.865,-0.655,3702.777777777778
-0.855,-0.665,3705.5555555555557
-0.85,-0.675,3708.3333333333335
-0.84,-0.68,3711.1111111111113
-0.825,-0.69,3713.8888888888887
-0.825,-0.695,3716.6666666666665
-0.81,-0.705,3719.4444444444443
-0.81,-0.715,3722.222222222222
-0.825,-0.715,3725.0
-0.835,-0.705,3727.777777777778
-0.83,-0.72,3730.5555555555557
-0.83,-0.725,3733.3333333333335
-0.835,-0.72,3736.1111111111113
-0.83,-0.725,3738.8888888888887
-0.835,-0.725,3741.6666666666665
-0.845,-0.725,3744.4444444444443
-0.86,-0.74,3747.222222222222
-0.885,-0.735,3750.0
-0.885,-0.73,3752.777777777778
-0.895,-0.74,3755.5555555555557
-0.91,-0.74,3758.3333333333335
-0.91,-0.71,3761.1111111111113
-0.92,-0.71,3763.8888888888887
-0.935,-0.69,3766.6666666666665
-0.93,-0.67,3769.4444444444443
-0.92,-0.67,3772.222222222222
-0.935,-0.67,3775.0
-0.945,-0.675,3777.777777777778
-0.955,-0.685,3780.5555555555557
-0.955,-0.695,3783.3333333333335
-0.98,-0.7,3786.1111111111113
-0.985,-0.705,3788.8888888888887
-0.985,-0.7,3791.6666666666665
-0.98,-0.7,3794.4444444444443
-0.965,-0.68,3797.222222222222
-0.97,-0.67,3800.0
-0.955,-0.675,3802.777777777778
-0.945,-0.67,3805.5555555555557
-0.95,-0.675,3808.3333333333335
-0.96,-0.67,3811.1111111111113
-0.965,-0.68,3813.8888888888887
-0.965,-0.695,3816.6666666666665
-0.975,-0.7,3819.4444444444443
-0.97,-0.7,3822.222222222222
-0.97,-0.705,3825.0
-0.965,-0.685,3827.777777777778
-0.95,-0.69,3830.5555555555557
-0.945,-0.685,3833.3333333333335
-0.945,-0.67,3836.1111111111113
-0.915,-0.66,3838.8888888888887
-0.915,-0.665,3841.6666666666665
-0.895,-0.675,3844.4444444444443
-0.84,-0.68,3847.222222222222
-0.775,-0.69,3850.0
-0.7,-0.7,3852.777777777778
-0.595,-0.72,3855.5555555555557
-0.475,-0.735,3858.3333333333335
-0.345,-0.76,3861.1111111111113
-0.22,-0.765,3863.8888888888887
-0.13,-0.785,3866.6666666666665
-0.095,-0.795,3869.4444444444443
-0.115,-0.795,3872.222222222222
-0.215,-0.815,3875.0
-0.36,-0.83,3877.777777777778
-0.5,-0.845,3880.5555555555557
-0.655,-0.825,3883.3333333333335
-0.815,-0.805,3886.1111111111113
-0.985,-0.765,3888.8888888888887
-1.14,-0.695,3891.6666666666665
-1.24,-0.625,3894.4444444444443
-1.255,-0.495,3897.222222222222
-1.21,-0.365,3900.0
-1.17,-0.255,3902.777777777778
-1.15,-0.21,3905.5555555555557
-1.16,-0.26,3908.3333333333335
-1.18,-0.355,3911.1111111111113
-1.18,-0.46,3913.8888888888887
-1.17,-0.575,3916.6666666666665
-1.14,-0.63,3919.4444444444443
-1.11,-0.675,3922.222222222222
-1.085,-0.695,3925.0
-1.06,-0.685,3927.777777777778
-1.045,-0.68,3930.5555555555557
-1.035,-0.68,3933.3333333333335
-1.04,-0.67,3936.1111111111113
-1.03,-0.675,3938.8888888888887
-1.04,-0.665,3941.6666666666665
-1.04,-0.675,3944.4444444444443
-1.045,-0.68,3947.222222222222
-1.055,-0.685,3950.0
-1.06,-0.685,3952.777777777778
-1.055,-0.7,3955.5555555555557
-1.06,-0.69,3958.3333333333335
-1.07,-0.68,3961.1111111111113
-1.065,-0.675,3963.8888888888887
-1.065,-0.675,3966.6666666666665
-1.06,-0.67,3969.4444444444443
-1.04,-0.675,3972.222222222222
-1.045,-0.685,3975.0
-1.045,-0.68,3977.777777777778
-1.06,-0.695,3980.5555555555557
-1.065,-0.7,3983.3333333333335
-1.06,-0.715,3986.1111111111113
-1.075,-0.7,3988.8888888888887
-1.09,-0.705,3991.6666666666665
-1.085,-0.705,3994.4444444444443
-1.09,-0.705,3997.222222222222
-1.085,-0.7,4000.0
-1.08,-0.685,4002.777777777778
-1.06,-0.68,4005.5555555555557
-1.07,-0.69,4008.3333333333335
-1.075,-0.695,4011.1111111111113
-1.08,-0.71,4013.8888888888887
-1.1,-0.725,4016.6666666666665
-1.1,-0.72,4019.4444444444443
-1.105,-0.725,4022.222222222222
-1.105,-0.715,4025.0
-1.11,-0.725,4027.777777777778
-1.1,-0.695,4030.5555555555557
-1.11,-0.695,4033.3333333333335
-1.105,-0.68,4036.1111111111113
-1.09,-0.695,4038.8888888888887
-1.105,-0.7,4041.6666666666665
-1.1,-0.7,4044.4444444444443
-1.11,-0.715,4047.222222222222
-1.12,-0.715,4050.0
-1.125,-0.725,4052.777777777778
-1.135,-0.725,4055.5555555555557
-1.145,-0.73,4058.3333333333335
-1.145,-0.725,4061.1111111111113
-1.135,-0.705,4063.8888888888887
-1.14,-0.71,4066.6666666666665
-1.13,-0.71,4069.4444444444443
-1.125,-0.705,4072.222222222222
-1.135,-0.71,4075.0
-1.145,-0.72,4077.777777777778
-1.15,-0.735,4080.5555555555557
-1.16,-0.725,4083.3333333333335
-1.165,-0.75,4086.1111111111113
-1.19,-0.765,4088.8888888888887
-1.175,-0.755,4091.6666666666665
-1.175,-0.745,4094.4444444444443
-1.165,-0.745,4097.222222222223
-1.16,-0.735,4100.0
-1.155,-0.74,4102.777777777777
-1.135,-0.73,4105.555555555556
-1.14,-0.74,4108.333333333333
-1.145,-0.74,4111.111111111111
-1.16,-0.755,4113.888888888889
-1.14,-0.76,4116.666666666667
-1.145,-0.765,4119.444444444444
-1.145,-0.77,4122.222222222223
-1.15,-0.755,4125.0
-1.125,-0.755,4127.777777777777
-1.115,-0.755,4130.555555555556
-1.105,-0.75,4133.333333333333
-1.085,-0.745,4136.111111111111
-1.075,-0.74,4138.888888888889
-1.055,-0.73,4141.666666666667
-1.045,-0.75,4144.444444444444
-1.04,-0.75,4147.222222222223
-1.035,-0.76,4150.0
-1.01,-0.76,4152.777777777777
-0.995,-0.765,4155.555555555556
-0.99,-0.755,4158.333333333333
-0.97,-0.77,4161.111111111111
-0.95,-0.76,4163.888888888889
-0.94,-0.75,4166.666666666667
-0.895,-0.74,4169.444444444444
-0.88,-0.735,4172.222222222223
-0.855,-0.74,4175.0
-0.855,-0.735,4177.777777777777
-0.84,-0.745,4180.555555555556
-0.82,-0.745,4183.333333333333
-0.83,-0.745,4186.111111111111
-0.825,-0.745,4188.888888888889
-0.82,-0.73,4191.666666666667
-0.805,-0.72,4194.444444444444
-0.795,-0.705,4197.222222222223
-0.79,-0.69,4200.0
-0.785,-0.685,4202.777777777777
-0.785,-0.67,4205.555555555556
-0.78,-0.67,4208.333333333333
-0.79,-0.665,4211.111111111111
-0.805,-0.66,4213.888888888889
-0.805,-0.675,4216.666666666667
-0.815,-0.68,4219.444444444444
-0.82,-0.675,4222.222222222223
-0.845,-0.67,4225.0
-0.835,-0.68,4227.777777777777
-0.82,-0.66,4230.555555555556
-0.81,-0.645,4233.333333333333
-0.815,-0.635,4236.111111111111
-0.805,-0.64,4238.888888888889
-0.805,-0.645,4241.666666666667
-0.81,-0.65,4244.444444444444
-0.815,-0.65,4247.222222222223
-0.83,-0.68,4250.0
-0.845,-0.685,4252.777777777777
-0.85,-0.675,4255.555555555556
-0.86,-0.675,4258.333333333333
-0.85,-0.66,4261.111111111111
-0.855,-0.66,4263.888888888889
-0.845,-0.655,4266.666666666667
-0.835,-0.65,4269.444444444444
-0.835,-0.65,4272.222222222223
-0.83,-0.66,4275.0
-0.835,-0.655,4277.777777777777
-0.845,-0.675,4280.555555555556
-0.845,-0.675,4283.333333333333
-0.855,-0.675,4286.111111111111
-0.86,-0.695,4288.888888888889
-0.86,-0.685,4291.666666666667
-0.86,-0.68,4294.444444444444
-0.855,-0.665,4297.222222222223
-0.85,-0.655,4300.0
-0.85,-0.655,4302.777777777777
-0.845,-0.635,4305.555555555556
-0.84,-0.655,4308.333333333333
-0.855,-0.65,4311.111111111111
-0.855,-0.65,4313.888888888889
-0.87,-0.67,4316.666666666667
-0.865,-0.665,4319.444444444444
-0.865,-0.68,4322.222222222223
-0.865,-0.685,4325.0
-0.865,-0.68,4327.777777777777
-0.865,-0.66,4330.555555555556
-0.85,-0.655,4333.333333333333
-0.845,-0.645,4336.111111111111
-0.835,-0.635,4338.888888888889
-0.845,-0.65,4341.666666666667
-0.855,-0.645,4344.444444444444
-0.845,-0.665,4347.222222222223
-0.85,-0.67,4350.0
-0.85,-0.68,4352.777777777777
-0.86,-0.68,4355.555555555556
-0.855,-0.67,4358.333333333333
-0.865,-0.675,4361.111111111111
-0.855,-0.66,4363.888888888889
-0.845,-0.66,4366.666666666667
-0.835,-0.63,4369.444444444444
-0.845,-0.66,4372.222222222223
-0.835,-0.665,4375.0
-0.845,-0.65,4377.777777777777
-0.84,-0.655,4380.555555555556
-0.835,-0.67,4383.333333333333
-0.83,-0.66,4386.111111111111
-0.825,-0.665,4388.888888888889
-0.815,-0.655,4391.666666666667
-0.815,-0.635,4394.444444444444
-0.79,-0.63,4397.222222222223
-0.785,-0.615,4400.0
-0.76,-0.615,4402.777777777777
-0.765,-0.605,4405.555555555556
-0.765,-0.615,4408.333333333333
-0.775,-0.62,4411.111111111111
-0.775,-0.64,4413.888888888889
-0.77,-0.645,4416.666666666667
-0.775,-0.655,4419.444444444444
-0.78,-0.675,4422.222222222223
-0.765,-0.67,4425.0
-0.76,-0.67,4427.777777777777
-0.755,-0.655,4430.555555555556
-0.74,-0.655,4433.333333333333
-0.745,-0.645,4436.111111111111
-0.755,-0.65,4438.888888888889
-0.78,-0.655,4441.666666666667
-0.795,-0.655,4444.444444444444
-0.825,-0.685,4447.222222222223
-0.83,-0.69,4450.0
-0.84,-0.695,4452.777777777777
-0.84,-0.705,4455.555555555556
-0.84,-0.7,4458.333333333333
-0.845,-0.71,4461.111111111111
-0.865,-0.695,4463.888888888889
-0.87,-0.685,4466.666666666667
-0.875,-0.655,4469.444444444444
-0.875,-0.66,4472.222222222223
-0.89,-0.635,4475.0
-0.895,-0.64,4477.777777777777
-0.905,-0.64,4480.555555555556
-0.93,-0.63,4483.333333333333
-0.93,-0.655,4486.111111111111
-0.945,-0.655,4488.888888888889
-0.94,-0.655,4491.666666666667
-0.955,-0.645,4494.444444444444
-0.95,-0.64,4497.222222222223
-0.935,-0.63,4500.0
-0.945,-0.615,4502.777777777777
-0.925,-0.62,4505.555555555556
-0.92,-0.625,4508.333333333333
-0.93,-0.625,4511.111111111111
-0.94,-0.65,4513.888888888889
-0.95,-0.655,4516.666666666667
-0.96,-0.65,4519.444444444444
-0.96,-0.665,4522.222222222223
-0.965,-0.66,4525.0
-0.945,-0.655,4527.777777777777
-0.945,-0.655,4530.555555555556
-0.95,-0.64,4533.333333333333
-0.93,-0.62,4536.111111111111
-0.925,-0.615,4538.888888888889
-0.91,-0.63,4541.666666666667
-0.915,-0.62,4544.444444444444
-0.915,-0.62,4547.222222222223
-0.915,-0.645,4550.0
-0.9,-0.64,4552.777777777777
-0.86,-0.64,4555.555555555556
-0.805,-0.645,4558.333333333333
-0.73,-0.64,4561.111111111111
-0.635,-0.645,4563.888888888889
-0.5,-0.645,4566.666666666667
-0.365,-0.665,4569.444444444444
-0.24,-0.675,4572.222222222223
-0.13,-0.695,4575.0
-0.06,-0.71,4577.777777777777
-0.07,-0.71,4580.555555555556
-0.165,-0.745,4583.333333333333
-0.315,-0.765,4586.111111111111
-0.475,-0.775,4588.888888888889
-0.655,-0.76,4591.666666666667
-0.845,-0.74,4594.444444444444
-1.01,-0.675,4597.222222222223
-1.125,-0.605,4600.0
-1.175,-0.51,4602.777777777777
-1.175,-0.405,4605.555555555556
-1.14,-0.34,4608.333333333333
-1.1,-0.325,4611.111111111111
-1.07,-0.375,4613.888888888889
-1.045,-0.445,4616.666666666667
-1.035,-0.51,4619.444444444444
-1.035,-0.585,4622.222222222223
-1.045,-0.615,4625.0
-1.055,-0.64,4627.777777777777
-1.065,-0.64,4630.555555555556
-1.055,-0.635,4633.333333333333
-1.055,-0.635,4636.111111111111
-1.035,-0.635,4638.888888888889
-1.03,-0.64,4641.666666666667
-1.04,-0.63,4644.444444444444
-1.035,-0.63,4647.222222222223
-1.045,-0.655,4650.0
-1.045,-0.665,4652.777777777777
-1.07,-0.665,4655.555555555556
-1.06,-0.66,4658.333333333333
-1.065,-0.655,4661.111111111111
-1.075,-0.645,4663.888888888889
-1.055,-0.64,4666.666666666667
-1.045,-0.63,4669.444444444444
-1.06,-0.625,4672.222222222223
-1.065,-0.635,4675.0
-1.05,-0.65,4677.777777777777
-1.055,-0.645,4680.555555555556
-1.07,-0.655,4683.333333333333
-1.09,-0.65,4686.111111111111
-1.085,-0.66,4688.888888888889
-1.085,-0.665,4691.666666666667
-1.08,-0.655,4694.444444444444
-1.085,-0.645,4697.222222222223
-1.07,-0.64,4700.0
-1.065,-0.635,4702.777777777777
-1.055,-0.635,4705.555555555556
-1.07,-0.635,4708.333333333333
-1.08,-0.64,4711.111111111111
-1.085,-0.655,4713.888888888889
-1.09,-0.65,4716.666666666667
-1.1,-0.675,4719.444444444444
-1.11,-0.675,4722.222222222223
-1.105,-0.665,4725.0
-1.115,-0.665,4727.777777777777
-1.115,-0.655,4730.555555555556
-1.105,-0.65,4733.333333333333
-1.1,-0.65,4736.111111111111
-1.105,-0.625,4738.888888888889
-1.11,-0.645,4741.666666666667
-1.12,-0.65,4744.444444444444
-1.13,-0.655,4747.222222222223
-1.135,-0.655,4750.0
-1.145,-0.665,4752.777777777777
-1.16,-0.66,4755.555555555556
-1.155,-0.66,4758.333333333333
-1.15,-0.67,4761.111111111111
-1.14,-0.655,4763.888888888889
-1.14,-0.66,4766.666666666667
-1.145,-0.645,4769.444444444444
-1.14,-0.64,4772.222222222223
-1.145,-0.66,4775.0
-1.15,-0.665,4777.777777777777
-1.165,-0.67,4780.555555555556
-1.185,-0.67,4783.333333333333
-1.19,-0.68,4786.111111111111
-1.2,-0.69,4788.888888888889
-1.2,-0.685,4791.666666666667
-1.205,-0.675,4794.444444444444
-1.205,-0.67,4797.222222222223
-1.19,-0.67,4800.0
-1.185,-0.665,4802.777777777777
-1.175,-0.675,4805.555555555556
-1.18,-0.665,4808.333333333333
-1.185,-0.67,4811.111111111111
-1.19,-0.68,4813.888888888889
-1.19,-0.69,4816.666666666667
-1.185,-0.695,4819.444444444444
-1.19,-0.71,4822.222222222223
-1.19,-0.7,4825.0
-1.185,-0.695,4827.777777777777
-1.17,-0.695,4830.555555555556
-1.165,-0.68,4833.333333333333
-1.15,-0.66,4836.111111111111
-1.135,-0.66,4838.888888888889
-1.13,-0.66,4841.666666666667
-1.12,-0.67,4844.444444444444
-1.11,-0.675,4847.222222222223
-1.105,-0.68,4850.0
-1.1,-0.685,4852.777777777777
-1.095,-0.69,4855.555555555556
-1.08,-0.7,4858.333333333333
-1.06,-0.695,4861.111111111111
-1.03,-0.7,4863.888888888889
-1.01,-0.69,4866.666666666667
-0.985,-0.685,4869.444444444444
-0.96,-0.69,4872.222222222223
-0.945,-0.685,4875.0
-0.92,-0.685,4877.777777777777
-0.9,-0.7,4880.555555555556
-0.885,-0.71,4883.333333333333
-0.88,-0.705,4886.111111111111
-0.875,-0.715,4888.888888888889
-0.865,-0.695,4891.666666666667
-0.85,-0.71,4894.444444444444
-0.835,-0.69,4897.222222222223
-0.825,-0.685,4900.0
-0.795,-0.675,4902.777777777777
-0.8,-0.665,4905.555555555556
-0.795,-0.665,4908.333333333333
-0.8,-0.67,4911.111111111111
-0.805,-0.67,4913.888888888889
-0.8,-0.67,4916.666666666667
-0.81,-0.67,4919.444444444444
-0.84,-0.67,4922.222222222223
-0.825,-0.66,4925.0
-0.835,-0.64,4927.777777777777
-0.83,-0.635,4930.555555555556
-0.83,-0.62,4933.333333333333
-0.825,-0.615,4936.111111111111
-0.825,-0.61,4938.888888888889
-0.835,-0.615,4941.666666666667
-0.835,-0.615,4944.444444444444
-0.835,-0.63,4947.222222222223
-0.84,-0.635,4950.0
-0.855,-0.635,4952.777777777777
-0.865,-0.655,4955.555555555556
-0.865,-0.65,4958.333333333333
-0.865,-0.65,4961.111111111111
-0.865,-0.645,4963.888888888889
-0.855,-0.635,4966.666666666667
-0.855,-0.625,4969.444444444444
-0.85,-0.615,4972.222222222223
-0.855,-0.615,4975.0
-0.87,-0.63,4977.777777777777
-0.87,-0.64,4980.555555555556
-0.87,-0.645,4983.333333333333
-0.875,-0.65,4986.111111111111
-0.895,-0.655,4988.888888888889
-0.895,-0.65,4991.666666666667
-0.905,-0.655,4994.444444444444
-0.905,-0.65,4997.222222222223
-0.905,-0.635,5000.0
-0.895,-0.625,5002.777777777777
-0.89,-0.63,5005.555555555556
-0.885,-0.635,5008.333333333333
-0.885,-0.625,5011.111111111111
-0.89,-0.65,5013.888888888889
-0.905,-0.635,5016.666666666667
-0.915,-0.655,5019.444444444444
-0.92,-0.655,5022.222222222223
-0.915,-0.645,5025.0
-0.9,-0.64,5027.777777777777
-0.895,-0.625,5030.555555555556
-0.89,-0.615,5033.333333333333
-0.885,-0.63,5036.111111111111
-0.885,-0.625,5038.888888888889
-0.88,-0.615,5041.666666666667
-0.89,-0.63,5044.444444444444
-0.885,-0.625,5047.222222222223
-0.895,-0.635,5050.0
-0.89,-0.65,5052.777777777777
-0.895,-0.65,5055.555555555556
-0.89,-0.65,5058.333333333333
-0.875,-0.63,5061.111111111111
-0.865,-0.615,5063.888888888889
-0.855,-0.63,5066.666666666667
-0.845,-0.605,5069.444444444444
-0.84,-0.6,5072.222222222223
-0.83,-0.585,5075.0
-0.825,-0.6,5077.777777777777
-0.84,-0.61,5080.555555555556
-0.84,-0.6,5083.333333333333
-0.85,-0.61,5086.111111111111
-0.845,-0.63,5088.888888888889
-0.835,-0.635,5091.666666666667
-0.815,-0.625,5094.444444444444
-0.805,-0.62,5097.222222222223
-0.79,-0.62,5100.0
-0.775,-0.63,5102.777777777777
-0.77,-0.61,5105.555555555556
-0.765,-0.625,5108.333333333333
-0.78,-0.63,5111.111111111111
-0.795,-0.645,5113.888888888889
-0.815,-0.655,5116.666666666667
-0.835,-0.685,5119.444444444444
-0.845,-0.675,5122.222222222223
-0.85,-0.69,5125.0
-0.865,-0.685,5127.777777777777
-0.865,-0.68,5130.555555555556
-0.87,-0.675,5133.333333333333
-0.875,-0.66,5136.111111111111
-0.895,-0.655,5138.888888888889
-0.905,-0.64,5141.666666666667
-0.905,-0.64,5144.444444444444
-0.91,-0.64,5147.222222222223
-0.935,-0.625,5150.0
-0.955,-0.63,5152.777777777777
-0.97,-0.635,5155.555555555556
-0.975,-0.645,5158.333333333333
-0.98,-0.63,5161.111111111111
-0.97,-0.64,5163.888888888889
-0.97,-0.63,5166.666666666667
-0.96,-0.63,5169.444444444444
-0.965,-0.62,5172.222222222223
-0.965,-0.63,5175.0
-0.96,-0.62,5177.777777777777
-0.965,-0.64,5180.555555555556
-0.97,-0.63,5183.333333333333
-0.985,-0.65,5186.111111111111
-0.99,-0.665,5188.888888888889
-0.99,-0.66,5191.666666666667
-1.0,-0.65,5194.444444444444
-0.99,-0.64,5197.222222222223
-0.995,-0.625,5200.0
-0.985,-0.62,5202.777777777777
-0.965,-0.615,5205.555555555556
-0.955,-0.62,5208.333333333333
-0.965,-0.615,5211.111111111111
-0.96,-0.615,5213.888888888889
-0.975,-0.635,5216.666666666667
-0.98,-0.62,5219.444444444444
-0.98,-0.635,5222.222222222223
-0.98,-0.625,5225.0
-0.95,-0.625,5227.777777777777
-0.915,-0.6,5230.555555555556
-0.85,-0.6,5233.333333333333
-0.775,-0.61,5236.111111111111
-0.67,-0.62,5238.888888888889
-0.54,-0.64,5241.666666666667
-0.39,-0.67,5244.444444444444
-0.26,-0.69,5247.222222222223
-0.16,-0.72,5250.0
-0.12,-0.74,5252.777777777777
-0.15,-0.73,5255.555555555556
-0.255,-0.75,5258.333333333333
-0.37,-0.755,5261.111111111111
-0.505,-0.76,5263.888888888889
-0.615,-0.755,5266.666666666667
-0.755,-0.74,5269.444444444444
-0.88,-0.715,5272.222222222223
-1.025,-0.67,5275.0
-1.135,-0.625,5277.777777777777
-1.195,-0.55,5280.555555555556
-1.21,-0.455,5283.333333333333
-1.185,-0.39,5286.111111111111
-1.165,-0.345,5288.888888888889
-1.125,-0.36,5291.666666666667
-1.1,-0.395,5294.444444444444
-1.08,-0.465,5297.222222222223
-1.065,-0.515,5300.0
-1.07,-0.545,5302.777777777777
-1.075,-0.57,5305.555555555556
-1.08,-0.595,5308.333333333333
-1.1,-0.61,5311.111111111111
-1.095,-0.615,5313.888888888889
-1.09,-0.645,5316.666666666667
-1.09,-0.64,5319.444444444444
-1.09,-0.645,5322.222222222223
-1.09,-0.66,5325.0
-1.095,-0.655,5327.777777777777
-1.095,-0.645,5330.555555555556
-1.085,-0.625,5333.333333333333
-1.09,-0.625,5336.111111111111
-1.1,-0.62,5338.888888888889
-1.095,-0.635,5341.666666666667
-1.105,-0.64,5344.444444444444
-1.1,-0.655,5347.222222222223
-1.095,-0.67,5350.0
-1.105,-0.675,5352.777777777777
-1.12,-0.68,5355.555555555556
-1.115,-0.68,5358.333333333333
-1.115,-0.67,5361.111111111111
-1.11,-0.675,5363.888888888889
-1.11,-0.66,5366.666666666667
-1.11,-0.645,5369.444444444444
-1.115,-0.655,5372.222222222223
-1.105,-0.645,5375.0
-1.105,-0.645,5377.777777777777
-1.11,-0.655,5380.555555555556
-1.115,-0.665,5383.333333333333
-1.12,-0.665,5386.111111111111
-1.135,-0.67,5388.888888888889
-1.14,-0.655,5391.666666666667
-1.145,-0.66,5394.444444444444
-1.14,-0.66,5397.222222222223
-1.135,-0.64,5400.0
-1.13,-0.645,5402.777777777777
-1.14,-0.625,5405.555555555556
-1.13,-0.635,5408.333333333333
-1.125,-0.635,5411.111111111111
-1.125,-0.65,5413.888888888889
-1.145,-0.655,5416.666666666667
-1.16,-0.665,5419.444444444444
-1.165,-0.665,5422.222222222223
-1.17,-0.685,5425.0
-1.175,-0.665,5427.777777777777
-1.165,-0.655,5430.555555555556
-1.165,-0.65,5433.333333333333
-1.17,-0.645,5436.111111111111
-1.155,-0.64,5438.888888888889
-1.165,-0.655,5441.666666666667
-1.175,-0.66,5444.444444444444
-1.18,-0.67,5447.222222222223
-1.2,-0.675,5450.0
-1.21,-0.685,5452.777777777777
-1.215,-0.695,5455.555555555556
-1.235,-0.695,5458.333333333333
-1.235,-0.685,5461.111111111111
-1.23,-0.68,5463.888888888889
-1.23,-0.67,5466.666666666667
-1.225,-0.665,5469.444444444444
-1.205,-0.66,5472.222222222223
-1.225,-0.655,5475.0
-1.23,-0.665,5477.777777777777
-1.24,-0.68,5480.555555555556
-1.24,-0.67,5483.333333333333
-1.25,-0.68,5486.111111111111
-1.245,-0.68,5488.888888888889
-1.255,-0.675,5491.666666666667
-1.255,-0.68,5494.444444444444
-1.25,-0.67,5497.222222222223
-1.245,-0.675,5500.0
-1.24,-0.665,5502.777777777777
-1.24,-0.645,5505.555555555556
-1.23,-0.65,5508.333333333333
-1.23,-0.665,5511.111111111111
-1.255,-0.68,5513.888888888889
-1.235,-0.685,5516.666666666667
-1.235,-0.69,5519.444444444444
-1.235,-0.69,5522.222222222223
-1.235,-0.69,5525.0
-1.225,-0.685,5527.777777777777
-1.205,-0.68,5530.555555555556
-1.19,-0.68,5533.333333333333
-1.18,-0.68,5536.111111111111
-1.16,-0.67,5538.888888888889
-1.145,-0.68,5541.666666666667
-1.145,-0.69,5544.444444444444
-1.13,-0.675,5547.222222222223
-1.135,-0.69,5550.0
-1.125,-0.705,5552.777777777777
-1.105,-0.695,5555.555555555556
-1.09,-0.705,5558.333333333333
-1.07,-0.705,5561.111111111111
-1.04,-0.685,5563.888888888889
-1.01,-0.685,5566.666666666667
-0.98,-0.675,5569.444444444444
-0.965,-0.66,5572.222222222223
-0.955,-0.665,5575.0
-0.94,-0.67,5577.777777777777
-0.93,-0.675,5580.555555555556
-0.93,-0.69,5583.333333333333
-0.93,-0.675,5586.111111111111
-0.93,-0.69,5588.888888888889
-0.93,-0.68,5591.666666666667
-0.915,-0.665,5594.444444444444
-0.91,-0.645,5597.222222222223
-0.9,-0.655,5600.0
-0.905,-0.645,5602.777777777777
-0.89,-0.625,5605.555555555556
-0.89,-0.63,5608.333333333333
-0.89,-0.635,5611.111111111111
-0.905,-0.64,5613.888888888889
-0.92,-0.64,5616.666666666667
-0.925,-0.655,5619.444444444444
-0.925,-0.655,5622.222222222223
-0.945,-0.655,5625.0
-0.94,-0.655,5627.777777777777
-0.94,-0.65,5630.555555555556
-0.94,-0.63,5633.333333333333
-0.95,-0.63,5636.111111111111
-0.93,-0.625,5638.888888888889
-0.92,-0.625,5641.666666666667
-0.945,-0.635,5644.444444444444
-0.935,-0.625,5647.222222222223
-0.96,-0.64,5650.0
-0.97,-0.645,5652.777777777777
-0.98,-0.655,5655.555555555556
-0.985,-0.65,5658.333333333333
-0.98,-0.64,5661.111111111111
-0.97,-0.63,5663.888888888889
-0.955,-0.625,5666.666666666667
-0.955,-0.625,5669.444444444444
-0.945,-0.605,5672.222222222223
-0.965,-0.61,5675.0
-0.97,-0.625,5677.777777777777
-0.98,-0.64,5680.555555555556
-0.985,-0.645,5683.333333333333
-0.995,-0.645,5686.111111111111
-1.005,-0.655,5688.888888888889
-1.015,-0.65,5691.666666666667
-0.985,-0.645,5694.444444444444
-0.985,-0.65,5697.222222222223
-0.98,-0.64,5700.0
-0.98,-0.635,5702.777777777777
-0.97,-0.625,5705.555555555556
-0.98,-0.645,5708.333333333333
-0.975,-0.645,5711.111111111111
-0.98,-0.65,5713.888888888889
-0.99,-0.655,5716.666666666667
-0.985,-0.65,5719.444444444444
-0.995,-0.66,5722.222222222223
-0.995,-0.67,5725.0
-1.0,-0.66,5727.777777777777
-1.0,-0.64,5730.555555555556
-1.0,-0.64,5733.333333333333
-1.0,-0.64,5736.111111111111
-0.99,-0.635,5738.888888888889
-0.98,-0.635,5741.666666666667
-0.975,-0.64,5744.444444444444
-0.98,-0.635,5747.222222222223
-0.99,-0.65,5750.0
-0.985,-0.64,5752.777777777777
-0.99,-0.65,5755.555555555556
-0.985,-0.66,5758.333333333333
-0.99,-0.645,5761.111111111111
-0.975,-0.635,5763.888888888889
-0.97,-0.625,5766.666666666667
-0.965,-0.625,5769.444444444444
-0.94,-0.615,5772.222222222223
-0.93,-0.62,5775.0
-0.915,-0.615,5777.777777777777
-0.925,-0.61,5780.555555555556
-0.91,-0.62,5783.333333333333
-0.905,-0.615,5786.111111111111
-0.915,-0.625,5788.888888888889
-0.925,-0.615,5791.666666666667
-0.92,-0.61,5794.444444444444
-0.915,-0.615,5797.222222222223
-0.905,-0.6,5800.0
-0.915,-0.595,5802.777777777777
-0.91,-0.6,5805.555555555556
-0.9,-0.615,5808.333333333333
-0.905,-0.625,5811.111111111111
-0.905,-0.635,5813.888888888889
-0.885,-0.66,5816.666666666667
-0.88,-0.655,5819.444444444444
-0.875,-0.66,5822.222222222223
-0.88,-0.67,5825.0
-0.89,-0.67,5827.777777777777
-0.905,-0.655,5830.555555555556
-0.935,-0.66,5833.333333333333
-0.945,-0.65,5836.111111111111
-0.95,-0.65,5838.888888888889
-0.945,-0.65,5841.666666666667
-0.95,-0.68,5844.444444444444
-0.945,-0.67,5847.222222222223
-0.965,-0.675,5850.0
-0.98,-0.675,5852.777777777777
-1.0,-0.67,5855.555555555556
-1.025,-0.67,5858.333333333333
-1.045,-0.64,5861.111111111111
-1.05,-0.635,5863.888888888889
-1.05,-0.61,5866.666666666667
-1.045,-0.605,5869.444444444444
-1.045,-0.605,5872.222222222223
-1.035,-0.605,5875.0
-1.05,-0.625,5877.777777777777
-1.045,-0.625,5880.555555555556
-1.05,-0.635,5883.333333333333
-1.06,-0.635,5886.111111111111
-1.07,-0.64,5888.888888888889
-1.07,-0.645,5891.666666666667
-1.065,-0.655,5894.444444444444
-1.065,-0.635,5897.222222222223
-1.05,-0.64,5900.0
-1.045,-0.63,5902.777777777777
-1.035,-0.625,5905.555555555556
-1.03,-0.62,5908.333333333333
-1.035,-0.63,5911.111111111111
-1.04,-0.635,5913.888888888889
-1.045,-0.63,5916.666666666667
-1.055,-0.64,5919.444444444444
-1.055,-0.635,5922.222222222223
-1.05,-0.64,5925.0
-1.04,-0.625,5927.777777777777
-1.04,-0.61,5930.555555555556
-1.025,-0.59,5933.333333333333
-1.0,-0.585,5936.111111111111
-0.96,-0.58,5938.888888888889
-0.915,-0.585,5941.666666666667
-0.86,-0.6,5944.444444444444
-0.765,-0.625,5947.222222222223
-0.665,-0.645,5950.0
-0.565,-0.665,5952.777777777777
-0.435,-0.69,5955.555555555556
-0.33,-0.71,5958.333333333333
-0.255,-0.71,5961.111111111111
-0.24,-0.715,5963.888888888889
-0.295,-0.715,5966.666666666667
-0.395,-0.72,5969.444444444444
-0.51,-0.72,5972.222222222223
-0.625,-0.73,5975.0
-0.77,-0.72,5977.777777777777
-0.91,-0.72,5980.555555555556
-1.07,-0.68,5983.333333333333
-1.195,-0.645,5986.111111111111
-1.275,-0.57,5988.888888888889
-1.285,-0.47,5991.666666666667
-1.27,-0.37,5994.444444444444
-1.23,-0.31,5997.222222222223
-1.22,-0.285,6000.0
-1.2,-0.33,6002.777777777777
-1.17,-0.38,6005.555555555556
-1.165,-0.455,6008.333333333333
-1.165,-0.525,6011.111111111111
-1.165,-0.57,6013.888888888889
-1.17,-0.625,6016.666666666667
-1.16,-0.63,6019.444444444444
-1.165,-0.635,6022.222222222223
-1.16,-0.65,6025.0
-1.165,-0.63,6027.777777777777
-1.16,-0.625,6030.555555555556
-1.155,-0.62,6033.333333333333
-1.16,-0.605,6036.111111111111
-1.155,-0.615,6038.888888888889
-1.145,-0.605,6041.666666666667
-1.15,-0.62,6044.444444444444
-1.165,-0.625,6047.222222222223
-1.17,-0.64,6050.0
-1.17,-0.635,6052.777777777777
-1.17,-0.65,6055.555555555556
-1.185,-0.655,6058.333333333333
-1.18,-0.65,6061.111111111111
-1.185,-0.65,6063.888888888889
-1.185,-0.64,6066.666666666667
-1.185,-0.645,6069.444444444444
-1.185,-0.63,6072.222222222223
-1.18,-0.64,6075.0
-1.175,-0.65,6077.777777777777
-1.175,-0.65,6080.555555555556
-1.185,-0.655,6083.333333333333
-1.19,-0.66,6086.111111111111
-1.205,-0.655,6088.888888888889
-1.21,-0.665,6091.666666666667
-1.205,-0.66,6094.444444444444
-1.2,-0.655,6097.222222222223
-1.205,-0.65,6100.0
-1.2,-0.635,6102.777777777777
-1.2,-0.63,6105.555555555556
-1.195,-0.64,6108.333333333333
-1.2,-0.63,6111.111111111111
-1.2,-0.64,6113.888888888889
-1.21,-0.65,6116.666666666667
-1.225,-0.665,6119.444444444444
-1.23,-0.665,6122.222222222223
-1.225,-0.66,6125.0
-1.24,-0.67,6127.777777777777
-1.23,-0.66,6130.555555555556
-1.23,-0.64,6133.333333333333
-1.225,-0.64,6136.111111111111
-1.22,-0.635,6138.888888888889
-1.21,-0.645,6141.666666666667
-1.23,-0.645,6144.444444444444
-1.24,-0.665,6147.222222222223
-1.235,-0.665,6150.0
-1.265,-0.675,6152.777777777777
-1.265,-0.67,6155.555555555556
-1.265,-0.685,6158.333333333333
-1.265,-0.685,6161.111111111111
-1.26,-0.68,6163.888888888889
-1.255,-0.67,6166.666666666667
-1.26,-0.66,6169.444444444444
-1.25,-0.665,6172.222222222223
-1.25,-0.665,6175.0
-1.26,-0.66,6177.777777777777
-1.26,-0.675,6180.555555555556
-1.265,-0.68,6183.333333333333
-1.265,-0.685,6186.111111111111
-1.28,-0.69,6188.888888888889
-1.27,-0.69,6191.666666666667
-1.28,-0.67,6194.444444444444
-1.265,-0.675,6197.222222222223
-1.27,-0.67,6200.0
-1.27,-0.665,6202.777777777777
-1.265,-0.65,6205.555555555556
-1.25,-0.66,6208.333333333333
-1.255,-0.66,6211.111111111111
-1.24,-0.68,6213.888888888889
-1.235,-0.685,6216.666666666667
-1.245,-0.695,6219.444444444444
-1.235,-0.69,6222.222222222223
-1.235,-0.69,6225.0
-1.235,-0.7,6227.777777777777
-1.215,-0.68,6230.555555555556
-1.2,-0.68,6233.333333333333
-1.18,-0.675,6236.111111111111
-1.155,-0.665,6238.888888888889
-1.135,-0.685,6241.666666666667
-1.13,-0.685,6244.444444444444
-1.105,-0.695,6247.222222222223
-1.095,-0.705,6250.0
-1.08,-0.71,6252.777777777777
-1.065,-0.715,6255.555555555556
-1.04,-0.72,6258.333333333333
-1.03,-0.715,6261.111111111111
-1.0,-0.705,6263.888888888889
-0.975,-0.705,6266.666666666667
-0.95,-0.7,6269.444444444444
-0.93,-0.67,6272.222222222223
-0.915,-0.68,6275.0
-0.905,-0.68,6277.777777777777
-0.915,-0.69,6280.555555555556
-0.91,-0.69,6283.333333333333
-0.91,-0.68,6286.111111111111
-0.905,-0.68,6288.888888888889
-0.925,-0.67,6291.666666666667
-0.92,-0.665,6294.444444444444
-0.91,-0.655,6297.222222222223
-0.905,-0.655,6300.0
-0.9,-0.635,6302.777777777777
-0.895,-0.63,6305.555555555556
-0.905,-0.63,6308.333333333333
-0.905,-0.64,6311.111111111111
-0.915,-0.635,6313.888888888889
-0.925,-0.645,6316.666666666667
-0.925,-0.655,6319.444444444444
-0.935,-0.655,6322.222222222223
-0.945,-0.66,6325.0
-0.94,-0.655,6327.777777777777
-0.95,-0.635,6330.555555555556
-0.95,-0.635,6333.333333333333
-0.94,-0.63,6336.111111111111
-0.93,-0.615,6338.888888888889
-0.93,-0.615,6341.666666666667
-0.93,-0.63,6344.444444444444
-0.945,-0.63,6347.222222222223
-0.95,-0.65,6350.0
-0.95,-0.645,6352.777777777777
-0.96,-0.645,6355.555555555556
-0.97,-0.65,6358.333333333333
-0.97,-0.65,6361.111111111111
-0.965,-0.645,6363.888888888889
-0.955,-0.62,6366.666666666667
-0.955,-0.61,6369.444444444444
-0.965,-0.615,6372.222222222223
-0.96,-0.615,6375.0
-0.965,-0.625,6377.777777777777
-0.955,-0.625,6380.555555555556
-0.965,-0.63,6383.333333333333
-0.97,-0.645,6386.111111111111
-0.975,-0.645,6388.888888888889
-0.985,-0.645,6391.666666666667
-0.985,-0.645,6394.444444444444
-0.98,-0.64,6397.222222222223
-0.975,-0.635,6400.0
-0.97,-0.62,6402.777777777777
-0.965,-0.61,6405.555555555556
-0.955,-0.625,6408.333333333333
-0.965,-0.63,6411.111111111111
-0.965,-0.63,6413.888888888889
-0.97,-0.64,6416.666666666667
-0.99,-0.65,6419.444444444444
-0.99,-0.66,6422.222222222223
-0.985,-0.67,6425.0
-0.99,-0.66,6427.777777777777
-0.99,-0.65,6430.555555555556
-0.98,-0.64,6433.333333333333
-0.975,-0.635,6436.111111111111
-0.97,-0.635,6438.888888888889
-0.965,-0.635,6441.666666666667
-0.96,-0.63,6444.444444444444
-0.96,-0.63,6447.222222222223
-0.97,-0.64,6450.0
-0.96,-0.64,6452.777777777777
-0.95,-0.635,6455.555555555556
-0.96,-0.64,6458.333333333333
-0.925,-0.635,6461.111111111111
-0.905,-0.615,6463.888888888889
-0.895,-0.615,6466.666666666667
-0.875,-0.6,6469.444444444444
-0.865,-0.595,6472.222222222223
-0.85,-0.595,6475.0
-0.85,-0.595,6477.777777777777
-0.875,-0.605,6480.555555555556
-0.88,-0.615,6483.333333333333
-0.885,-0.62,6486.111111111111
-0.9,-0.63,6488.888888888889
-0.89,-0.635,6491.666666666667
-0.88,-0.645,6494.444444444444
-0.865,-0.625,6497.222222222223
-0.84,-0.635,6500.0
-0.835,-0.635,6502.777777777777
-0.825,-0.625,6505.555555555556
-0.83,-0.64,6508.333333333333
-0.86,-0.65,6511.111111111111
-0.875,-0.655,6513.888888888889
-0.905,-0.68,6516.666666666667
-0.915,-0.69,6519.444444444444
-0.92,-0.7,6522.222222222223
-0.93,-0.7,6525.0
-0.925,-0.7,6527.777777777777
-0.93,-0.695,6530.555555555556
-0.93,-0.68,6533.333333333333
-0.93,-0.67,6536.111111111111
-0.935,-0.645,6538.888888888889
-0.94,-0.635,6541.666666666667
-0.965,-0.625,6544.444444444444
-0.975,-0.62,6547.222222222223
-0.995,-0.615,6550.0
-1.0,-0.63,6552.777777777777
-1.005,-0.625,6555.555555555556
-1.015,-0.64,6558.333333333333
-1.015,-0.645,6561.111111111111
-1.015,-0.63,6563.888888888889
-1.01,-0.615,6566.666666666667
-1.005,-0.61,6569.444444444444
-0.99,-0.6,6572.222222222223
-0.98,-0.6,6575.0
-0.985,-0.605,6577.777777777777
-0.98,-0.615,6580.555555555556
-0.98,-0.62,6583.333333333333
-0.995,-0.63,6586.111111111111
-0.985,-0.635,6588.888888888889
-0.99,-0.63,6591.666666666667
-0.985,-0.625,6594.444444444444
-0.985,-0.615,6597.222222222223
-0.985,-0.61,6600.0
-0.985,-0.605,6602.777777777777
-0.975,-0.605,6605.555555555556
-0.975,-0.605,6608.333333333333
-0.97,-0.615,6611.111111111111
-0.97,-0.605,6613.888888888889
-0.97,-0.61,6616.666666666667
-0.98,-0.615,6619.444444444444
-0.955,-0.61,6622.222222222223
-0.92,-0.605,6625.0
-0.85,-0.615,6627.777777777777
-0.75,-0.62,6630.555555555556
-0.625,-0.63,6633.333333333333
-0.48,-0.65,6636.111111111111
-0.34,-0.67,6638.888888888889
-0.22,-0.69,6641.666666666667
-0.195,-0.69,6644.444444444444
-0.215,-0.725,6647.222222222223
-0.315,-0.735,6650.0
-0.46,-0.76,6652.777777777777
-0.605,-0.765,6655.555555555556
-0.775,-0.755,6658.333333333333
-0.95,-0.725,6661.111111111111
-1.1,-0.67,6663.888888888889
-1.22,-0.6,6666.666666666667
-1.25,-0.49,6669.444444444444
-1.26,-0.385,6672.222222222223
-1.23,-0.31,6675.0
-1.19,-0.29,6677.777777777777
-1.145,-0.325,6680.555555555556
-1.125,-0.395,6683.333333333333
-1.11,-0.48,6686.111111111111
-1.12,-0.54,6688.888888888889
-1.135,-0.59,6691.666666666667
-1.115,-0.605,6694.444444444444
-1.1,-0.61,6697.222222222223
-1.085,-0.6,6700.0
-1.065,-0.605,6702.777777777777
-1.05,-0.6,6705.555555555556
-1.05,-0.6,6708.333333333333
-1.05,-0.6,6711.111111111111
-1.055,-0.61,6713.888888888889
-1.06,-0.605,6716.666666666667
-1.075,-0.615,6719.444444444444
-1.075,-0.63,6722.222222222223
-1.09,-0.625,6725.0
-1.085,-0.62,6727.777777777777
-1.08,-0.61,6730.555555555556
-1.06,-0.61,6733.333333333333
-1.06,-0.605,6736.111111111111
-1.05,-0.595,6738.888888888889
-1.055,-0.59,6741.666666666667
-1.05,-0.595,6744.444444444444
-1.055,-0.595,6747.222222222223
-1.055,-0.61,6750.0
-1.07,-0.605,6752.777777777777
-1.085,-0.625,6755.555555555556
-1.08,-0.62,6758.333333333333
-1.085,-0.625,6761.111111111111
-1.07,-0.615,6763.888888888889
-1.07,-0.61,6766.666666666667
-1.055,-0.605,6769.444444444444
-1.055,-0.59,6772.222222222223
-1.05,-0.605,6775.0
-1.06,-0.61,6777.777777777777
-1.06,-0.615,6780.555555555556
-1.065,-0.63,6783.333333333333
-1.085,-0.625,6786.111111111111
-1.09,-0.63,6788.888888888889
-1.09,-0.635,6791.666666666667
-1.085,-0.63,6794.444444444444
-1.085,-0.62,6797.222222222223
-1.08,-0.62,6800.0
-1.09,-0.625,6802.777777777777
-1.08,-0.605,6805.555555555556
-1.07,-0.605,6808.333333333333
-1.09,-0.595,6811.111111111111
-1.095,-0.62,6813.888888888889
-1.105,-0.61,6816.666666666667
-1.115,-0.62,6819.444444444444
-1.125,-0.615,6822.222222222223
-1.125,-0.625,6825.0
-1.13,-0.64,6827.777777777777
-1.12,-0.62,6830.555555555556
-1.125,-0.615,6833.333333333333
-1.115,-0.615,6836.111111111111
-1.115,-0.605,6838.888888888889
-1.115,-0.605,6841.666666666667
-1.12,-0.62,6844.444444444444
-1.12,-0.62,6847.222222222223
-1.13,-0.625,6850.0
-1.13,-0.635,6852.777777777777
-1.14,-0.64,6855.555555555556
-1.15,-0.655,6858.333333333333
-1.15,-0.65,6861.111111111111
-1.145,-0.65,6863.888888888889
-1.135,-0.64,6866.666666666667
-1.14,-0.625,6869.444444444444
-1.14,-0.635,6872.222222222223
-1.13,-0.635,6875.0
-1.12,-0.64,6877.777777777777
-1.13,-0.645,6880.555555555556
-1.125,-0.66,6883.333333333333
-1.13,-0.65,6886.111111111111
-1.13,-0.67,6888.888888888889
-1.135,-0.67,6891.666666666667
-1.14,-0.66,6894.444444444444
-1.13,-0.66,6897.222222222223
-1.115,-0.64,6900.0
-1.115,-0.645,6902.777777777777
-1.08,-0.645,6905.555555555556
-1.075,-0.64,6908.333333333333
-1.08,-0.645,6911.111111111111
-1.07,-0.64,6913.888888888889
-1.07,-0.655,6916.666666666667
-1.045,-0.66,6919.444444444444
-1.045,-0.655,6922.222222222223
-1.035,-0.68,6925.0
-1.02,-0.66,6927.777777777777
-0.995,-0.655,6930.555555555556
-0.97,-0.65,6933.333333333333
-0.95,-0.66,6936.111111111111
-0.92,-0.66,6938.888888888889
-0.895,-0.65,6941.666666666667
-0.875,-0.66,6944.444444444444
-0.865,-0.665,6947.222222222223
-0.84,-0.675,6950.0
-0.855,-0.69,6952.777777777777
-0.845,-0.685,6955.555555555556
-0.835,-0.675,6958.333333333333
-0.82,-0.675,6961.111111111111
-0.81,-0.66,6963.888888888889
-0.79,-0.645,6966.666666666667
-0.78,-0.635,6969.444444444444
-0.77,-0.635,6972.222222222223
-0.77,-0.62,6975.0
-0.775,-0.635,6977.777777777777
-0.79,-0.63,6980.555555555556
-0.79,-0.625,6983.333333333333
-0.805,-0.625,6986.111111111111
-0.81,-0.63,6988.888888888889
-0.805,-0.62,6991.666666666667
-0.81,-0.61,6994.444444444444
-0.81,-0.61,6997.222222222223
-0.8,-0.585,7000.0
-0.805,-0.58,7002.777777777777
-0.79,-0.585,7005.555555555556
-0.785,-0.585,7008.333333333333
-0.805,-0.58,7011.111111111111
-0.815,-0.595,7013.888888888889
-0.825,-0.6,7016.666666666667
-0.83,-0.615,7019.444444444444
-0.83,-0.625,7022.222222222223
-0.84,-0.635,7025.0
-0.85,-0.63,7027.777777777777
-0.84,-0.605,7030.555555555556
-0.845,-0.61,7033.333333333333
-0.845,-0.595,7036.111111111111
-0.845,-0.575,7038.888888888889
-0.835,-0.58,7041.666666666667
-0.845,-0.585,7044.444444444444
-0.845,-0.595,7047.222222222223
-0.85,-0.615,7050.0
-0.86,-0.62,7052.777777777777
-0.87,-0.615,7055.555555555556
-0.87,-0.62,7058.333333333333
-0.88,-0.62,7061.111111111111
-0.87,-0.625,7063.888888888889
-0.86,-0.62,7066.666666666667
-0.865,-0.615,7069.444444444444
-0.855,-0.605,7072.222222222223
-0.855,-0.6,7075.0
-0.855,-0.61,7077.777777777777
-0.865,-0.605,7080.555555555556
-0.87,-0.61,7083.333333333333
-0.88,-0.615,7086.111111111111
-0.875,-0.635,7088.888888888889
-0.885,-0.625,7091.666666666667
-0.885,-0.63,7094.444444444444
-0.87,-0.62,7097.222222222223
-0.87,-0.615,7100.0
-0.865,-0.61,7102.777777777777
-0.85,-0.61,7105.555555555556
-0.835,-0.595,7108.333333333333
-0.845,-0.61,7111.111111111111
-0.845,-0.615,7113.888888888889
-0.84,-0.62,7116.666666666667
-0.835,-0.625,7119.444444444444
-0.84,-0.625,7122.222222222223
-0.83,-0.635,7125.0
-0.82,-0.625,7127.777777777777
-0.82,-0.605,7130.555555555556
-0.81,-0.6,7133.333333333333
-0.8,-0.595,7136.111111111111
-0.785,-0.57,7138.888888888889
-0.785,-0.58,7141.666666666667
-0.795,-0.59,7144.444444444444
-0.79,-0.6,7147.222222222223
-0.785,-0.605,7150.0
-0.785,-0.62,7152.777777777777
-0.775,-0.63,7155.555555555556
-0.765,-0.625,7158.333333333333
-0.745,-0.635,7161.111111111111
-0.74,-0.625,7163.888888888889
-0.735,-0.615,7166.666666666667
-0.75,-0.62,7169.444444444444
-0.75,-0.62,7172.222222222223
-0.765,-0.63,7175.0
-0.775,-0.63,7177.777777777777
-0.785,-0.65,7180.555555555556
-0.79,-0.65,7183.333333333333
-0.81,-0.67,7186.111111111111
-0.81,-0.66,7188.888888888889
-0.82,-0.67,7191.666666666667
-0.84,-0.66,7194.444444444444
-0.85,-0.635,7197.222222222223
-0.855,-0.625,7200.0
-0.865,-0.615,7202.777777777777
-0.875,-0.605,7205.555555555556
-0.88,-0.59,7208.333333333333
-0.88,-0.6,7211.111111111111
-0.9,-0.595,7213.888888888889
-0.9,-0.625,7216.666666666667
-0.915,-0.62,7219.444444444444
-0.93,-0.63,7222.222222222223
-0.925,-0.645,7225.0
-0.935,-0.625,7227.777777777777
-0.93,-0.625,7230.555555555556
-0.925,-0.625,7233.333333333333
-0.925,-0.62,7236.111111111111
-0.915,-0.605,7238.888888888889
-0.915,-0.61,7241.666666666667
-0.92,-0.61,7244.444444444444
-0.91,-0.615,7247.222222222223
-0.915,-0.62,7250.0
-0.93,-0.62,7252.777777777777
-0.935,-0.625,7255.555555555556
-0.945,-0.635,7258.333333333333
-0.93,-0.63,7261.111111111111
-0.93,-0.615,7263.888888888889
-0.915,-0.61,7266.666666666667
-0.895,-0.6,7269.444444444444
-0.895,-0.585,7272.222222222223
-0.87,-0.575,7275.0
-0.86,-0.59,7277.777777777777
-0.85,-0.585,7280.555555555556
-0.785,-0.605,7283.333333333333
-0.73,-0.625,7286.111111111111
-0.66,-0.645,7288.888888888889
-0.555,-0.665,7291.666666666667
-0.435,-0.67,7294.444444444444
-0.325,-0.685,7297.222222222223
-0.215,-0.69,7300.0
-0.15,-0.695,7302.777777777777
-0.135,-0.7,7305.555555555556
-0.165,-0.705,7308.333333333333
-0.265,-0.72,7311.111111111111
-0.39,-0.72,7313.888888888889
-0.52,-0.73,7316.666666666667
-0.63,-0.715,7319.444444444444
-0.775,-0.725,7322.222222222223
-0.93,-0.685,7325.0
-1.075,-0.62,7327.777777777777
-1.165,-0.535,7330.555555555556
-1.185,-0.42,7333.333333333333
-1.155,-0.295,7336.111111111111
-1.13,-0.195,7338.888888888889
-1.105,-0.145,7341.666666666667
-1.115,-0.185,7344.444444444444
-1.125,-0.28,7347.222222222223
-1.125,-0.39,7350.0
-1.115,-0.48,7352.777777777777
-1.1,-0.55,7355.555555555556
-1.07,-0.6,7358.333333333333
-1.05,-0.625,7361.111111111111
-1.025,-0.61,7363.888888888889
-1.0,-0.615,7366.666666666667
-0.985,-0.6,7369.444444444444
-0.99,-0.595,7372.222222222223
-0.99,-0.61,7375.0
-0.995,-0.615,7377.777777777777
-1.0,-0.62,7380.555555555556
-1.01,-0.62,7383.333333333333
-1.025,-0.635,7386.111111111111
-1.035,-0.635,7388.888888888889
-1.03,-0.65,7391.666666666667
-1.03,-0.64,7394.444444444444
-1.04,-0.635,7397.222222222223
-1.03,-0.625,7400.0
-1.02,-0.635,7402.777777777777
-1.015,-0.62,7405.555555555556
-1.015,-0.62,7408.333333333333
-1.005,-0.64,7411.111111111111
-1.01,-0.64,7413.888888888889
-1.025,-0.65,7416.666666666667
-1.03,-0.655,7419.444444444444
-1.035,-0.66,7422.222222222223
-1.025,-0.66,7425.0
-1.02,-0.64,7427.777777777777
-1.025,-0.64,7430.555555555556
-1.03,-0.635,7433.333333333333
-1.035,-0.625,7436.111111111111
-1.025,-0.61,7438.888888888889
-1.015,-0.625,7441.666666666667
-1.035,-0.625,7444.444444444444
-1.035,-0.645,7447.222222222223
-1.045,-0.65,7450.0
-1.05,-0.65,7452.777777777777
-1.065,-0.66,7455.555555555556
-1.07,-0.66,7458.333333333333
-1.07,-0.65,7461.111111111111
-1.065,-0.65,7463.888888888889
-1.065,-0.65,7466.666666666667
-1.06,-0.645,7469.444444444444
-1.05,-0.635,7472.222222222223
-1.045,-0.645,7475.0
-1.045,-0.645,7477.777777777777
-1.055,-0.655,7480.555555555556
-1.06,-0.665,7483.333333333333
-1.055,-0.675,7486.111111111111
-1.075,-0.67,7488.888888888889
-1.085,-0.67,7491.666666666667
-1.075,-0.67,7494.444444444444
-1.06,-0.67,7497.222222222223
-1.06,-0.67,7500.0
-1.065,-0.665,7502.777777777777
-1.06,-0.665,7505.555555555556
-1.05,-0.66,7508.333333333333
-1.075,-0.675,7511.111111111111
-1.07,-0.67,7513.888888888889
-1.08,-0.67,7516.666666666667
-1.085,-0.665,7519.444444444444
-1.095,-0.67,7522.222222222223
-1.095,-0.675,7525.0
-1.11,-0.685,7527.777777777777
-1.115,-0.685,7530.555555555556
-1.11,-0.68,7533.333333333333
-1.11,-0.665,7536.111111111111
-1.1,-0.665,7538.888888888889
-1.075,-0.67,7541.666666666667
-1.075,-0.665,7544.444444444444
-1.08,-0.675,7547.222222222223
-1.065,-0.685,7550.0
-1.08,-0.705,7552.777777777777
-1.075,-0.715,7555.555555555556
-1.07,-0.71,7558.333333333333
-1.07,-0.71,7561.111111111111
-1.065,-0.7,7563.888888888889
-1.05,-0.69,7566.666666666667
-1.045,-0.685,7569.444444444444
-1.03,-0.67,7572.222222222223
-1.015,-0.675,7575.0
-1.01,-0.67,7577.777777777777
-1.03,-0.685,7580.555555555556
-1.025,-0.69,7583.333333333333
-1.015,-0.7,7586.111111111111
-0.995,-0.715,7588.888888888889
-0.985,-0.7,7591.666666666667
-0.98,-0.705,7594.444444444444
-0.95,-0.705,7597.222222222223
-0.93,-0.7,7600.0
-0.905,-0.705,7602.777777777777
-0.88,-0.69,7605.555555555556
-0.84,-0.695,7608.333333333333
-0.835,-0.69,7611.111111111111
-0.83,-0.69,7613.888888888889
-0.83,-0.7,7616.666666666667
-0.83,-0.7,7619.444444444444
-0.825,-0.705,7622.222222222223
-0.815,-0.695,7625.0
-0.8,-0.685,7627.777777777777
-0.78,-0.68,7630.555555555556
-0.77,-0.67,7633.333333333333
-0.755,-0.65,7636.111111111111
-0.74,-0.66,7638.888888888889
-0.73,-0.65,7641.666666666667
-0.725,-0.645,7644.444444444444
-0.73,-0.64,7647.222222222223
-0.74,-0.64,7650.0
-0.755,-0.645,7652.777777777777
-0.76,-0.645,7655.555555555556
-0.775,-0.65,7658.333333333333
-0.775,-0.64,7661.111111111111
-0.78,-0.63,7663.888888888889
-0.775,-0.62,7666.666666666667
-0.775,-0.615,7669.444444444444
-0.79,-0.61,7672.222222222223
-0.785,-0.605,7675.0
-0.785,-0.61,7677.777777777777
-0.795,-0.62,7680.555555555556
-0.81,-0.615,7683.333333333333
-0.805,-0.625,7686.111111111111
-0.81,-0.64,7688.888888888889
-0.81,-0.64,7691.666666666667
-0.815,-0.635,7694.444444444444
-0.825,-0.63,7697.222222222223
-0.825,-0.62,7700.0
-0.825,-0.61,7702.777777777777
-0.82,-0.6,7705.555555555556
-0.82,-0.6,7708.333333333333
-0.83,-0.6,7711.111111111111
-0.82,-0.61,7713.888888888889
-0.815,-0.625,7716.666666666667
-0.81,-0.625,7719.444444444444
-0.82,-0.64,7722.222222222223
-0.83,-0.645,7725.0
-0.835,-0.64,7727.777777777777
-0.84,-0.62,7730.555555555556
-0.84,-0.62,7733.333333333333
-0.835,-0.625,7736.111111111111
-0.82,-0.61,7738.888888888889
-0.82,-0.61,7741.666666666667
-0.83,-0.605,7744.444444444444
-0.83,-0.61,7747.222222222223
-0.835,-0.625,7750.0
-0.845,-0.63,7752.777777777777
-0.845,-0.64,7755.555555555556
-0.85,-0.64,7758.333333333333
-0.85,-0.64,7761.111111111111
-0.855,-0.635,7763.888888888889
-0.85,-0.635,7766.666666666667
-0.84,-0.62,7769.444444444444
-0.835,-0.62,7772.222222222223
-0.825,-0.62,7775.0
-0.83,-0.625,7777.777777777777
-0.84,-0.625,7780.555555555556
-0.85,-0.63,7783.333333333333
-0.865,-0.635,7786.111111111111
-0.885,-0.635,7788.888888888889
-0.865,-0.645,7791.666666666667
-0.855,-0.64,7794.444444444444
-0.855,-0.64,7797.222222222223
-0.85,-0.62,7800.0
-0.84,-0.61,7802.777777777777
-0.84,-0.61,7805.555555555556
-0.825,-0.6,7808.333333333333
-0.815,-0.595,7811.111111111111
-0.805,-0.61,7813.888888888889
-0.805,-0.61,7816.666666666667
-0.795,-0.615,7819.444444444444
-0.805,-0.615,7822.222222222223
-0.805,-0.61,7825.0
-0.81,-0.595,7827.777777777777
-0.825,-0.59,7830.555555555556
-0.825,-0.585,7833.333333333333
-0.82,-0.58,7836.111111111111
-0.82,-0.59,7838.888888888889
-0.785,-0.57,7841.666666666667
-0.775,-0.59,7844.444444444444
-0.765,-0.59,7847.222222222223
-0.745,-0.595,7850.0
-0.755,-0.615,7852.777777777777
-0.75,-0.63,7855.555555555556
-0.77,-0.64,7858.333333333333
-0.78,-0.645,7861.111111111111
-0.78,-0.645,7863.888888888889
-0.785,-0.645,7866.666666666667
-0.78,-0.635,7869.444444444444
-0.795,-0.63,7872.222222222223
-0.795,-0.64,7875.0
-0.805,-0.65,7877.777777777777
-0.82,-0.645,7880.555555555556
-0.83,-0.655,7883.333333333333
-0.84,-0.655,7886.111111111111
-0.86,-0.63,7888.888888888889
-0.88,-0.635,7891.666666666667
-0.895,-0.63,7894.444444444444
-0.905,-0.61,7897.222222222223
-0.915,-0.62,7900.0
-0.905,-0.605,7902.777777777777
-0.91,-0.605,7905.555555555556
-0.915,-0.61,7908.333333333333
-0.915,-0.62,7911.111111111111
-0.93,-0.615,7913.888888888889
-0.935,-0.62,7916.666666666667
-0.925,-0.63,7919.444444444444
-0.945,-0.63,7922.222222222223
-0.945,-0.635,7925.0
-0.94,-0.62,7927.777777777777
-0.945,-0.61,7930.555555555556
-0.925,-0.605,7933.333333333333
-0.92,-0.615,7936.111111111111
-0.92,-0.6,7938.888888888889
-0.905,-0.605,7941.666666666667
-0.91,-0.61,7944.444444444444
-0.915,-0.63,7947.222222222223
-0.92,-0.625,7950.0
-0.915,-0.63,7952.777777777777
-0.92,-0.64,7955.555555555556
-0.915,-0.63,7958.333333333333
-0.91,-0.625,7961.111111111111
-0.905,-0.62,7963.888888888889
-0.895,-0.605,7966.666666666667
-0.89,-0.59,7969.444444444444
-0.88,-0.595,7972.222222222223
-0.845,-0.585,7975.0
-0.815,-0.585,7977.777777777777
-0.765,-0.595,7980.555555555556
-0.68,-0.605,7983.333333333333
-0.575,-0.63,7986.111111111111
-0.45,-0.65,7988.888888888889
-0.31,-0.68,7991.666666666667
-0.18,-0.69,7994.444444444444
-0.085,-0.705,7997.222222222223
-0.045,-0.72,8000.0
-0.065,-0.72,8002.777777777777
-0.16,-0.735,8005.555555555556
-0.285,-0.73,8008.333333333333
-0.435,-0.735,8011.111111111111
-0.585,-0.72,8013.888888888889
-0.745,-0.705,8016.666666666667
-0.925,-0.675,8019.444444444444
-1.105,-0.63,8022.222222222223
-1.235,-0.575,8025.0
-1.295,-0.46,8027.777777777777
-1.27,-0.345,8030.555555555556
-1.215,-0.24,8033.333333333333
-1.16,-0.18,8036.111111111111
-1.155,-0.185,8038.888888888889
-1.15,-0.23,8041.666666666667
-1.17,-0.34,8044.444444444444
-1.15,-0.43,8047.222222222223
-1.125,-0.52,8050.0
-1.1,-0.57,8052.777777777777
-1.07,-0.605,8055.555555555556
-1.04,-0.625,8058.333333333333
-1.025,-0.635,8061.111111111111
-1.025,-0.625,8063.888888888889
-1.015,-0.62,8066.666666666667
-1.015,-0.625,8069.444444444444
-1.01,-0.6,8072.222222222223
-1.005,-0.6,8075.0
-1.015,-0.59,8077.777777777777
-1.015,-0.6,8080.555555555556
-1.005,-0.63,8083.333333333333
-1.015,-0.635,8086.111111111111
-1.025,-0.635,8088.888888888889
-1.025,-0.65,8091.666666666667
-1.03,-0.64,8094.444444444444
-1.035,-0.64,8097.222222222223
-1.02,-0.62,8100.0
-1.01,-0.615,8102.777777777777
-1.015,-0.615,8105.555555555556
-1.01,-0.61,8108.333333333333
-1.015,-0.62,8111.111111111111
-1.005,-0.63,8113.888888888889
-1.015,-0.635,8116.666666666667
-1.025,-0.645,8119.444444444444
-1.03,-0.66,8122.222222222223
-1.03,-0.67,8125.0
-1.025,-0.66,8127.777777777777
-1.035,-0.655,8130.555555555556
-1.03,-0.645,8133.333333333333
-1.025,-0.64,8136.111111111111
-1.035,-0.63,8138.888888888889
-1.025,-0.64,8141.666666666667
-1.025,-0.64,8144.444444444444
-1.03,-0.64,8147.222222222223
-1.05,-0.645,8150.0
-1.045,-0.645,8152.777777777777
-1.06,-0.665,8155.555555555556
-1.07,-0.655,8158.333333333333
-1.06,-0.655,8161.111111111111
-1.065,-0.645,8163.888888888889
-1.055,-0.635,8166.666666666667
-1.06,-0.645,8169.444444444444
-1.045,-0.635,8172.222222222223
-1.025,-0.635,8175.0
-1.035,-0.64,8177.777777777777
-1.035,-0.635,8180.555555555556
-1.045,-0.645,8183.333333333333
-1.05,-0.66,8186.111111111111
-1.065,-0.66,8188.888888888889
-1.075,-0.67,8191.666666666667
-1.09,-0.665,8194.444444444445
-1.095,-0.665,8197.222222222223
-1.095,-0.655,8200.0
-1.085,-0.655,8202.777777777777
-1.085,-0.65,8205.555555555555
-1.065,-0.65,8208.333333333334
-1.075,-0.655,8211.111111111111
-1.08,-0.665,8213.888888888889
-1.09,-0.665,8216.666666666666
-1.09,-0.68,8219.444444444445
-1.095,-0.695,8222.222222222223
-1.095,-0.695,8225.0
-1.1,-0.69,8227.777777777777
-1.09,-0.69,8230.555555555555
-1.1,-0.69,8233.333333333334
-1.07,-0.675,8236.111111111111
-1.07,-0.675,8238.888888888889
-1.07,-0.68,8241.666666666666
-1.065,-0.665,8244.444444444445
-1.065,-0.68,8247.222222222223
-1.07,-0.675,8250.0
-1.075,-0.685,8252.777777777777
-1.075,-0.695,8255.555555555555
-1.07,-0.695,8258.333333333334
-1.06,-0.695,8261.111111111111
-1.05,-0.685,8263.888888888889
-1.035,-0.685,8266.666666666666
-1.015,-0.675,8269.444444444445
-1.01,-0.67,8272.222222222223
-0.985,-0.68,8275.0
-0.985,-0.675,8277.777777777777
-0.965,-0.675,8280.555555555555
-0.95,-0.705,8283.333333333334
-0.95,-0.71,8286.111111111111
-0.93,-0.71,8288.888888888889
-0.9,-0.71,8291.666666666666
-0.895,-0.7,8294.444444444445
-0.865,-0.705,8297.222222222223
-0.84,-0.685,8300.0
-0.815,-0.68,8302.777777777777
-0.785,-0.675,8305.555555555555
-0.76,-0.68,8308.333333333334
-0.745,-0.66,8311.111111111111
-0.755,-0.665,8313.888888888889
-0.745,-0.67,8316.666666666666
-0.735,-0.675,8319.444444444445
-0.73,-0.675,8322.222222222223
-0.72,-0.675,8325.0
-0.715,-0.665,8327.777777777777
-0.71,-0.645,8330.555555555555
-0.705,-0.625,8333.333333333334
-0.695,-0.62,8336.111111111111
-0.705,-0.6,8338.888888888889
-0.7,-0.595,8341.666666666666
-0.715,-0.615,8344.444444444445
-0.705,-0.595,8347.222222222223
-0.71,-0.61,8350.0
-0.715,-0.61,8352.777777777777
-0.725,-0.62,8355.555555555555
-0.72,-0.63,8358.333333333334
-0.73,-0.62,8361.111111111111
-0.74,-0.605,8363.888888888889
-0.725,-0.585,8366.666666666666
-0.725,-0.59,8369.444444444445
-0.73,-0.585,8372.222222222223
-0.71,-0.57,8375.0
-0.72,-0.595,8377.777777777777
-0.72,-0.595,8380.555555555555
-0.72,-0.595,8383.333333333334
-0.73,-0.595,8386.111111111111
-0.735,-0.605,8388.888888888889
-0.745,-0.625,8391.666666666666
-0.755,-0.62,8394.444444444445
-0.75,-0.63,8397.222222222223
-0.74,-0.61,8400.0
-0.74,-0.605,8402.777777777777
-0.74,-0.595,8405.555555555555
-0.74,-0.585,8408.333333333334
-0.75,-0.6,8411.111111111111
-0.735,-0.605,8413.888888888889
-0.73,-0.615,8416.666666666666
-0.75,-0.615,8419.444444444445
-0.765,-0.63,8422.222222222223
-0.76,-0.63,8425.0
-0.76,-0.625,8427.777777777777
-0.76,-0.62,8430.555555555555
-0.75,-0.62,8433.333333333334
-0.75,-0.61,8436.111111111111
-0.745,-0.61,8438.888888888889
-0.735,-0.59,8441.666666666666
-0.74,-0.61,8444.444444444445
-0.73,-0.605,8447.222222222223
-0.745,-0.625,8450.0
-0.74,-0.62,8452.777777777777
-0.75,-0.635,8455.555555555555
-0.745,-0.625,8458.333333333334
-0.75,-0.62,8461.111111111111
-0.755,-0.62,8463.888888888889
-0.75,-0.6,8466.666666666666
-0.735,-0.605,8469.444444444445
-0.725,-0.605,8472.222222222223
-0.72,-0.59,8475.0
-0.705,-0.59,8477.777777777777
-0.72,-0.59,8480.555555555555
-0.725,-0.61,8483.333333333334
-0.735,-0.61,8486.111111111111
-0.735,-0.625,8488.888888888889
-0.74,-0.635,8491.666666666666
-0.735,-0.62,8494.444444444445
-0.715,-0.61,8497.222222222223
-0.7,-0.615,8500.0
-0.68,-0.605,8502.777777777777
-0.68,-0.585,8505.555555555555
-0.67,-0.57,8508.333333333334
-0.67,-0.57,8511.111111111111
-0.665,-0.555,8513.888888888889
-0.68,-0.575,8516.666666666666
-0.69,-0.58,8519.444444444445
-0.68,-0.59,8522.222222222223
-0.685,-0.6,8525.0
-0.675,-0.6,8527.777777777777
-0.655,-0.6,8530.555555555555
-0.635,-0.6,8533.333333333334
-0.615,-0.59,8536.111111111111
-0.605,-0.59,8538.888888888889
-0.595,-0.595,8541.666666666666
-0.6,-0.605,8544.444444444445
-0.605,-0.6,8547.222222222223
-0.62,-0.605,8550.0
-0.635,-0.625,8552.777777777777
-0.655,-0.655,8555.555555555555
-0.675,-0.64,8558.333333333334
-0.675,-0.64,8561.111111111111
-0.695,-0.645,8563.888888888889
-0.685,-0.635,8566.666666666666
-0.68,-0.63,8569.444444444445
-0.685,-0.615,8572.222222222223
-0.685,-0.61,8575.0
-0.7,-0.61,8577.777777777777
-0.72,-0.62,8580.555555555555
-0.74,-0.61,8583.333333333334
-0.755,-0.615,8586.111111111111
-0.76,-0.62,8588.888888888889
-0.775,-0.62,8591.666666666666
-0.795,-0.61,8594.444444444445
-0.79,-0.61,8597.222222222223
-0.785,-0.61,8600.0
-0.775,-0.61,8602.777777777777
-0.78,-0.605,8605.555555555555
-0.77,-0.585,8608.333333333334
-0.775,-0.59,8611.111111111111
-0.775,-0.6,8613.888888888889
-0.78,-0.59,8616.666666666666
-0.79,-0.605,8619.444444444445
-0.79,-0.61,8622.222222222223
-0.795,-0.615,8625.0
-0.805,-0.62,8627.777777777777
-0.8,-0.61,8630.555555555555
-0.795,-0.585,8633.333333333334
-0.775,-0.59,8636.111111111111
-0.775,-0.58,8638.888888888889
-0.76,-0.575,8641.666666666666
-0.77,-0.59,8644.444444444445
-0.77,-0.575,8647.222222222223
-0.77,-0.58,8650.0
-0.775,-0.585,8652.777777777777
-0.775,-0.6,8655.555555555555
-0.79,-0.595,8658.333333333334
-0.78,-0.595,8661.111111111111
-0.775,-0.59,8663.888888888889
-0.745,-0.57,8666.666666666666
-0.675,-0.565,8669.444444444445
-0.605,-0.57,8672.222222222223
-0.505,-0.585,8675.0
-0.37,-0.605,8677.777777777777
-0.225,-0.635,8680.555555555555
-0.075,-0.66,8683.333333333334
0.045,-0.685,8686.111111111111
0.095,-0.71,8688.888888888889
0.05,-0.725,8691.666666666666
-0.07,-0.73,8694.444444444445
-0.22,-0.715,8697.222222222223
-0.395,-0.7,8700.0
-0.6,-0.675,8702.777777777777
-0.8,-0.62,8705.555555555555
-0.965,-0.55,8708.333333333334
-1.06,-0.47,8711.111111111111
-1.08,-0.37,8713.888888888889
-1.06,-0.26,8716.666666666666
-1.045,-0.205,8719.444444444445
-1.025,-0.225,8722.222222222223
-1.01,-0.295,8725.0
-1.0,-0.385,8727.777777777777
-0.97,-0.465,8730.555555555555
-0.94,-0.525,8733.333333333334
-0.915,-0.54,8736.111111111111
-0.9,-0.56,8738.888888888889
-0.875,-0.565,8741.666666666666
-0.86,-0.565,8744.444444444445
-0.87,-0.585,8747.222222222223
-0.87,-0.59,8750.0
-0.865,-0.59,8752.777777777777
-0.86,-0.595,8755.555555555555
-0.88,-0.61,8758.333333333334
-0.875,-0.61,8761.111111111111
-0.885,-0.595,8763.888888888889
-0.885,-0.59,8766.666666666666
-0.875,-0.585,8769.444444444445
-0.86,-0.58,8772.222222222223
-0.84,-0.595,8775.0
-0.85,-0.6,8777.777777777777
-0.855,-0.595,8780.555555555555
-0.855,-0.6,8783.333333333334
-0.865,-0.605,8786.111111111111
-0.885,-0.605,8788.888888888889
-0.875,-0.61,8791.666666666666
-0.885,-0.615,8794.444444444445
-0.875,-0.605,8797.222222222223
-0.87,-0.6,8800.0
-0.865,-0.59,8802.777777777777
-0.86,-0.585,8805.555555555555
-0.865,-0.585,8808.333333333334
-0.87,-0.585,8811.111111111111
-0.87,-0.585,8813.888888888889
-0.87,-0.595,8816.666666666666
-0.88,-0.605,8819.444444444445
-0.885,-0.615,8822.222222222223
-0.89,-0.605,8825.0
-0.885,-0.62,8827.777777777777
-0.885,-0.615,8830.555555555555
-0.895,-0.6,8833.333333333334
-0.89,-0.6,8836.111111111111
-0.89,-0.59,8838.888888888889
-0.885,-0.585,8841.666666666666
-0.88,-0.6,8844.444444444445
-0.885,-0.605,8847.222222222223
-0.89,-0.625,8850.0
-0.9,-0.63,8852.777777777777
-0.905,-0.635,8855.555555555555
-0.91,-0.64,8858.333333333334
-0.92,-0.63,8861.111111111111
-0.92,-0.63,8863.888888888889
-0.92,-0.615,8866.666666666666
-0.93,-0.61,8869.444444444445
-0.915,-0.615,8872.222222222223
-0.905,-0.605,8875.0
-0.905,-0.62,8877.777777777777
-0.91,-0.615,8880.555555555555
-0.905,-0.625,8883.333333333334
-0.925,-0.625,8886.111111111111
-0.94,-0.635,8888.888888888889
-0.94,-0.635,8891.666666666666
-0.95,-0.64,8894.444444444445
-0.95,-0.635,8897.222222222223
-0.945,-0.625,8900.0
-0.94,-0.625,8902.777777777777
-0.94,-0.62,8905.555555555555
-0.95,-0.62,8908.333333333334
-0.94,-0.615,8911.111111111111
-0.96,-0.615,8913.888888888889
-0.96,-0.625,8916.666666666666
-0.965,-0.64,8919.444444444445
-0.975,-0.65,8922.222222222223
-0.965,-0.66,8925.0
-0.975,-0.665,8927.777777777777
-0.97,-0.645,8930.555555555555
-0.965,-0.635,8933.333333333334
-0.945,-0.645,8936.111111111111
-0.935,-0.635,8938.888888888889
-0.935,-0.64,8941.666666666666
-0.925,-0.635,8944.444444444445
-0.925,-0.645,8947.222222222223
-0.925,-0.665,8950.0
-0.935,-0.66,8952.777777777777
-0.935,-0.67,8955.555555555555
-0.945,-0.675,8958.333333333334
-0.94,-0.665,8961.111111111111
-0.925,-0.655,8963.888888888889
-0.91,-0.66,8966.666666666666
-0.865,-0.655,8969.444444444445
-0.85,-0.64,8972.222222222223
-0.83,-0.62,8975.0
-0.815,-0.625,8977.777777777777
-0.795,-0.63,8980.555555555555
-0.775,-0.65,8983.333333333334
-0.765,-0.655,8986.111111111111
-0.74,-0.665,8988.888888888889
-0.73,-0.67,8991.666666666666
-0.705,-0.675,8994.444444444445
-0.69,-0.66,8997.222222222223
-0.66,-0.64,9000.0
-0.64,-0.645,9002.777777777777
-0.61,-0.625,9005.555555555555
-0.6,-0.615,9008.333333333334
-0.59,-0.63,9011.111111111111
-0.585,-0.615,9013.888888888889
-0.575,-0.625,9016.666666666666
-0.58,-0.63,9019.444444444445
-0.57,-0.625,9022.222222222223
-0.58,-0.64,9025.0
-0.585,-0.62,9027.777777777777
-0.58,-0.625,9030.555555555555
-0.575,-0.61,9033.333333333334
-0.565,-0.585,9036.111111111111
-0.56,-0.585,9038.888888888889
-0.555,-0.57,9041.666666666666
-0.56,-0.58,9044.444444444445
-0.575,-0.57,9047.222222222223
-0.585,-0.58,9050.0
-0.59,-0.585,9052.777777777777
-0.59,-0.585,9055.555555555555
-0.6,-0.585,9058.333333333334
-0.62,-0.575,9061.111111111111
-0.605,-0.57,9063.888888888889
-0.6,-0.545,9066.666666666666
-0.605,-0.555,9069.444444444445
-0.595,-0.54,9072.222222222223
-0.595,-0.54,9075.0
-0.595,-0.545,9077.777777777777
-0.6,-0.54,9080.555555555555
-0.6,-0.56,9083.333333333334
-0.605,-0.565,9086.111111111111
-0.615,-0.57,9088.888888888889
-0.625,-0.57,9091.666666666666
-0.62,-0.575,9094.444444444445
-0.615,-0.565,9097.222222222223
-0.61,-0.56,9100.0
-0.61,-0.56,9102.777777777777
-0.62,-0.565,9105.555555555555
-0.6,-0.55,9108.333333333334
-0.605,-0.565,9111.111111111111
-0.62,-0.56,9113.888888888889
-0.625,-0.57,9116.666666666666
-0.63,-0.585,9119.444444444445
-0.65,-0.585,9122.222222222223
-0.645,-0.59,9125.0
-0.66,-0.595,9127.777777777777
-0.645,-0.585,9130.555555555555
-0.645,-0.585,9133.333333333334
-0.63,-0.58,9136.111111111111
-0.63,-0.57,9138.888888888889
-0.61,-0.575,9141.666666666666
-0.62,-0.57,9144.444444444445
-0.635,-0.565,9147.222222222223
-0.635,-0.57,9150.0
-0.65,-0.58,9152.777777777777
-0.645,-0.585,9155.555555555555
-0.66,-0.595,9158.333333333334
-0.65,-0.595,9161.111111111111
-0.635,-0.59,9163.888888888889
-0.64,-0.59,9166.666666666666
-0.64,-0.585,9169.444444444445
-0.63,-0.57,9172.222222222223
-0.64,-0.565,9175.0
-0.625,-0.58,9177.777777777777
-0.635,-0.57,9180.555555555555
-0.635,-0.575,9183.333333333334
-0.63,-0.585,9186.111111111111
-0.64,-0.585,9188.888888888889
-0.62,-0.595,9191.666666666666
-0.63,-0.595,9194.444444444445
-0.615,-0.58,9197.222222222223
-0.6,-0.57,9200.0
-0.58,-0.555,9202.777777777777
-0.56,-0.545,9205.555555555555
-0.55,-0.54,9208.333333333334
-0.54,-0.545,9211.111111111111
-0.53,-0.535,9213.888888888889
-0.54,-0.535,9216.666666666666
-0.55,-0.55,9219.444444444445
-0.55,-0.565,9222.222222222223
-0.555,-0.57,9225.0
-0.555,-0.56,9227.777777777777
-0.55,-0.565,9230.555555555555
-0.54,-0.57,9233.333333333334
-0.525,-0.575,9236.111111111111
-0.52,-0.555,9238.888888888889
-0.5,-0.555,9241.666666666666
-0.495,-0.565,9244.444444444445
-0.5,-0.56,9247.222222222223
-0.51,-0.57,9250.0
-0.535,-0.59,9252.777777777777
-0.555,-0.605,9255.555555555555
-0.58,-0.615,9258.333333333334
-0.59,-0.615,9261.111111111111
-0.6,-0.615,9263.888888888889
-0.595,-0.61,9266.666666666666
-0.595,-0.6,9269.444444444445
-0.595,-0.59,9272.222222222223
-0.585,-0.595,9275.0
-0.615,-0.595,9277.777777777777
-0.62,-0.59,9280.555555555555
-0.625,-0.58,9283.333333333334
-0.645,-0.58,9286.111111111111
-0.665,-0.575,9288.888888888889
-0.675,-0.575,9291.666666666666
-0.7,-0.585,9294.444444444445
-0.7,-0.57,9297.222222222223
-0.695,-0.575,9300.0
-0.695,-0.57,9302.777777777777
-0.69,-0.57,9305.555555555555
-0.7,-0.565,9308.333333333334
-0.695,-0.575,9311.111111111111
-0.685,-0.555,9313.888888888889
-0.695,-0.575,9316.666666666666
-0.705,-0.575,9319.444444444445
-0.71,-0.59,9322.222222222223
-0.72,-0.6,9325.0
-0.72,-0.59,9327.777777777777
-0.71,-0.58,9330.555555555555
-0.705,-0.565,9333.333333333334
-0.7,-0.56,9336.111111111111
-0.69,-0.55,9338.888888888889
-0.69,-0.535,9341.666666666666
-0.685,-0.535,9344.444444444445
-0.685,-0.545,9347.222222222223
-0.695,-0.53,9350.0
-0.69,-0.54,9352.777777777777
-0.675,-0.54,9355.555555555555
-0.65,-0.55,9358.333333333334
-0.6,-0.545,9361.111111111111
-0.53,-0.565,9363.888888888889
-0.425,-0.555,9366.666666666666
-0.3,-0.57,9369.444444444445
-0.175,-0.58,9372.222222222223
-0.025,-0.585,9375.0
0.09,-0.615,9377.777777777777
0.17,-0.62,9380.555555555555
0.195,-0.63,9383.333333333334
0.14,-0.65,9386.111111111111
0.03,-0.66,9388.888888888889
-0.12,-0.67,9391.666666666666
-0.27,-0.675,9394.444444444445
-0.415,-0.665,9397.222222222223
-0.58,-0.635,9400.0
-0.73,-0.595,9402.777777777777
-0.855,-0.535,9405.555555555555
-0.905,-0.44,9408.333333333334
-0.915,-0.345,9411.111111111111
-0.91,-0.285,9413.888888888889
-0.865,-0.26,9416.666666666666
-0.84,-0.28,9419.444444444445
-0.81,-0.335,9422.222222222223
-0.79,-0.4,9425.0
-0.785,-0.47,9427.777777777777
-0.79,-0.505,9430.555555555555
-0.79,-0.525,9433.333333333334
-0.795,-0.535,9436.111111111111
-0.805,-0.54,9438.888888888889
-0.795,-0.54,9441.666666666666
-0.795,-0.545,9444.444444444445
-0.79,-0.555,9447.222222222223
-0.79,-0.565,9450.0
-0.79,-0.575,9452.777777777777
-0.795,-0.58,9455.555555555555
-0.81,-0.575,9458.333333333334
-0.82,-0.585,9461.111111111111
-0.84,-0.575,9463.888888888889
-0.84,-0.565,9466.666666666666
-0.82,-0.565,9469.444444444445
-0.8,-0.565,9472.222222222223
-0.8,-0.56,9475.0
-0.795,-0.56,9477.777777777777
-0.805,-0.575,9480.555555555555
-0.81,-0.575,9483.333333333334
-0.82,-0.59,9486.111111111111
-0.82,-0.59,9488.888888888889
-0.83,-0.6,9491.666666666666
-0.84,-0.6,9494.444444444445
-0.84,-0.59,9497.222222222223
-0.835,-0.59,9500.0
-0.825,-0.575,9502.777777777777
-0.825,-0.575,9505.555555555555
-0.82,-0.575,9508.333333333334
-0.825,-0.565,9511.111111111111
-0.835,-0.575,9513.888888888889
-0.84,-0.58,9516.666666666666
-0.85,-0.575,9519.444444444445
-0.855,-0.595,9522.222222222223
-0.865,-0.595,9525.0
-0.885,-0.59,9527.777777777777
-0.865,-0.595,9530.555555555555
-0.875,-0.59,9533.333333333334
-0.875,-0.585,9536.111111111111
-0.875,-0.57,9538.888888888889
-0.88,-0.565,9541.666666666666
-0.885,-0.585,9544.444444444445
-0.895,-0.585,9547.222222222223
-0.905,-0.595,9550.0
-0.905,-0.6,9552.777777777777
-0.92,-0.61,9555.555555555555
-0.92,-0.605,9558.333333333334
-0.92,-0.605,9561.111111111111
-0.93,-0.605,9563.888888888889
-0.925,-0.595,9566.666666666666
-0.93,-0.595,9569.444444444445
-0.93,-0.585,9572.222222222223
-0.92,-0.58,9575.0
-0.925,-0.59,9577.777777777777
-0.92,-0.595,9580.555555555555
-0.94,-0.595,9583.333333333334
-0.955,-0.6,9586.111111111111
-0.95,-0.605,9588.888888888889
-0.965,-0.61,9591.666666666666
-0.96,-0.595,9594.444444444445
-0.955,-0.605,9597.222222222223
-0.95,-0.605,9600.0
-0.96,-0.585,9602.777777777777
-0.95,-0.585,9605.555555555555
-0.95,-0.58,9608.333333333334
-0.945,-0.58,9611.111111111111
-0.955,-0.585,9613.888888888889
-0.955,-0.6,9616.666666666666
-0.965,-0.61,9619.444444444445
-0.96,-0.605,9622.222222222223
-0.965,-0.62,9625.0
-0.965,-0.62,9627.777777777777
-0.95,-0.605,9630.555555555555
-0.94,-0.595,9633.333333333334
-0.925,-0.59,9636.111111111111
-0.92,-0.585,9638.888888888889
-0.91,-0.575,9641.666666666666
-0.89,-0.59,9644.444444444445
-0.885,-0.595,9647.222222222223
-0.88,-0.61,9650.0
-0.87,-0.605,9652.777777777777
-0.865,-0.615,9655.555555555555
-0.86,-0.625,9658.333333333334
-0.835,-0.64,9661.111111111111
-0.81,-0.63,9663.888888888889
-0.795,-0.62,9666.666666666666
-0.77,-0.615,9669.444444444445
-0.73,-0.61,9672.222222222223
-0.695,-0.605,9675.0
-0.665,-0.61,9677.777777777777
-0.645,-0.61,9680.555555555555
-0.625,-0.61,9683.333333333334
-0.61,-0.61,9686.111111111111
-0.62,-0.615,9688.888888888889
-0.61,-0.61,9691.666666666666
-0.605,-0.61,9694.444444444445
-0.595,-0.605,9697.222222222223
-0.585,-0.59,9700.0
-0.565,-0.575,9702.777777777777
-0.57,-0.57,9705.555555555555
-0.55,-0.555,9708.333333333334
-0.555,-0.555,9711.111111111111
-0.56,-0.56,9713.888888888889
-0.565,-0.56,9716.666666666666
-0.57,-0.57,9719.444444444445
-0.585,-0.575,9722.222222222223
-0.59,-0.575,9725.0
-0.595,-0.585,9727.777777777777
-0.6,-0.57,9730.555555555555
-0.595,-0.56,9733.333333333334
-0.59,-0.565,9736.111111111111
-0.59,-0.57,9738.888888888889
-0.58,-0.55,9741.666666666666
-0.58,-0.55,9744.444444444445
-0.59,-0.56,9747.222222222223
-0.62,-0.56,9750.0
-0.61,-0.57,9752.777777777777
-0.61,-0.565,9755.555555555555
-0.625,-0.575,9758.333333333334
-0.62,-0.57,9761.111111111111
-0.62,-0.555,9763.888888888889
-0.615,-0.555,9766.666666666666
-0.62,-0.54,9769.444444444445
-0.625,-0.545,9772.222222222223
-0.625,-0.525,9775.0
-0.62,-0.535,9777.777777777777
-0.615,-0.55,9780.555555555555
-0.615,-0.555,9783.333333333334
-0.625,-0.56,9786.111111111111
-0.63,-0.57,9788.888888888889
-0.64,-0.565,9791.666666666666
-0.64,-0.565,9794.444444444445
-0.655,-0.565,9797.222222222223
-0.65,-0.555,9800.0
-0.64,-0.545,9802.777777777777
-0.64,-0.55,9805.555555555555
-0.64,-0.545,9808.333333333334
-0.63,-0.545,9811.111111111111
-0.635,-0.545,9813.888888888889
-0.66,-0.545,9816.666666666666
-0.66,-0.565,9819.444444444445
-0.65,-0.565,9822.222222222223
-0.655,-0.58,9825.0
-0.65,-0.58,9827.777777777777
-0.65,-0.565,9830.555555555555
-0.65,-0.575,9833.333333333334
-0.635,-0.555,9836.111111111111
-0.64,-0.55,9838.888888888889
-0.64,-0.555,9841.666666666666
-0.63,-0.545,9844.444444444445
-0.62,-0.565,9847.222222222223
-0.62,-0.58,9850.0
-0.635,-0.575,9852.777777777777
-0.635,-0.575,9855.555555555555
-0.655,-0.565,9858.333333333334
-0.655,-0.58,9861.111111111111
-0.645,-0.565,9863.888888888889
-0.63,-0.56,9866.666666666666
-0.615,-0.55,9869.444444444445
-0.6,-0.54,9872.222222222223
-0.585,-0.53,9875.0
-0.565,-0.525,9877.777777777777
-0.57,-0.525,9880.555555555555
-0.575,-0.515,9883.333333333334
-0.555,-0.53,9886.111111111111
-0.55,-0.53,9888.888888888889
-0.56,-0.54,9891.666666666666
-0.55,-0.53,9894.444444444445
-0.555,-0.52,9897.222222222223
-0.545,-0.525,9900.0
-0.545,-0.515,9902.777777777777
-0.55,-0.52,9905.555555555555
-0.535,-0.52,9908.333333333334
-0.525,-0.53,9911.111111111111
-0.51,-0.56,9913.888888888889
-0.515,-0.57,9916.666666666666
-0.53,-0.585,9919.444444444445
-0.54,-0.6,9922.222222222223
-0.55,-0.6,9925.0
-0.565,-0.605,9927.777777777777
-0.59,-0.605,9930.555555555555
-0.595,-0.605,9933.333333333334
-0.615,-0.605,9936.111111111111
-0.62,-0.58,9938.888888888889
-0.61,-0.575,9941.666666666666
-0.615,-0.585,9944.444444444445
-0.635,-0.585,9947.222222222223
-0.635,-0.595,9950.0
-0.645,-0.58,9952.777777777777
-0.66,-0.58,9955.555555555555
-0.675,-0.56,9958.333333333334
-0.685,-0.56,9961.111111111111
-0.69,-0.555,9963.888888888889
-0.69,-0.54,9966.666666666666
-0.695,-0.545,9969.444444444445
-0.695,-0.525,9972.222222222223
-0.685,-0.525,9975.0
-0.68,-0.535,9977.777777777777
-0.7,-0.54,9980.555555555555
-0.71,-0.54,9983.333333333334
-0.72,-0.545,9986.111111111111
-0.71,-0.56,9988.888888888889
-0.725,-0.57,9991.666666666666
-0.725,-0.56,9994.444444444445
-0.72,-0.56,9997.222222222223
-0.71,-0.55,10000.0
-0.7,-0.545,10002.777777777777
-0.705,-0.545,10005.555555555555
-0.69,-0.53,10008.333333333334
-0.69,-0.53,10011.111111111111
-0.685,-0.54,10013.888888888889
-0.69,-0.54,10016.666666666666
-0.71,-0.55,10019.444444444445
-0.695,-0.535,10022.222222222223
-0.71,-0.54,10025.0
-0.71,-0.55,10027.777777777777
-0.7,-0.535,10030.555555555555
-0.68,-0.52,10033.333333333334
-0.655,-0.51,10036.111111111111
-0.605,-0.505,10038.888888888889
-0.55,-0.495,10041.666666666666
-0.475,-0.515,10044.444444444445
-0.4,-0.525,10047.222222222223
-0.29,-0.55,10050.0
-0.165,-0.575,10052.777777777777
-0.045,-0.59,10055.555555555555
0.055,-0.605,10058.333333333334
0.12,-0.62,10061.111111111111
0.145,-0.62,10063.888888888889
0.09,-0.61,10066.666666666666
-0.01,-0.61,10069.444444444445
-0.145,-0.62,10072.222222222223
-0.27,-0.63,10075.0
-0.41,-0.615,10077.777777777777
-0.57,-0.615,10080.555555555555
-0.73,-0.57,10083.333333333334
-0.87,-0.505,10086.111111111111
-0.93,-0.425,10088.888888888889
-0.94,-0.335,10091.666666666666
-0.915,-0.275,10094.444444444445
-0.875,-0.265,10097.222222222223
-0.82,-0.3,10100.0
-0.775,-0.355,10102.777777777777
-0.77,-0.415,10105.555555555555
-0.765,-0.44,10108.333333333334
-0.79,-0.49,10111.111111111111
-0.815,-0.51,10113.888888888889
-0.83,-0.53,10116.666666666666
-0.83,-0.545,10119.444444444445
-0.835,-0.56,10122.222222222223
-0.84,-0.555,10125.0
-0.84,-0.565,10127.777777777777
-0.82,-0.545,10130.555555555555
-0.81,-0.54,10133.333333333334
-0.815,-0.525,10136.111111111111
-0.82,-0.525,10138.888888888889
-0.815,-0.51,10141.666666666666
-0.815,-0.515,10144.444444444445
-0.815,-0.53,10147.222222222223
-0.82,-0.54,10150.0
-0.825,-0.545,10152.777777777777
-0.83,-0.555,10155.555555555555
-0.835,-0.555,10158.333333333334
-0.85,-0.555,10161.111111111111
-0.845,-0.55,10163.888888888889
-0.85,-0.55,10166.666666666666
-0.84,-0.54,10169.444444444445
-0.835,-0.53,10172.222222222223
-0.83,-0.52,10175.0
-0.835,-0.52,10177.777777777777
-0.845,-0.52,10180.555555555555
-0.85,-0.54,10183.333333333334
-0.85,-0.55,10186.111111111111
-0.86,-0.56,10188.888888888889
-0.87,-0.555,10191.666666666666
-0.875,-0.565,10194.444444444445
-0.88,-0.55,10197.222222222223
-0.875,-0.55,10200.0
-0.87,-0.55,10202.777777777777
-0.87,-0.535,10205.555555555555
-0.86,-0.52,10208.333333333334
-0.86,-0.53,10211.111111111111
-0.875,-0.535,10213.888888888889
-0.88,-0.535,10216.666666666666
-0.88,-0.55,10219.444444444445
-0.89,-0.56,10222.222222222223
-0.9,-0.555,10225.0
-0.9,-0.56,10227.777777777777
-0.9,-0.555,10230.555555555555
-0.9,-0.535,10233.333333333334
-0.895,-0.535,10236.111111111111
-0.895,-0.535,10238.888888888889
-0.9,-0.53,10241.666666666666
-0.895,-0.525,10244.444444444445
-0.905,-0.545,10247.222222222223
-0.91,-0.55,10250.0
-0.92,-0.565,10252.777777777777
-0.93,-0.565,10255.555555555555
-0.935,-0.57,10258.333333333334
-0.935,-0.57,10261.111111111111
-0.935,-0.565,10263.888888888889
-0.94,-0.565,10266.666666666666
-0.94,-0.55,10269.444444444445
-0.945,-0.545,10272.222222222223
-0.945,-0.535,10275.0
-0.95,-0.545,10277.777777777777
-0.96,-0.545,10280.555555555555
-0.97,-0.56,10283.333333333334
-0.98,-0.58,10286.111111111111
-0.98,-0.58,10288.888888888889
-0.985,-0.59,10291.666666666666
-0.99,-0.595,10294.444444444445
-0.99,-0.575,10297.222222222223
-0.985,-0.575,10300.0
-0.965,-0.56,10302.777777777777
-0.97,-0.55,10305.555555555555
-0.97,-0.545,10308.333333333334
-0.955,-0.56,10311.111111111111
-0.955,-0.56,10313.888888888889
-0.955,-0.565,10316.666666666666
-0.955,-0.57,10319.444444444445
-0.955,-0.585,10322.222222222223
-0.95,-0.585,10325.0
-0.95,-0.575,10327.777777777777
-0.94,-0.575,10330.555555555555
-0.93,-0.57,10333.333333333334
-0.915,-0.57,10336.111111111111
-0.895,-0.56,10338.888888888889
-0.88,-0.555,10341.666666666666
-0.87,-0.56,10344.444444444445
-0.845,-0.555,10347.222222222223
-0.825,-0.575,10350.0
-0.81,-0.58,10352.777777777777
-0.795,-0.59,10355.555555555555
-0.79,-0.6,10358.333333333334
-0.775,-0.605,10361.111111111111
-0.745,-0.6,10363.888888888889
-0.72,-0.595,10366.666666666666
-0.695,-0.59,10369.444444444445
-0.66,-0.58,10372.222222222223
-0.645,-0.565,10375.0
-0.63,-0.57,10377.777777777777
-0.61,-0.57,10380.555555555555
-0.605,-0.58,10383.333333333334
-0.605,-0.58,10386.111111111111
-0.605,-0.59,10388.888888888889
-0.605,-0.595,10391.666666666666
-0.61,-0.58,10394.444444444445
-0.605,-0.575,10397.222222222223
-0.595,-0.555,10400.0
-0.59,-0.54,10402.777777777777
-0.585,-0.54,10405.555555555555
-0.58,-0.54,10408.333333333334
-0.58,-0.525,10411.111111111111
-0.58,-0.53,10413.888888888889
-0.59,-0.54,10416.666666666666
-0.6,-0.54,10419.444444444445
-0.595,-0.55,10422.222222222223
-0.62,-0.545,10425.0
-0.62,-0.555,10427.777777777777
-0.62,-0.545,10430.555555555555
-0.62,-0.545,10433.333333333334
-0.615,-0.54,10436.111111111111
-0.615,-0.54,10438.888888888889
-0.61,-0.53,10441.666666666666
-0.61,-0.53,10444.444444444445
-0.61,-0.545,10447.222222222223
-0.605,-0.54,10450.0
-0.625,-0.55,10452.777777777777
-0.63,-0.555,10455.555555555555
-0.635,-0.575,10458.333333333334
-0.645,-0.565,10461.111111111111
-0.65,-0.565,10463.888888888889
-0.645,-0.555,10466.666666666666
-0.65,-0.555,10469.444444444445
-0.645,-0.535,10472.222222222223
-0.645,-0.53,10475.0
-0.63,-0.535,10477.777777777777
-0.64,-0.54,10480.555555555555
-0.655,-0.54,10483.333333333334
-0.65,-0.55,10486.111111111111
-0.655,-0.56,10488.888888888889
-0.665,-0.55,10491.666666666666
-0.665,-0.555,10494.444444444445
-0.665,-0.555,10497.222222222223
-0.68,-0.55,10500.0
-0.68,-0.545,10502.777777777777
-0.67,-0.535,10505.555555555555
-0.66,-0.525,10508.333333333334
-0.655,-0.525,10511.111111111111
-0.67,-0.535,10513.888888888889
-0.655,-0.535,10516.666666666666
-0.66,-0.555,10519.444444444445
-0.68,-0.56,10522.222222222223
-0.685,-0.57,10525.0
-0.69,-0.58,10527.777777777777
-0.685,-0.56,10530.555555555555
-0.69,-0.56,10533.333333333334
-0.68,-0.545,10536.111111111111
-0.68,-0.535,10538.888888888889
-0.675,-0.54,10541.666666666666
-0.665,-0.535,10544.444444444445
-0.665,-0.54,10547.222222222223
-0.67,-0.55,10550.0
-0.68,-0.55,10552.777777777777
-0.675,-0.57,10555.555555555555
-0.68,-0.56,10558.333333333334
-0.665,-0.57,10561.111111111111
-0.665,-0.565,10563.888888888889
-0.64,-0.55,10566.666666666666
-0.625,-0.54,10569.444444444445
-0.605,-0.52,10572.222222222223
-0.595,-0.505,10575.0
-0.58,-0.5,10577.777777777777
-0.585,-0.505,10580.555555555555
-0.58,-0.505,10583.333333333334
-0.57,-0.52,10586.111111111111
-0.585,-0.52,10588.888888888889
-0.59,-0.53,10591.666666666666
-0.6,-0.53,10594.444444444445
-0.605,-0.54,10597.222222222223
-0.59,-0.535,10600.0
-0.575,-0.545,10602.777777777777
-0.56,-0.54,10605.555555555555
-0.555,-0.53,10608.333333333334
-0.54,-0.54,10611.111111111111
-0.545,-0.555,10613.888888888889
-0.55,-0.57,10616.666666666666
-0.575,-0.59,10619.444444444445
-0.59,-0.585,10622.222222222223
-0.62,-0.6,10625.0
-0.64,-0.6,10627.777777777777
-0.655,-0.595,10630.555555555555
-0.655,-0.595,10633.333333333334
-0.645,-0.595,10636.111111111111
-0.65,-0.58,10638.888888888889
-0.65,-0.575,10641.666666666666
-0.655,-0.575,10644.444444444445
-0.655,-0.58,10647.222222222223
-0.67,-0.57,10650.0
-0.705,-0.575,10652.777777777777
-0.72,-0.565,10655.555555555555
-0.73,-0.54,10658.333333333334
-0.745,-0.555,10661.111111111111
-0.75,-0.545,10663.888888888889
-0.755,-0.545,10666.666666666666
-0.75,-0.535,10669.444444444445
-0.755,-0.52,10672.222222222223
-0.735,-0.515,10675.0
-0.745,-0.525,10677.777777777777
-0.75,-0.525,10680.555555555555
-0.755,-0.54,10683.333333333334
-0.755,-0.545,10686.111111111111
-0.765,-0.56,10688.888888888889
-0.755,-0.56,10691.666666666666
-0.76,-0.55,10694.444444444445
-0.765,-0.555,10697.222222222223
-0.76,-0.55,10700.0
-0.745,-0.54,10702.777777777777
-0.745,-0.515,10705.555555555555
-0.735,-0.515,10708.333333333334
-0.735,-0.525,10711.111111111111
-0.735,-0.535,10713.888888888889
-0.725,-0.535,10716.666666666666
-0.74,-0.535,10719.444444444445
-0.735,-0.535,10722.222222222223
-0.74,-0.53,10725.0
-0.73,-0.53,10727.777777777777
-0.665,-0.53,10730.555555555555
-0.61,-0.525,10733.333333333334
-0.52,-0.535,10736.111111111111
-0.4,-0.55,10738.888888888889
-0.265,-0.56,10741.666666666666
-0.145,-0.58,10744.444444444445
-0.02,-0.605,10747.222222222223
0.055,-0.63,10750.0
0.06,-0.63,10752.777777777777
-0.01,-0.64,10755.555555555555
-0.125,-0.655,10758.333333333334
-0.26,-0.665,10761.111111111111
-0.385,-0.675,10763.888888888889
-0.525,-0.675,10766.666666666666
-0.675,-0.645,10769.444444444445
-0.81,-0.59,10772.222222222223
-0.91,-0.52,10775.0
-0.94,-0.43,10777.777777777777
-0.95,-0.345,10780.555555555555
-0.925,-0.275,10783.333333333334
-0.9,-0.245,10786.111111111111
-0.875,-0.285,10788.888888888889
-0.855,-0.36,10791.666666666666
-0.85,-0.42,10794.444444444445
-0.85,-0.485,10797.222222222223
-0.875,-0.505,10800.0
-0.87,-0.535,10802.777777777777
-0.87,-0.55,10805.555555555555
-0.865,-0.555,10808.333333333334
-0.855,-0.56,10811.111111111111
-0.85,-0.56,10813.888888888889
-0.86,-0.565,10816.666666666666
-0.865,-0.565,10819.444444444445
-0.86,-0.585,10822.222222222223
-0.865,-0.58,10825.0
-0.865,-0.595,10827.777777777777
-0.88,-0.575,10830.555555555555
-0.87,-0.585,10833.333333333334
-0.86,-0.57,10836.111111111111
-0.86,-0.56,10838.888888888889
-0.865,-0.55,10841.666666666666
-0.845,-0.555,10844.444444444445
-0.845,-0.555,10847.222222222223
-0.855,-0.56,10850.0
-0.865,-0.575,10852.777777777777
-0.875,-0.575,10855.555555555555
-0.885,-0.595,10858.333333333334
-0.905,-0.58,10861.111111111111
-0.895,-0.575,10863.888888888889
-0.89,-0.565,10866.666666666666
-0.88,-0.56,10869.444444444445
-0.87,-0.56,10872.222222222223
-0.88,-0.55,10875.0
-0.88,-0.555,10877.777777777777
-0.88,-0.555,10880.555555555555
-0.89,-0.56,10883.333333333334
-0.915,-0.58,10886.111111111111
-0.915,-0.58,10888.888888888889
-0.93,-0.575,10891.666666666666
-0.925,-0.595,10894.444444444445
-0.93,-0.595,10897.222222222223
-0.915,-0.605,10900.0
-0.91,-0.58,10902.777777777777
-0.91,-0.57,10905.555555555555
-0.915,-0.57,10908.333333333334
-0.905,-0.57,10911.111111111111
-0.92,-0.575,10913.888888888889
-0.915,-0.57,10916.666666666666
-0.94,-0.585,10919.444444444445
-0.96,-0.59,10922.222222222223
-0.945,-0.585,10925.0
-0.96,-0.585,10927.777777777777
-0.96,-0.58,10930.555555555555
-0.965,-0.575,10933.333333333334
-0.965,-0.575,10936.111111111111
-0.955,-0.57,10938.888888888889
-0.955,-0.56,10941.666666666666
-0.96,-0.56,10944.444444444445
-0.955,-0.575,10947.222222222223
-0.965,-0.57,10950.0
-0.985,-0.585,10952.777777777777
-0.99,-0.595,10955.555555555555
-1.005,-0.59,10958.333333333334
-0.995,-0.605,10961.111111111111
-1.0,-0.6,10963.888888888889
-1.0,-0.585,10966.666666666666
-1.0,-0.58,10969.444444444445
-1.0,-0.58,10972.222222222223
-0.985,-0.58,10975.0
-0.995,-0.58,10977.777777777777
-0.99,-0.59,10980.555555555555
-0.99,-0.59,10983.333333333334
-1.01,-0.6,10986.111111111111
-1.01,-0.61,10988.888888888889
-1.015,-0.62,10991.666666666666
-1.015,-0.615,10994.444444444445
-1.005,-0.615,10997.222222222223
-0.995,-0.605,11000.0
-0.995,-0.61,11002.777777777777
-0.98,-0.6,11005.555555555555
-0.975,-0.59,11008.333333333334
-0.955,-0.585,11011.111111111111
-0.95,-0.59,11013.888888888889
-0.96,-0.59,11016.666666666666
-0.97,-0.595,11019.444444444445
-0.955,-0.6,11022.222222222223
-0.96,-0.61,11025.0
-0.955,-0.61,11027.777777777777
-0.94,-0.605,11030.555555555555
-0.92,-0.59,11033.333333333334
-0.9,-0.59,11036.111111111111
-0.875,-0.595,11038.888888888889
-0.865,-0.59,11041.666666666666
-0.835,-0.59,11044.444444444445
-0.81,-0.595,11047.222222222223
-0.785,-0.6,11050.0
-0.765,-0.61,11052.777777777777
-0.765,-0.615,11055.555555555555
-0.745,-0.62,11058.333333333334
-0.725,-0.625,11061.111111111111
-0.72,-0.61,11063.888888888889
-0.705,-0.615,11066.666666666666
-0.7,-0.61,11069.444444444445
-0.675,-0.6,11072.222222222223
-0.66,-0.59,11075.0
-0.645,-0.59,11077.777777777777
-0.635,-0.59,11080.555555555555
-0.625,-0.585,11083.333333333334
-0.63,-0.59,11086.111111111111
-0.645,-0.6,11088.888888888889
-0.63,-0.605,11091.666666666666
-0.65,-0.605,11094.444444444445
-0.63,-0.6,11097.222222222223
-0.635,-0.585,11100.0
-0.635,-0.57,11102.777777777777
-0.625,-0.57,11105.555555555555
-0.625,-0.565,11108.333333333334
