MLII,V1,time_ms
-0.46,0.13,0.0
-0.46,0.13,2.7777777777777777
-0.46,0.13,5.555555555555555
-0.46,0.13,8.333333333333334
-0.46,0.13,11.11111111111111
-0.46,0.13,13.88888888888889
-0.46,0.13,16.666666666666668
-0.46,0.13,19.444444444444443
-0.455,0.13,22.22222222222222
-0.455,0.14,25.0
-0.44,0.14,27.77777777777778
-0.435,0.145,30.555555555555557
-0.43,0.125,33.333333333333336
-0.445,0.12,36.111111111111114
-0.44,0.115,38.888888888888886
-0.435,0.13,41.666666666666664
-0.425,0.14,44.44444444444444
-0.415,0.145,47.22222222222222
-0.43,0.14,50.0
-0.435,0.125,52.77777777777778
-0.47,0.12,55.55555555555556
-0.455,0.13,58.333333333333336
-0.415,0.135,61.111111111111114
-0.425,0.13,63.888888888888886
-0.44,0.115,66.66666666666667
-0.445,0.11,69.44444444444444
-0.435,0.11,72.22222222222223
-0.435,0.14,75.0
-0.425,0.15,77.77777777777777
-0.42,0.14,80.55555555555556
-0.43,0.125,83.33333333333333
-0.44,0.125,86.11111111111111
-0.46,0.125,88.88888888888889
-0.435,0.125,91.66666666666667
-0.435,0.145,94.44444444444444
-0.415,0.14,97.22222222222223
-0.425,0.135,100.0
-0.435,0.12,102.77777777777777
-0.435,0.12,105.55555555555556
-0.435,0.13,108.33333333333333
-0.415,0.14,111.11111111111111
-0.41,0.14,113.88888888888889
-0.43,0.11,116.66666666666667
-0.435,0.11,119.44444444444444
-0.45,0.11,122.22222222222223
-0.43,0.115,125.0
-0.405,0.12,127.77777777777777
-0.41,0.125,130.55555555555554
-0.415,0.12,133.33333333333334
-0.425,0.105,136.11111111111111
-0.44,0.11,138.88888888888889
-0.43,0.115,141.66666666666666
-0.415,0.13,144.44444444444446
-0.415,0.125,147.22222222222223
-0.415,0.115,150.0
-0.435,0.1,152.77777777777777
-0.435,0.105,155.55555555555554
-0.43,0.115,158.33333333333334
-0.415,0.135,161.11111111111111
-0.405,0.125,163.88888888888889
-0.41,0.11,166.66666666666666
-0.44,0.11,169.44444444444446
-0.44,0.105,172.22222222222223
-0.425,0.115,175.0
-0.41,0.125,177.77777777777777
-0.41,0.125,180.55555555555554
-0.415,0.11,183.33333333333334
-0.425,0.085,186.11111111111111
-0.435,0.095,188.88888888888889
-0.43,0.105,191.66666666666666
-0.42,0.125,194.44444444444446
-0.4,0.12,197.22222222222223
-0.41,0.11,200.0
-0.425,0.09,202.77777777777777
-0.43,0.1,205.55555555555554
-0.43,0.11,208.33333333333334
-0.41,0.125,211.11111111111111
-0.405,0.11,213.88888888888889
-0.405,0.105,216.66666666666666
-0.415,0.1,219.44444444444446
-0.43,0.095,222.22222222222223
-0.435,0.11,225.0
-0.425,0.135,227.77777777777777
-0.395,0.125,230.55555555555554
-0.4,0.105,233.33333333333334
-0.405,0.1,236.11111111111111
-0.415,0.105,238.88888888888889
-0.41,0.115,241.66666666666666
-0.405,0.12,244.44444444444446
-0.395,0.13,247.22222222222223
-0.405,0.1,250.0
-0.415,0.1,252.77777777777777
-0.415,0.095,255.55555555555554
-0.415,0.11,258.3333333333333
-0.395,0.125,261.1111111111111
-0.395,0.115,263.8888888888889
-0.39,0.1,266.6666666666667
-0.4,0.095,269.44444444444446
-0.405,0.1,272.22222222222223
-0.4,0.11,275.0
-0.4,0.13,277.77777777777777
-0.385,0.13,280.55555555555554
-0.385,0.12,283.3333333333333
-0.405,0.115,286.1111111111111
-0.4,0.115,288.8888888888889
-0.385,0.135,291.6666666666667
-0.37,0.15,294.44444444444446
-0.345,0.16,297.22222222222223
-0.355,0.135,300.0
-0.355,0.13,302.77777777777777
-0.355,0.125,305.55555555555554
-0.34,0.145,308.3333333333333
-0.32,0.145,311.1111111111111
-0.295,0.14,313.8888888888889
-0.305,0.115,316.6666666666667
-0.32,0.085,319.44444444444446
-0.32,0.085,322.22222222222223
-0.31,0.095,325.0
-0.28,0.095,327.77777777777777
-0.275,0.08,330.55555555555554
-0.285,0.075,333.3333333333333
-0.3,0.07,336.1111111111111
-0.305,0.075,338.8888888888889
-0.305,0.09,341.6666666666667
-0.29,0.095,344.44444444444446
-0.275,0.1,347.22222222222223
-0.285,0.09,350.0
-0.305,0.075,352.77777777777777
-0.325,0.09,355.55555555555554
-0.32,0.105,358.3333333333333
-0.335,0.105,361.1111111111111
-0.335,0.095,363.8888888888889
-0.36,0.08,366.6666666666667
-0.365,0.07,369.44444444444446
-0.365,0.07,372.22222222222223
-0.36,0.09,375.0
-0.35,0.105,377.77777777777777
-0.355,0.09,380.55555555555554
-0.37,0.085,383.3333333333333
-0.355,0.075,386.1111111111111
-0.37,0.08,388.8888888888889
-0.355,0.1,391.6666666666667
-0.355,0.115,394.44444444444446
-0.355,0.11,397.22222222222223
-0.35,0.09,400.0
-0.355,0.08,402.77777777777777
-0.36,0.08,405.55555555555554
-0.36,0.095,408.3333333333333
-0.35,0.125,411.1111111111111
-0.335,0.115,413.8888888888889
-0.33,0.095,416.6666666666667
-0.335,0.09,419.44444444444446
-0.345,0.11,422.22222222222223
-0.33,0.145,425.0
-0.31,0.175,427.77777777777777
-0.31,0.21,430.55555555555554
-0.305,0.25,433.3333333333333
-0.335,0.275,436.1111111111111
-0.375,0.27,438.8888888888889
-0.4,0.29,441.6666666666667
-0.415,0.28,444.44444444444446
-0.42,0.225,447.22222222222223
-0.39,0.145,450.0
-0.35,0.035,452.77777777777777
-0.2,-0.075,455.55555555555554
0.09,-0.17,458.3333333333333
0.49,-0.23,461.1111111111111
0.96,-0.295,463.8888888888889
1.39,-0.295,466.6666666666667
1.755,-0.265,469.44444444444446
1.99,-0.185,472.22222222222223
2.09,-0.065,475.0
2.05,-0.005,477.77777777777777
1.72,0.04,480.55555555555554
1.08,0.03,483.3333333333333
0.44,0.005,486.1111111111111
-0.2,0.015,488.8888888888889
-0.64,0.05,491.6666666666667
-0.595,0.085,494.44444444444446
-0.49,0.105,497.22222222222223
-0.46,0.1,500.0
-0.495,0.09,502.77777777777777
-0.515,0.085,505.55555555555554
-0.5,0.1,508.3333333333333
-0.465,0.105,511.1111111111111
-0.44,0.125,513.8888888888889
-0.43,0.115,516.6666666666666
-0.375,0.105,519.4444444444445
-0.345,0.11,522.2222222222222
-0.305,0.13,525.0
-0.29,0.14,527.7777777777778
-0.25,0.13,530.5555555555555
-0.25,0.115,533.3333333333334
-0.27,0.11,536.1111111111111
-0.285,0.11,538.8888888888889
-0.28,0.12,541.6666666666666
-0.255,0.12,544.4444444444445
-0.235,0.12,547.2222222222222
-0.255,0.11,550.0
-0.26,0.1,552.7777777777778
-0.255,0.105,555.5555555555555
-0.25,0.125,558.3333333333334
-0.245,0.135,561.1111111111111
-0.23,0.13,563.8888888888889
-0.23,0.11,566.6666666666666
-0.25,0.115,569.4444444444445
-0.26,0.115,572.2222222222222
-0.25,0.12,575.0
-0.225,0.13,577.7777777777778
-0.215,0.13,580.5555555555555
-0.22,0.125,583.3333333333334
-0.24,0.1,586.1111111111111
-0.235,0.105,588.8888888888889
-0.235,0.11,591.6666666666666
-0.21,0.13,594.4444444444445
-0.195,0.11,597.2222222222222
-0.2,0.105,600.0
-0.215,0.1,602.7777777777778
-0.215,0.11,605.5555555555555
-0.21,0.115,608.3333333333334
-0.195,0.125,611.1111111111111
-0.195,0.115,613.8888888888889
-0.21,0.11,616.6666666666666
-0.22,0.105,619.4444444444445
-0.215,0.105,622.2222222222222
-0.195,0.115,625.0
-0.175,0.13,627.7777777777778
-0.165,0.12,630.5555555555555
-0.185,0.105,633.3333333333334
-0.19,0.115,636.1111111111111
-0.195,0.105,638.8888888888889
-0.195,0.105,641.6666666666666
-0.175,0.13,644.4444444444445
-0.17,0.13,647.2222222222222
-0.16,0.11,650.0
-0.17,0.095,652.7777777777778
-0.19,0.105,655.5555555555555
-0.175,0.125,658.3333333333334
-0.15,0.14,661.1111111111111
-0.135,0.125,663.8888888888889
-0.14,0.115,666.6666666666666
-0.135,0.11,669.4444444444445
-0.145,0.11,672.2222222222222
-0.13,0.115,675.0
-0.115,0.13,677.7777777777778
-0.105,0.115,680.5555555555555
-0.1,0.115,683.3333333333334
-0.1,0.105,686.1111111111111
-0.115,0.105,688.8888888888889
-0.095,0.115,691.6666666666666
-0.06,0.135,694.4444444444445
-0.05,0.115,697.2222222222222
-0.055,0.115,700.0
-0.05,0.09,702.7777777777778
-0.05,0.095,705.5555555555555
-0.03,0.12,708.3333333333334
-0.01,0.11,711.1111111111111
0.0,0.13,713.8888888888889
0.015,0.11,716.6666666666666
-0.005,0.095,719.4444444444445
0.025,0.095,722.2222222222222
0.035,0.105,725.0
0.06,0.1,727.7777777777778
0.085,0.1,730.5555555555555
0.105,0.095,733.3333333333334
0.1,0.08,736.1111111111111
0.11,0.09,738.8888888888889
0.13,0.105,741.6666666666666
0.17,0.105,744.4444444444445
0.205,0.11,747.2222222222222
0.215,0.09,750.0
0.235,0.085,752.7777777777778
0.25,0.09,755.5555555555555
0.285,0.095,758.3333333333334
0.305,0.11,761.1111111111111
0.345,0.105,763.8888888888889
0.36,0.09,766.6666666666666
0.38,0.07,769.4444444444445
0.395,0.075,772.2222222222222
0.435,0.09,775.0
0.46,0.095,777.7777777777778
0.495,0.085,780.5555555555555
0.515,0.085,783.3333333333334
0.535,0.065,786.1111111111111
0.54,0.07,788.8888888888889
0.58,0.07,791.6666666666666
0.625,0.08,794.4444444444445
0.655,0.07,797.2222222222222
0.67,0.05,800.0
0.69,0.055,802.7777777777778
0.7,0.06,805.5555555555555
0.73,0.08,808.3333333333334
0.75,0.08,811.1111111111111
0.785,0.085,813.8888888888889
0.805,0.07,816.6666666666666
0.8,0.07,819.4444444444445
0.795,0.06,822.2222222222222
0.805,0.09,825.0
0.81,0.095,827.7777777777778
0.79,0.095,830.5555555555555
0.76,0.095,833.3333333333334
0.72,0.075,836.1111111111111
0.675,0.085,838.8888888888889
0.63,0.09,841.6666666666666
0.58,0.11,844.4444444444445
0.55,0.105,847.2222222222222
0.48,0.11,850.0
0.42,0.095,852.7777777777778
0.335,0.105,855.5555555555555
0.285,0.12,858.3333333333334
0.23,0.13,861.1111111111111
0.17,0.135,863.8888888888889
0.105,0.11,866.6666666666666
0.04,0.1,869.4444444444445
-0.04,0.095,872.2222222222222
-0.075,0.105,875.0
-0.1,0.115,877.7777777777778
-0.135,0.105,880.5555555555555
-0.18,0.115,883.3333333333334
-0.23,0.105,886.1111111111111
-0.26,0.1,888.8888888888889
-0.275,0.115,891.6666666666666
-0.28,0.12,894.4444444444445
-0.27,0.115,897.2222222222222
-0.295,0.105,900.0
-0.325,0.095,902.7777777777778
-0.355,0.095,905.5555555555555
-0.35,0.105,908.3333333333334
-0.35,0.115,911.1111111111111
-0.35,0.12,913.8888888888889
-0.37,0.115,916.6666666666666
-0.39,0.095,919.4444444444445
-0.395,0.1,922.2222222222222
-0.39,0.11,925.0
-0.38,0.11,927.7777777777778
-0.385,0.12,930.5555555555555
-0.38,0.1,933.3333333333334
-0.41,0.11,936.1111111111111
-0.41,0.1,938.8888888888889
-0.415,0.13,941.6666666666666
-0.41,0.125,944.4444444444445
-0.39,0.115,947.2222222222222
-0.395,0.12,950.0
-0.41,0.1,952.7777777777778
-0.425,0.105,955.5555555555555
-0.415,0.12,958.3333333333334
-0.4,0.135,961.1111111111111
-0.385,0.12,963.8888888888889
-0.395,0.12,966.6666666666666
-0.41,0.11,969.4444444444445
-0.42,0.095,972.2222222222222
-0.405,0.115,975.0
-0.4,0.135,977.7777777777778
-0.39,0.13,980.5555555555555
-0.4,0.115,983.3333333333334
-0.405,0.105,986.1111111111111
-0.425,0.115,988.8888888888889
-0.43,0.12,991.6666666666666
-0.395,0.14,994.4444444444445
-0.395,0.135,997.2222222222222
-0.4,0.12,1000.0
-0.425,0.115,1002.7777777777778
-0.42,0.11,1005.5555555555555
-0.425,0.13,1008.3333333333334
-0.4,0.145,1011.1111111111111
-0.395,0.13,1013.8888888888889
-0.395,0.13,1016.6666666666666
-0.405,0.12,1019.4444444444445
-0.42,0.12,1022.2222222222222
-0.42,0.135,1025.0
-0.42,0.15,1027.7777777777778
-0.405,0.13,1030.5555555555557
-0.41,0.125,1033.3333333333333
-0.41,0.115,1036.111111111111
-0.43,0.115,1038.888888888889
-0.42,0.135,1041.6666666666667
-0.405,0.14,1044.4444444444443
-0.4,0.14,1047.2222222222222
-0.42,0.125,1050.0
-0.425,0.12,1052.7777777777778
-0.435,0.13,1055.5555555555557
-0.43,0.14,1058.3333333333333
-0.42,0.135,1061.111111111111
-0.4,0.15,1063.888888888889
-0.41,0.14,1066.6666666666667
-0.44,0.13,1069.4444444444443
-0.44,0.13,1072.2222222222222
-0.43,0.145,1075.0
-0.42,0.15,1077.7777777777778
-0.43,0.15,1080.5555555555557
-0.44,0.14,1083.3333333333333
-0.455,0.12,1086.111111111111
-0.455,0.125,1088.888888888889
-0.455,0.135,1091.6666666666667
-0.435,0.155,1094.4444444444443
-0.425,0.15,1097.2222222222222
-0.44,0.13,1100.0
-0.455,0.125,1102.7777777777778
-0.465,0.135,1105.5555555555557
-0.455,0.15,1108.3333333333333
-0.445,0.165,1111.111111111111
-0.43,0.155,1113.888888888889
-0.455,0.135,1116.6666666666667
-0.47,0.13,1119.4444444444443
-0.47,0.14,1122.2222222222222
-0.465,0.155,1125.0
-0.46,0.16,1127.7777777777778
-0.45,0.15,1130.5555555555557
-0.46,0.145,1133.3333333333333
-0.455,0.14,1136.111111111111
-0.465,0.135,1138.888888888889
-0.46,0.155,1141.6666666666667
-0.46,0.175,1144.4444444444443
-0.45,0.165,1147.2222222222222
-0.455,0.155,1150.0
-0.47,0.15,1152.7777777777778
-0.48,0.145,1155.5555555555557
-0.48,0.16,1158.3333333333333
-0.46,0.165,1161.111111111111
-0.45,0.175,1163.888888888889
-0.45,0.155,1166.6666666666667
-0.465,0.15,1169.4444444444443
-0.47,0.155,1172.2222222222222
-0.47,0.175,1175.0
-0.455,0.185,1177.7777777777778
-0.44,0.19,1180.5555555555557
-0.45,0.165,1183.3333333333333
-0.46,0.155,1186.111111111111
-0.47,0.16,1188.888888888889
-0.46,0.17,1191.6666666666667
-0.455,0.175,1194.4444444444443
-0.46,0.175,1197.2222222222222
-0.45,0.18,1200.0
-0.465,0.155,1202.7777777777778
-0.48,0.17,1205.5555555555557
-0.465,0.185,1208.3333333333333
-0.445,0.195,1211.111111111111
-0.445,0.195,1213.888888888889
-0.455,0.185,1216.6666666666667
-0.475,0.17,1219.4444444444443
-0.465,0.185,1222.2222222222222
-0.47,0.195,1225.0
-0.445,0.21,1227.7777777777778
-0.45,0.195,1230.5555555555557
-0.455,0.19,1233.3333333333333
-0.465,0.19,1236.111111111111
-0.475,0.185,1238.888888888889
-0.45,0.21,1241.6666666666667
-0.455,0.215,1244.4444444444443
-0.435,0.21,1247.2222222222222
-0.455,0.205,1250.0
-0.475,0.2,1252.7777777777778
-0.47,0.215,1255.5555555555557
-0.46,0.21,1258.3333333333333
-0.46,0.23,1261.111111111111
-0.45,0.225,1263.888888888889
-0.44,0.22,1266.6666666666667
-0.47,0.21,1269.4444444444443
-0.45,0.205,1272.2222222222222
-0.455,0.225,1275.0
-0.435,0.24,1277.7777777777778
-0.43,0.24,1280.5555555555557
-0.43,0.23,1283.3333333333333
-0.445,0.215,1286.111111111111
-0.445,0.23,1288.888888888889
-0.455,0.23,1291.6666666666667
-0.43,0.25,1294.4444444444443
-0.42,0.255,1297.2222222222222
-0.425,0.24,1300.0
-0.45,0.22,1302.7777777777778
-0.445,0.23,1305.5555555555557
-0.445,0.25,1308.3333333333333
-0.425,0.255,1311.111111111111
-0.425,0.265,1313.888888888889
-0.445,0.245,1316.6666666666667
-0.43,0.235,1319.4444444444443
-0.46,0.25,1322.2222222222222
-0.435,0.26,1325.0
-0.44,0.27,1327.7777777777778
-0.43,0.27,1330.5555555555557
-0.435,0.255,1333.3333333333333
-0.445,0.245,1336.111111111111
-0.445,0.265,1338.888888888889
-0.435,0.26,1341.6666666666667
-0.435,0.28,1344.4444444444443
-0.43,0.275,1347.2222222222222
-0.425,0.265,1350.0
-0.45,0.26,1352.7777777777778
-0.445,0.26,1355.5555555555557
-0.43,0.28,1358.3333333333333
-0.425,0.285,1361.111111111111
-0.42,0.29,1363.888888888889
-0.425,0.28,1366.6666666666667
-0.435,0.27,1369.4444444444443
-0.435,0.27,1372.2222222222222
-0.435,0.29,1375.0
-0.42,0.3,1377.7777777777778
-0.405,0.3,1380.5555555555557
-0.425,0.295,1383.3333333333333
-0.435,0.28,1386.111111111111
-0.44,0.275,1388.888888888889
-0.425,0.3,1391.6666666666667
-0.41,0.315,1394.4444444444443
-0.4,0.295,1397.2222222222222
-0.4,0.3,1400.0
-0.415,0.285,1402.7777777777778
-0.425,0.31,1405.5555555555557
-0.42,0.315,1408.3333333333333
-0.405,0.325,1411.111111111111
-0.4,0.325,1413.888888888889
-0.415,0.325,1416.6666666666667
-0.415,0.31,1419.4444444444443
-0.42,0.315,1422.2222222222222
-0.42,0.315,1425.0
-0.405,0.345,1427.7777777777778
-0.39,0.35,1430.5555555555557
-0.405,0.345,1433.3333333333333
-0.415,0.35,1436.111111111111
-0.405,0.355,1438.888888888889
-0.405,0.38,1441.6666666666667
-0.38,0.39,1444.4444444444443
-0.36,0.39,1447.2222222222222
-0.355,0.37,1450.0
-0.36,0.355,1452.7777777777778
-0.36,0.355,1455.5555555555557
-0.335,0.365,1458.3333333333333
-0.335,0.375,1461.111111111111
-0.325,0.36,1463.888888888889
-0.325,0.345,1466.6666666666667
-0.32,0.315,1469.4444444444443
-0.315,0.32,1472.2222222222222
-0.31,0.325,1475.0
-0.305,0.345,1477.7777777777778
-0.305,0.35,1480.5555555555557
-0.305,0.345,1483.3333333333333
-0.325,0.345,1486.111111111111
-0.345,0.355,1488.888888888889
-0.33,0.365,1491.6666666666667
-0.31,0.38,1494.4444444444443
-0.315,0.37,1497.2222222222222
-0.33,0.365,1500.0
-0.35,0.37,1502.7777777777778
-0.375,0.385,1505.5555555555557
-0.37,0.39,1508.3333333333333
-0.375,0.39,1511.111111111111
-0.37,0.38,1513.888888888889
-0.365,0.365,1516.6666666666667
-0.375,0.375,1519.4444444444443
-0.395,0.37,1522.2222222222222
-0.385,0.385,1525.0
-0.37,0.41,1527.7777777777778
-0.35,0.4,1530.5555555555557
-0.365,0.385,1533.3333333333333
-0.375,0.395,1536.111111111111
-0.385,0.395,1538.888888888889
-0.36,0.405,1541.6666666666667
-0.365,0.415,1544.4444444444443
-0.36,0.405,1547.2222222222222
-0.35,0.405,1550.0
-0.365,0.4,1552.7777777777778
-0.365,0.41,1555.5555555555557
-0.355,0.43,1558.3333333333333
-0.345,0.44,1561.111111111111
-0.33,0.445,1563.888888888889
-0.325,0.45,1566.6666666666667
-0.335,0.46,1569.4444444444443
-0.335,0.49,1572.2222222222222
-0.325,0.535,1575.0
-0.33,0.595,1577.7777777777778
-0.325,0.625,1580.5555555555557
-0.355,0.64,1583.3333333333333
-0.395,0.64,1586.111111111111
-0.435,0.625,1588.888888888889
-0.455,0.595,1591.6666666666667
-0.43,0.54,1594.4444444444443
-0.36,0.44,1597.2222222222222
-0.24,0.33,1600.0
0.0,0.21,1602.7777777777778
0.36,0.115,1605.5555555555557
0.85,0.06,1608.3333333333333
1.34,0.07,1611.111111111111
1.73,0.105,1613.888888888889
2.0,0.18,1616.6666666666667
2.11,0.265,1619.4444444444443
2.015,0.35,1622.2222222222222
1.705,0.415,1625.0
1.065,0.43,1627.7777777777778
0.425,0.415,1630.5555555555557
-0.215,0.405,1633.3333333333333
-0.66,0.44,1636.111111111111
-0.605,0.47,1638.888888888889
-0.495,0.5,1641.6666666666667
-0.45,0.53,1644.4444444444443
-0.465,0.52,1647.2222222222222
-0.5,0.5,1650.0
-0.495,0.505,1652.7777777777778
-0.48,0.51,1655.5555555555557
-0.44,0.54,1658.3333333333333
-0.38,0.55,1661.111111111111
-0.315,0.55,1663.888888888889
-0.285,0.53,1666.6666666666667
-0.27,0.535,1669.4444444444443
-0.265,0.53,1672.2222222222222
-0.26,0.545,1675.0
-0.24,0.565,1677.7777777777778
-0.24,0.56,1680.5555555555557
-0.235,0.55,1683.3333333333333
-0.27,0.55,1686.111111111111
-0.255,0.56,1688.888888888889
-0.255,0.56,1691.6666666666667
-0.24,0.58,1694.4444444444443
-0.225,0.57,1697.2222222222222
-0.22,0.56,1700.0
-0.235,0.55,1702.7777777777778
-0.235,0.55,1705.5555555555557
-0.23,0.58,1708.3333333333333
-0.205,0.585,1711.111111111111
-0.21,0.58,1713.888888888889
-0.2,0.57,1716.6666666666667
-0.215,0.565,1719.4444444444443
-0.23,0.57,1722.2222222222222
-0.215,0.58,1725.0
-0.2,0.595,1727.7777777777778
-0.2,0.59,1730.5555555555557
-0.2,0.585,1733.3333333333333
-0.21,0.57,1736.111111111111
-0.19,0.59,1738.888888888889
-0.19,0.59,1741.6666666666667
-0.185,0.625,1744.4444444444443
-0.17,0.605,1747.2222222222222
-0.16,0.59,1750.0
-0.175,0.59,1752.7777777777778
-0.18,0.575,1755.5555555555557
-0.155,0.6,1758.3333333333333
-0.145,0.62,1761.111111111111
-0.14,0.61,1763.888888888889
-0.14,0.615,1766.6666666666667
-0.165,0.6,1769.4444444444443
-0.15,0.605,1772.2222222222222
-0.165,0.615,1775.0
-0.14,0.625,1777.7777777777778
-0.13,0.63,1780.5555555555557
-0.125,0.605,1783.3333333333333
-0.14,0.605,1786.111111111111
-0.145,0.615,1788.888888888889
-0.135,0.63,1791.6666666666667
-0.13,0.645,1794.4444444444443
-0.11,0.635,1797.2222222222222
-0.11,0.605,1800.0
-0.105,0.6,1802.7777777777778
-0.1,0.605,1805.5555555555557
-0.1,0.63,1808.3333333333333
-0.07,0.64,1811.111111111111
-0.05,0.635,1813.888888888889
-0.045,0.625,1816.6666666666667
-0.055,0.615,1819.4444444444443
-0.06,0.62,1822.2222222222222
-0.035,0.645,1825.0
-0.02,0.655,1827.7777777777778
0.005,0.655,1830.5555555555557
0.01,0.635,1833.3333333333333
0.005,0.625,1836.111111111111
0.005,0.635,1838.888888888889
0.015,0.65,1841.6666666666667
0.055,0.665,1844.4444444444443
0.055,0.65,1847.2222222222222
0.075,0.64,1850.0
0.08,0.62,1852.7777777777778
0.09,0.635,1855.5555555555557
0.12,0.655,1858.3333333333333
0.135,0.66,1861.111111111111
0.175,0.65,1863.888888888889
0.185,0.645,1866.6666666666667
0.19,0.63,1869.4444444444443
0.19,0.64,1872.2222222222222
0.21,0.655,1875.0
0.255,0.65,1877.7777777777778
0.275,0.65,1880.5555555555557
0.31,0.64,1883.3333333333333
0.315,0.64,1886.111111111111
0.34,0.625,1888.888888888889
0.37,0.645,1891.6666666666667
0.415,0.66,1894.4444444444443
0.45,0.655,1897.2222222222222
0.475,0.645,1900.0
0.505,0.635,1902.7777777777778
0.525,0.64,1905.5555555555557
0.55,0.65,1908.3333333333333
0.605,0.655,1911.111111111111
0.64,0.645,1913.888888888889
0.665,0.64,1916.6666666666667
0.68,0.63,1919.4444444444443
0.69,0.635,1922.2222222222222
0.72,0.65,1925.0
0.77,0.65,1927.7777777777778
0.795,0.655,1930.5555555555557
0.805,0.645,1933.3333333333333
0.825,0.64,1936.111111111111
0.84,0.635,1938.888888888889
0.855,0.65,1941.6666666666667
0.88,0.675,1944.4444444444443
0.895,0.675,1947.2222222222222
0.86,0.67,1950.0
0.835,0.665,1952.7777777777778
0.82,0.665,1955.5555555555557
0.79,0.675,1958.3333333333333
0.76,0.69,1961.111111111111
0.725,0.705,1963.888888888889
0.665,0.69,1966.6666666666667
0.595,0.68,1969.4444444444443
0.515,0.695,1972.2222222222222
0.455,0.7,1975.0
0.395,0.71,1977.7777777777778
0.34,0.7,1980.5555555555557
0.28,0.7,1983.3333333333333
0.205,0.69,1986.111111111111
0.125,0.695,1988.888888888889
0.085,0.705,1991.6666666666667
0.05,0.715,1994.4444444444443
0.005,0.725,1997.2222222222222
-0.065,0.71,2000.0
-0.105,0.705,2002.7777777777778
-0.135,0.695,2005.5555555555557
-0.155,0.72,2008.3333333333333
-0.17,0.72,2011.111111111111
-0.175,0.72,2013.888888888889
-0.21,0.715,2016.6666666666667
-0.24,0.705,2019.4444444444443
-0.255,0.71,2022.2222222222222
-0.255,0.72,2025.0
-0.255,0.735,2027.7777777777778
-0.265,0.725,2030.5555555555557
-0.28,0.72,2033.3333333333333
-0.3,0.695,2036.111111111111
-0.305,0.71,2038.888888888889
-0.29,0.725,2041.6666666666667
-0.285,0.72,2044.4444444444443
-0.29,0.725,2047.2222222222222
-0.305,0.72,2050.0
-0.305,0.725,2052.777777777778
-0.335,0.71,2055.5555555555557
-0.32,0.715,2058.3333333333335
-0.305,0.74,2061.1111111111113
-0.3,0.73,2063.8888888888887
-0.29,0.72,2066.6666666666665
-0.315,0.715,2069.4444444444443
-0.315,0.715,2072.222222222222
-0.315,0.72,2075.0
-0.305,0.745,2077.777777777778
-0.295,0.73,2080.5555555555557
-0.305,0.71,2083.3333333333335
-0.31,0.71,2086.1111111111113
-0.315,0.725,2088.8888888888887
-0.31,0.73,2091.6666666666665
-0.295,0.755,2094.4444444444443
-0.29,0.755,2097.222222222222
-0.3,0.725,2100.0
-0.305,0.715,2102.777777777778
-0.305,0.72,2105.5555555555557
-0.31,0.73,2108.3333333333335
-0.29,0.74,2111.1111111111113
-0.275,0.74,2113.8888888888887
-0.29,0.72,2116.6666666666665
-0.305,0.72,2119.4444444444443
-0.31,0.73,2122.222222222222
-0.29,0.73,2125.0
-0.27,0.76,2127.777777777778
-0.275,0.745,2130.5555555555557
-0.285,0.73,2133.3333333333335
-0.295,0.73,2136.1111111111113
-0.305,0.71,2138.8888888888887
-0.29,0.75,2141.6666666666665
-0.28,0.76,2144.4444444444443
-0.275,0.755,2147.222222222222
-0.28,0.735,2150.0
-0.305,0.725,2152.777777777778
-0.305,0.72,2155.5555555555557
-0.29,0.725,2158.3333333333335
-0.3,0.74,2161.1111111111113
-0.28,0.745,2163.8888888888887
-0.285,0.735,2166.6666666666665
-0.295,0.725,2169.4444444444443
-0.3,0.725,2172.222222222222
-0.29,0.72,2175.0
-0.29,0.735,2177.777777777778
-0.27,0.72,2180.5555555555557
-0.295,0.715,2183.3333333333335
-0.31,0.705,2186.1111111111113
-0.32,0.71,2188.8888888888887
-0.31,0.725,2191.6666666666665
-0.295,0.745,2194.4444444444443
-0.275,0.745,2197.222222222222
-0.29,0.735,2200.0
-0.3,0.725,2202.777777777778
-0.325,0.72,2205.5555555555557
-0.31,0.72,2208.3333333333335
-0.305,0.74,2211.1111111111113
-0.295,0.725,2213.8888888888887
-0.295,0.72,2216.6666666666665
-0.31,0.7,2219.4444444444443
-0.315,0.72,2222.222222222222
-0.315,0.725,2225.0
-0.295,0.735,2227.777777777778
-0.29,0.715,2230.5555555555557
-0.295,0.72,2233.3333333333335
-0.31,0.715,2236.1111111111113
-0.32,0.715,2238.8888888888887
-0.325,0.725,2241.6666666666665
-0.3,0.73,2244.4444444444443
-0.3,0.73,2247.222222222222
-0.3,0.72,2250.0
-0.31,0.705,2252.777777777778
-0.32,0.715,2255.5555555555557
-0.305,0.72,2258.3333333333335
-0.305,0.73,2261.1111111111113
-0.295,0.715,2263.8888888888887
-0.295,0.715,2266.6666666666665
-0.305,0.7,2269.4444444444443
-0.31,0.715,2272.222222222222
-0.31,0.71,2275.0
-0.305,0.73,2277.777777777778
-0.3,0.725,2280.5555555555557
-0.295,0.71,2283.3333333333335
-0.305,0.695,2286.1111111111113
-0.305,0.695,2288.8888888888887
-0.3,0.715,2291.6666666666665
-0.28,0.72,2294.4444444444443
-0.28,0.725,2297.222222222222
-0.285,0.705,2300.0
-0.295,0.695,2302.777777777778
-0.295,0.695,2305.5555555555557
-0.3,0.7,2308.3333333333335
-0.275,0.72,2311.1111111111113
-0.295,0.715,2313.8888888888887
-0.28,0.695,2316.6666666666665
-0.3,0.69,2319.4444444444443
-0.305,0.69,2322.222222222222
-0.295,0.7,2325.0
-0.275,0.715,2327.777777777778
-0.28,0.705,2330.5555555555557
-0.265,0.69,2333.3333333333335
-0.285,0.685,2336.1111111111113
-0.305,0.685,2338.8888888888887
-0.29,0.71,2341.6666666666665
-0.285,0.715,2344.4444444444443
-0.26,0.715,2347.222222222222
-0.275,0.695,2350.0
-0.28,0.69,2352.777777777778
-0.285,0.685,2355.5555555555557
-0.275,0.69,2358.3333333333335
-0.265,0.705,2361.1111111111113
-0.27,0.7,2363.8888888888887
-0.27,0.7,2366.6666666666665
-0.295,0.685,2369.4444444444443
-0.29,0.68,2372.222222222222
-0.295,0.695,2375.0
-0.265,0.705,2377.777777777778
-0.255,0.685,2380.5555555555557
-0.255,0.675,2383.3333333333335
-0.285,0.665,2386.1111111111113
-0.285,0.665,2388.8888888888887
-0.285,0.685,2391.6666666666665
-0.26,0.69,2394.4444444444443
-0.255,0.69,2397.222222222222
-0.255,0.68,2400.0
-0.27,0.675,2402.777777777778
-0.285,0.665,2405.5555555555557
-0.27,0.675,2408.3333333333335
-0.25,0.695,2411.1111111111113
-0.26,0.685,2413.8888888888887
-0.255,0.68,2416.6666666666665
-0.27,0.67,2419.4444444444443
-0.285,0.67,2422.222222222222
-0.265,0.67,2425.0
-0.25,0.7,2427.777777777778
-0.24,0.675,2430.5555555555557
-0.245,0.68,2433.3333333333335
-0.27,0.665,2436.1111111111113
-0.265,0.67,2438.8888888888887
-0.255,0.67,2441.6666666666665
-0.24,0.695,2444.4444444444443
-0.23,0.68,2447.222222222222
-0.235,0.66,2450.0
-0.255,0.655,2452.777777777778
-0.27,0.655,2455.5555555555557
-0.255,0.675,2458.3333333333335
-0.25,0.675,2461.1111111111113
-0.22,0.68,2463.8888888888887
-0.235,0.655,2466.6666666666665
-0.265,0.65,2469.4444444444443
-0.25,0.66,2472.222222222222
-0.26,0.66,2475.0
-0.24,0.67,2477.777777777778
-0.225,0.665,2480.5555555555557
-0.225,0.65,2483.3333333333335
-0.235,0.66,2486.1111111111113
-0.24,0.66,2488.8888888888887
-0.235,0.65,2491.6666666666665
-0.23,0.67,2494.4444444444443
-0.225,0.655,2497.222222222222
-0.225,0.65,2500.0
-0.24,0.635,2502.777777777778
-0.245,0.64,2505.5555555555557
-0.235,0.65,2508.3333333333335
-0.22,0.675,2511.1111111111113
-0.215,0.66,2513.8888888888887
-0.22,0.65,2516.6666666666665
-0.22,0.66,2519.4444444444443
-0.225,0.66,2522.222222222222
-0.22,0.695,2525.0
-0.195,0.695,2527.777777777778
-0.175,0.675,2530.5555555555557
-0.175,0.67,2533.3333333333335
-0.18,0.64,2536.1111111111113
-0.18,0.635,2538.8888888888887
-0.175,0.65,2541.6666666666665
-0.17,0.645,2544.4444444444443
-0.15,0.635,2547.222222222222
-0.15,0.615,2550.0
-0.14,0.595,2552.777777777778
-0.145,0.6,2555.5555555555557
-0.15,0.625,2558.3333333333335
-0.13,0.625,2561.1111111111113
-0.13,0.63,2563.8888888888887
-0.135,0.61,2566.6666666666665
-0.135,0.61,2569.4444444444443
-0.15,0.595,2572.222222222222
-0.15,0.62,2575.0
-0.155,0.62,2577.777777777778
-0.155,0.62,2580.5555555555557
-0.17,0.6,2583.3333333333335
-0.195,0.58,2586.1111111111113
-0.215,0.6,2588.8888888888887
-0.21,0.61,2591.6666666666665
-0.185,0.615,2594.4444444444443
-0.18,0.61,2597.222222222222
-0.195,0.61,2600.0
-0.21,0.59,2602.777777777778
-0.22,0.595,2605.5555555555557
-0.21,0.615,2608.3333333333335
-0.18,0.62,2611.1111111111113
-0.17,0.61,2613.8888888888887
-0.185,0.6,2616.6666666666665
-0.205,0.59,2619.4444444444443
-0.205,0.595,2622.222222222222
-0.2,0.61,2625.0
-0.18,0.615,2627.777777777778
-0.175,0.62,2630.5555555555557
-0.18,0.615,2633.3333333333335
-0.185,0.595,2636.1111111111113
-0.18,0.61,2638.8888888888887
-0.16,0.655,2641.6666666666665
-0.14,0.72,2644.4444444444443
-0.145,0.745,2647.222222222222
-0.16,0.76,2650.0
-0.225,0.765,2652.777777777778
-0.26,0.755,2655.5555555555557
-0.295,0.74,2658.3333333333335
-0.29,0.705,2661.1111111111113
-0.26,0.61,2663.8888888888887
-0.165,0.505,2666.6666666666665
0.03,0.385,2669.4444444444443
0.39,0.29,2672.222222222222
0.875,0.225,2675.0
1.385,0.215,2677.777777777778
1.795,0.26,2680.5555555555557
2.05,0.345,2683.3333333333335
2.11,0.455,2686.1111111111113
1.91,0.525,2688.8888888888887
1.39,0.575,2691.6666666666665
0.75,0.565,2694.4444444444443
0.11,0.56,2697.222222222222
-0.53,0.56,2700.0
-0.49,0.57,2702.777777777778
-0.37,0.585,2705.5555555555557
-0.33,0.595,2708.3333333333335
-0.32,0.61,2711.1111111111113
-0.34,0.595,2713.8888888888887
-0.34,0.585,2716.6666666666665
-0.33,0.58,2719.4444444444443
-0.305,0.58,2722.222222222222
-0.24,0.6,2725.0
-0.16,0.61,2727.777777777778
-0.12,0.6,2730.5555555555557
-0.1,0.595,2733.3333333333335
-0.105,0.57,2736.1111111111113
-0.12,0.58,2738.8888888888887
-0.105,0.59,2741.6666666666665
-0.095,0.595,2744.4444444444443
-0.075,0.6,2747.222222222222
-0.085,0.57,2750.0
-0.1,0.57,2752.777777777778
-0.1,0.575,2755.5555555555557
-0.105,0.575,2758.3333333333335
-0.07,0.59,2761.1111111111113
-0.065,0.58,2763.8888888888887
-0.06,0.58,2766.6666666666665
-0.08,0.565,2769.4444444444443
-0.095,0.565,2772.222222222222
-0.055,0.595,2775.0
-0.04,0.575,2777.777777777778
-0.04,0.565,2780.5555555555557
-0.055,0.545,2783.3333333333335
-0.06,0.56,2786.1111111111113
-0.06,0.58,2788.8888888888887
-0.04,0.58,2791.6666666666665
-0.03,0.58,2794.4444444444443
-0.03,0.56,2797.222222222222
-0.04,0.54,2800.0
-0.065,0.54,2802.777777777778
-0.04,0.55,2805.5555555555557
-0.025,0.56,2808.3333333333335
-0.025,0.55,2811.1111111111113
-0.015,0.55,2813.8888888888887
-0.02,0.55,2816.6666666666665
-0.025,0.55,2819.4444444444443
-0.01,0.56,2822.222222222222
0.0,0.57,2825.0
0.02,0.565,2827.777777777778
0.005,0.54,2830.5555555555557
0.0,0.535,2833.3333333333335
0.005,0.535,2836.1111111111113
0.015,0.54,2838.8888888888887
0.03,0.555,2841.6666666666665
0.045,0.55,2844.4444444444443
0.06,0.54,2847.222222222222
0.035,0.525,2850.0
0.02,0.52,2852.777777777778
0.035,0.545,2855.5555555555557
0.055,0.54,2858.3333333333335
0.06,0.53,2861.1111111111113
0.05,0.515,2863.8888888888887
0.055,0.515,2866.6666666666665
0.06,0.525,2869.4444444444443
0.075,0.53,2872.222222222222
0.09,0.54,2875.0
0.1,0.52,2877.777777777778
0.105,0.505,2880.5555555555557
0.105,0.505,2883.3333333333335
0.1,0.51,2886.1111111111113
0.115,0.52,2888.8888888888887
0.15,0.52,2891.6666666666665
0.16,0.515,2894.4444444444443
0.165,0.495,2897.222222222222
0.17,0.495,2900.0
0.17,0.49,2902.777777777778
0.18,0.495,2905.5555555555557
0.21,0.5,2908.3333333333335
0.23,0.5,2911.1111111111113
0.255,0.475,2913.8888888888887
0.25,0.47,2916.6666666666665
0.25,0.47,2919.4444444444443
0.27,0.49,2922.222222222222
0.3,0.5,2925.0
0.34,0.495,2927.777777777778
0.345,0.475,2930.5555555555557
0.35,0.46,2933.3333333333335
0.35,0.455,2936.1111111111113
0.385,0.47,2938.8888888888887
0.41,0.485,2941.6666666666665
0.45,0.47,2944.4444444444443
0.46,0.44,2947.222222222222
0.475,0.43,2950.0
0.495,0.44,2952.777777777778
0.53,0.45,2955.5555555555557
0.565,0.45,2958.3333333333335
0.59,0.445,2961.1111111111113
0.615,0.435,2963.8888888888887
0.625,0.415,2966.6666666666665
0.645,0.41,2969.4444444444443
0.675,0.42,2972.222222222222
0.705,0.435,2975.0
0.735,0.425,2977.777777777778
0.755,0.415,2980.5555555555557
0.765,0.39,2983.3333333333335
0.8,0.395,2986.1111111111113
0.81,0.405,2988.8888888888887
0.845,0.41,2991.6666666666665
0.88,0.41,2994.4444444444443
0.88,0.395,2997.222222222222
0.895,0.39,3000.0
0.9,0.395,3002.777777777778
0.92,0.405,3005.5555555555557
0.94,0.42,3008.3333333333335
0.94,0.415,3011.1111111111113
0.93,0.42,3013.8888888888887
0.895,0.415,3016.6666666666665
0.85,0.42,3019.4444444444443
0.82,0.435,3022.222222222222
0.795,0.45,3025.0
0.755,0.455,3027.777777777778
0.695,0.45,3030.5555555555557
0.625,0.435,3033.3333333333335
0.55,0.44,3036.1111111111113
0.51,0.445,3038.8888888888887
0.45,0.46,3041.6666666666665
0.4,0.455,3044.4444444444443
0.325,0.445,3047.222222222222
0.27,0.43,3050.0
0.205,0.435,3052.777777777778
0.14,0.455,3055.5555555555557
0.115,0.445,3058.3333333333335
0.09,0.44,3061.1111111111113
0.03,0.43,3063.8888888888887
-0.015,0.425,3066.6666666666665
-0.045,0.44,3069.4444444444443
-0.07,0.435,3072.222222222222
-0.085,0.445,3075.0
-0.095,0.43,3077.777777777778
-0.125,0.43,3080.5555555555557
-0.16,0.42,3083.3333333333335
-0.175,0.415,3086.1111111111113
-0.185,0.435,3088.8888888888887
-0.19,0.45,3091.6666666666665
-0.195,0.435,3094.4444444444443
-0.205,0.42,3097.222222222222
-0.23,0.415,3100.0
-0.25,0.42,3102.777777777778
-0.25,0.435,3105.5555555555557
-0.23,0.445,3108.3333333333335
-0.235,0.435,3111.1111111111113
-0.24,0.42,3113.8888888888887
-0.25,0.41,3116.6666666666665
-0.255,0.41,3119.4444444444443
-0.265,0.42,3122.222222222222
-0.245,0.44,3125.0
-0.235,0.42,3127.777777777778
-0.24,0.405,3130.5555555555557
-0.265,0.395,3133.3333333333335
-0.27,0.4,3136.1111111111113
-0.265,0.41,3138.8888888888887
-0.245,0.425,3141.6666666666665
-0.24,0.405,3144.4444444444443
-0.24,0.395,3147.222222222222
-0.255,0.375,3150.0
-0.265,0.39,3152.777777777778
-0.26,0.4,3155.5555555555557
-0.24,0.415,3158.3333333333335
-0.24,0.4,3161.1111111111113
-0.255,0.385,3163.8888888888887
-0.275,0.385,3166.6666666666665
-0.26,0.39,3169.4444444444443
-0.27,0.395,3172.222222222222
-0.255,0.405,3175.0
-0.255,0.4,3177.777777777778
-0.265,0.4,3180.5555555555557
-0.26,0.37,3183.3333333333335
-0.26,0.38,3186.1111111111113
-0.26,0.39,3188.8888888888887
-0.25,0.41,3191.6666666666665
-0.235,0.385,3194.4444444444443
-0.245,0.385,3197.222222222222
-0.265,0.365,3200.0
-0.265,0.38,3202.777777777778
-0.255,0.395,3205.5555555555557
-0.255,0.4,3208.3333333333335
-0.25,0.39,3211.1111111111113
-0.25,0.365,3213.8888888888887
-0.265,0.375,3216.6666666666665
-0.26,0.36,3219.4444444444443
-0.265,0.39,3222.222222222222
-0.255,0.39,3225.0
-0.25,0.385,3227.777777777778
-0.25,0.37,3230.5555555555557
-0.265,0.35,3233.3333333333335
-0.265,0.37,3236.1111111111113
-0.27,0.37,3238.8888888888887
-0.26,0.375,3241.6666666666665
-0.26,0.36,3244.4444444444443
-0.26,0.36,3247.222222222222
-0.27,0.35,3250.0
-0.29,0.355,3252.777777777778
-0.275,0.365,3255.5555555555557
-0.27,0.385,3258.3333333333335
-0.265,0.37,3261.1111111111113
-0.275,0.35,3263.8888888888887
-0.29,0.34,3266.6666666666665
-0.3,0.335,3269.4444444444443
-0.305,0.35,3272.222222222222
-0.295,0.36,3275.0
-0.285,0.355,3277.777777777778
-0.285,0.35,3280.5555555555557
-0.31,0.34,3283.3333333333335
-0.31,0.34,3286.1111111111113
-0.31,0.35,3288.8888888888887
-0.3,0.36,3291.6666666666665
-0.3,0.35,3294.4444444444443
-0.295,0.345,3297.222222222222
-0.31,0.33,3300.0
-0.32,0.325,3302.777777777778
-0.32,0.345,3305.5555555555557
-0.305,0.355,3308.3333333333335
-0.305,0.345,3311.1111111111113
-0.315,0.33,3313.8888888888887
-0.34,0.33,3316.6666666666665
-0.34,0.32,3319.4444444444443
-0.35,0.335,3322.222222222222
-0.33,0.345,3325.0
-0.325,0.335,3327.777777777778
-0.34,0.325,3330.5555555555557
-0.36,0.315,3333.3333333333335
-0.36,0.315,3336.1111111111113
-0.345,0.325,3338.8888888888887
-0.335,0.335,3341.6666666666665
-0.335,0.325,3344.4444444444443
-0.33,0.32,3347.222222222222
-0.345,0.305,3350.0
-0.35,0.3,3352.777777777778
-0.35,0.32,3355.5555555555557
-0.345,0.32,3358.3333333333335
-0.345,0.32,3361.1111111111113
-0.35,0.305,3363.8888888888887
-0.35,0.285,3366.6666666666665
-0.355,0.285,3369.4444444444443
-0.345,0.315,3372.222222222222
-0.335,0.315,3375.0
-0.32,0.31,3377.777777777778
-0.34,0.3,3380.5555555555557
-0.355,0.285,3383.3333333333335
-0.365,0.29,3386.1111111111113
-0.37,0.3,3388.8888888888887
-0.355,0.31,3391.6666666666665
-0.35,0.305,3394.4444444444443
-0.345,0.295,3397.222222222222
-0.35,0.27,3400.0
-0.36,0.28,3402.777777777778
-0.385,0.295,3405.5555555555557
-0.36,0.3,3408.3333333333335
-0.34,0.305,3411.1111111111113
-0.365,0.285,3413.8888888888887
-0.37,0.275,3416.6666666666665
-0.36,0.27,3419.4444444444443
-0.365,0.29,3422.222222222222
-0.365,0.3,3425.0
-0.345,0.29,3427.777777777778
-0.37,0.27,3430.5555555555557
-0.37,0.275,3433.3333333333335
-0.38,0.28,3436.1111111111113
-0.375,0.29,3438.8888888888887
-0.365,0.29,3441.6666666666665
-0.355,0.285,3444.4444444444443
-0.355,0.27,3447.222222222222
-0.38,0.255,3450.0
-0.38,0.255,3452.777777777778
-0.365,0.26,3455.5555555555557
-0.36,0.275,3458.3333333333335
-0.355,0.28,3461.1111111111113
-0.37,0.275,3463.8888888888887
-0.37,0.255,3466.6666666666665
-0.38,0.255,3469.4444444444443
-0.375,0.275,3472.222222222222
-0.365,0.275,3475.0
-0.36,0.27,3477.777777777778
-0.365,0.255,3480.5555555555557
-0.395,0.25,3483.3333333333335
-0.39,0.25,3486.1111111111113
-0.38,0.265,3488.8888888888887
-0.385,0.275,3491.6666666666665
-0.365,0.255,3494.4444444444443
-0.37,0.25,3497.222222222222
-0.38,0.24,3500.0
-0.395,0.25,3502.777777777778
-0.385,0.25,3505.5555555555557
-0.375,0.265,3508.3333333333335
-0.365,0.265,3511.1111111111113
-0.37,0.275,3513.8888888888887
-0.37,0.255,3516.6666666666665
-0.385,0.265,3519.4444444444443
-0.375,0.29,3522.222222222222
-0.34,0.295,3525.0
-0.335,0.285,3527.777777777778
-0.32,0.265,3530.5555555555557
-0.325,0.245,3533.3333333333335
-0.335,0.235,3536.1111111111113
-0.335,0.235,3538.8888888888887
-0.325,0.235,3541.6666666666665
-0.29,0.215,3544.4444444444443
-0.29,0.2,3547.222222222222
-0.295,0.195,3550.0
-0.315,0.195,3552.777777777778
-0.32,0.22,3555.5555555555557
-0.31,0.23,3558.3333333333335
-0.31,0.22,3561.1111111111113
-0.315,0.215,3563.8888888888887
-0.33,0.2,3566.6666666666665
-0.35,0.215,3569.4444444444443
-0.36,0.22,3572.222222222222
-0.36,0.24,3575.0
-0.36,0.22,3577.777777777778
-0.395,0.2,3580.5555555555557
-0.415,0.205,3583.3333333333335
-0.44,0.195,3586.1111111111113
-0.425,0.22,3588.8888888888887
-0.42,0.23,3591.6666666666665
-0.4,0.22,3594.4444444444443
-0.405,0.215,3597.222222222222
-0.435,0.2,3600.0
-0.43,0.195,3602.777777777778
-0.425,0.205,3605.5555555555557
-0.4,0.21,3608.3333333333335
-0.4,0.21,3611.1111111111113
-0.395,0.2,3613.8888888888887
-0.42,0.19,3616.6666666666665
-0.425,0.185,3619.4444444444443
-0.415,0.195,3622.222222222222
-0.4,0.205,3625.0
-0.4,0.195,3627.777777777778
-0.4,0.2,3630.5555555555557
-0.41,0.2,3633.3333333333335
-0.405,0.215,3636.1111111111113
-0.39,0.245,3638.8888888888887
-0.385,0.285,3641.6666666666665
-0.38,0.33,3644.4444444444443
-0.41,0.35,3647.222222222222
-0.435,0.37,3650.0
-0.49,0.37,3652.777777777778
-0.505,0.38,3655.5555555555557
-0.51,0.35,3658.3333333333335
-0.51,0.28,3661.1111111111113
-0.47,0.175,3663.8888888888887
-0.355,0.06,3666.6666666666665
-0.1,-0.05,3669.4444444444443
0.295,-0.16,3672.222222222222
0.77,-0.22,3675.0
1.24,-0.23,3677.777777777778
1.645,-0.205,3680.5555555555557
1.87,-0.12,3683.3333333333335
1.95,-0.005,3686.1111111111113
1.85,0.08,3688.8888888888887
1.49,0.145,3691.6666666666665
0.85,0.14,3694.4444444444443
0.21,0.125,3697.222222222222
-0.43,0.13,3700.0
-0.815,0.16,3702.777777777778
-0.7,0.2,3705.5555555555557
-0.58,0.215,3708.3333333333335
-0.575,0.21,3711.1111111111113
-0.625,0.2,3713.8888888888887
-0.64,0.17,3716.6666666666665
-0.62,0.18,3719.4444444444443
-0.575,0.21,3722.222222222222
-0.525,0.23,3725.0
-0.465,0.225,3727.777777777778
-0.425,0.21,3730.5555555555557
-0.395,0.195,3733.3333333333335
-0.4,0.19,3736.1111111111113
-0.395,0.205,3738.8888888888887
-0.39,0.21,3741.6666666666665
-0.385,0.195,3744.4444444444443
-0.385,0.195,3747.222222222222
-0.395,0.185,3750.0
-0.405,0.175,3752.777777777778
-0.41,0.185,3755.5555555555557
-0.395,0.195,3758.3333333333335
-0.38,0.195,3761.1111111111113
-0.38,0.18,3763.8888888888887
-0.4,0.185,3766.6666666666665
-0.4,0.185,3769.4444444444443
-0.395,0.185,3772.222222222222
-0.385,0.2,3775.0
-0.365,0.2,3777.777777777778
-0.375,0.175,3780.5555555555557
-0.405,0.165,3783.3333333333335
-0.4,0.17,3786.1111111111113
-0.385,0.17,3788.8888888888887
-0.39,0.195,3791.6666666666665
-0.375,0.175,3794.4444444444443
-0.38,0.175,3797.222222222222
-0.375,0.16,3800.0
-0.39,0.165,3802.777777777778
-0.375,0.165,3805.5555555555557
-0.36,0.175,3808.3333333333335
-0.365,0.165,3811.1111111111113
-0.355,0.16,3813.8888888888887
-0.385,0.145,3816.6666666666665
-0.365,0.155,3819.4444444444443
-0.365,0.165,3822.222222222222
-0.36,0.175,3825.0
-0.335,0.16,3827.777777777778
-0.355,0.16,3830.5555555555557
-0.35,0.15,3833.3333333333335
-0.365,0.155,3836.1111111111113
-0.345,0.16,3838.8888888888887
-0.335,0.18,3841.6666666666665
-0.335,0.165,3844.4444444444443
-0.345,0.165,3847.222222222222
-0.345,0.145,3850.0
-0.35,0.145,3852.777777777778
-0.35,0.145,3855.5555555555557
-0.33,0.165,3858.3333333333335
-0.31,0.155,3861.1111111111113
-0.31,0.145,3863.8888888888887
-0.33,0.13,3866.6666666666665
-0.33,0.13,3869.4444444444443
-0.315,0.145,3872.222222222222
-0.295,0.15,3875.0
-0.29,0.15,3877.777777777778
-0.28,0.135,3880.5555555555557
-0.29,0.125,3883.3333333333335
-0.29,0.13,3886.1111111111113
-0.28,0.135,3888.8888888888887
-0.265,0.15,3891.6666666666665
-0.24,0.145,3894.4444444444443
-0.235,0.12,3897.222222222222
-0.245,0.12,3900.0
-0.24,0.13,3902.777777777778
-0.225,0.12,3905.5555555555557
-0.195,0.145,3908.3333333333335
-0.19,0.12,3911.1111111111113
-0.17,0.135,3913.8888888888887
-0.175,0.115,3916.6666666666665
-0.18,0.105,3919.4444444444443
-0.155,0.13,3922.222222222222
-0.135,0.14,3925.0
-0.1,0.14,3927.777777777778
-0.1,0.11,3930.5555555555557
-0.09,0.115,3933.3333333333335
-0.08,0.105,3936.1111111111113
-0.06,0.115,3938.8888888888887
-0.015,0.12,3941.6666666666665
0.01,0.115,3944.4444444444443
0.025,0.105,3947.222222222222
0.03,0.09,3950.0
0.045,0.09,3952.777777777778
0.09,0.11,3955.5555555555557
0.115,0.12,3958.3333333333335
0.155,0.12,3961.1111111111113
0.18,0.095,3963.8888888888887
0.18,0.085,3966.6666666666665
0.19,0.085,3969.4444444444443
0.23,0.09,3972.222222222222
0.265,0.105,3975.0
0.3,0.095,3977.777777777778
0.325,0.075,3980.5555555555557
0.335,0.075,3983.3333333333335
0.35,0.07,3986.1111111111113
0.39,0.075,3988.8888888888887
0.445,0.08,3991.6666666666665
0.46,0.07,3994.4444444444443
0.47,0.06,3997.222222222222
0.49,0.05,4000.0
0.495,0.05,4002.777777777778
0.53,0.06,4005.5555555555557
0.56,0.075,4008.3333333333335
0.6,0.065,4011.1111111111113
0.59,0.045,4013.8888888888887
0.595,0.045,4016.6666666666665
0.585,0.06,4019.4444444444443
0.595,0.07,4022.222222222222
0.59,0.085,4025.0
0.58,0.09,4027.777777777778
0.53,0.085,4030.5555555555557
0.485,0.075,4033.3333333333335
0.425,0.09,4036.1111111111113
0.38,0.095,4038.8888888888887
0.335,0.105,4041.6666666666665
0.28,0.1,4044.4444444444443
0.195,0.095,4047.222222222222
0.12,0.085,4050.0
0.05,0.09,4052.777777777778
-0.01,0.095,4055.5555555555557
-0.07,0.115,4058.3333333333335
-0.125,0.09,4061.1111111111113
-0.18,0.1,4063.8888888888887
-0.26,0.09,4066.6666666666665
-0.315,0.08,4069.4444444444443
-0.365,0.085,4072.222222222222
-0.385,0.1,4075.0
-0.4,0.105,4077.777777777778
-0.435,0.095,4080.5555555555557
-0.5,0.08,4083.3333333333335
-0.525,0.08,4086.1111111111113
-0.535,0.09,4088.8888888888887
-0.54,0.105,4091.6666666666665
-0.55,0.085,4094.4444444444443
-0.57,0.08,4097.222222222223
-0.595,0.06,4100.0
-0.61,0.07,4102.777777777777
-0.63,0.085,4105.555555555556
-0.62,0.09,4108.333333333333
-0.625,0.08,4111.111111111111
-0.63,0.065,4113.888888888889
-0.645,0.06,4116.666666666667
-0.66,0.065,4119.444444444444
-0.665,0.075,4122.222222222223
-0.65,0.095,4125.0
-0.64,0.08,4127.777777777777
-0.66,0.07,4130.555555555556
-0.67,0.055,4133.333333333333
-0.695,0.055,4136.111111111111
-0.68,0.075,4138.888888888889
-0.67,0.08,4141.666666666667
-0.665,0.07,4144.444444444444
-0.68,0.07,4147.222222222223
-0.7,0.06,4150.0
-0.695,0.06,4152.777777777777
-0.705,0.075,4155.555555555556
-0.68,0.085,4158.333333333333
-0.68,0.07,4161.111111111111
-0.69,0.065,4163.888888888889
-0.705,0.045,4166.666666666667
-0.695,0.05,4169.444444444444
-0.685,0.07,4172.222222222223
-0.675,0.09,4175.0
-0.665,0.07,4177.777777777777
-0.66,0.055,4180.555555555556
-0.675,0.045,4183.333333333333
-0.685,0.045,4186.111111111111
-0.685,0.055,4188.888888888889
-0.665,0.075,4191.666666666667
-0.665,0.075,4194.444444444444
-0.68,0.05,4197.222222222223
-0.69,0.05,4200.0
-0.7,0.04,4202.777777777777
-0.69,0.055,4205.555555555556
-0.68,0.075,4208.333333333333
-0.68,0.06,4211.111111111111
-0.68,0.055,4213.888888888889
-0.68,0.05,4216.666666666667
-0.69,0.05,4219.444444444444
-0.695,0.05,4222.222222222223
-0.68,0.065,4225.0
-0.665,0.055,4227.777777777777
-0.67,0.05,4230.555555555556
-0.685,0.04,4233.333333333333
-0.695,0.035,4236.111111111111
-0.71,0.05,4238.888888888889
-0.7,0.05,4241.666666666667
-0.69,0.045,4244.444444444444
-0.68,0.045,4247.222222222223
-0.705,0.03,4250.0
-0.72,0.045,4252.777777777777
-0.72,0.035,4255.555555555556
-0.705,0.06,4258.333333333333
-0.685,0.045,4261.111111111111
-0.7,0.04,4263.888888888889
-0.715,0.025,4266.666666666667
-0.715,0.035,4269.444444444444
-0.715,0.035,4272.222222222223
-0.705,0.055,4275.0
-0.705,0.03,4277.777777777777
-0.705,0.025,4280.555555555556
-0.72,0.015,4283.333333333333
-0.73,0.025,4286.111111111111
-0.735,0.045,4288.888888888889
-0.72,0.05,4291.666666666667
-0.715,0.035,4294.444444444444
-0.725,0.015,4297.222222222223
-0.73,0.015,4300.0
-0.735,0.02,4302.777777777777
-0.74,0.025,4305.555555555556
-0.72,0.045,4308.333333333333
-0.72,0.02,4311.111111111111
-0.725,0.01,4313.888888888889
-0.75,0.005,4316.666666666667
-0.755,0.015,4319.444444444444
-0.75,0.03,4322.222222222223
-0.73,0.04,4325.0
-0.73,0.02,4327.777777777777
-0.73,0.015,4330.555555555556
-0.77,0.005,4333.333333333333
-0.755,0.01,4336.111111111111
-0.76,0.01,4338.888888888889
-0.745,0.03,4341.666666666667
-0.75,0.03,4344.444444444444
-0.74,0.02,4347.222222222223
-0.76,0.0,4350.0
-0.775,0.0,4352.777777777777
-0.755,0.005,4355.555555555556
-0.735,0.015,4358.333333333333
-0.725,0.02,4361.111111111111
-0.73,0.005,4363.888888888889
-0.75,-0.015,4366.666666666667
-0.76,-0.005,4369.444444444444
-0.75,0.005,4372.222222222223
-0.73,0.01,4375.0
-0.725,0.01,4377.777777777777
-0.73,0.005,4380.555555555556
-0.75,-0.01,4383.333333333333
-0.765,-0.005,4386.111111111111
-0.755,0.015,4388.888888888889
-0.74,0.005,4391.666666666667
-0.725,0.015,4394.444444444444
-0.735,0.005,4397.222222222223
-0.76,-0.01,4400.0
-0.76,-0.01,4402.777777777777
-0.74,0.005,4405.555555555556
-0.74,0.01,4408.333333333333
-0.735,0.01,4411.111111111111
-0.75,-0.01,4413.888888888889
-0.755,-0.02,4416.666666666667
-0.755,0.0,4419.444444444444
-0.755,0.0,4422.222222222223
-0.74,0.005,4425.0
-0.745,0.005,4427.777777777777
-0.75,-0.01,4430.555555555556
-0.755,-0.02,4433.333333333333
-0.755,0.0,4436.111111111111
-0.755,-0.005,4438.888888888889
-0.75,0.015,4441.666666666667
-0.74,-0.005,4444.444444444444
-0.755,-0.01,4447.222222222223
-0.74,-0.02,4450.0
-0.755,-0.015,4452.777777777777
-0.76,-0.005,4455.555555555556
-0.74,0.015,4458.333333333333
-0.725,-0.005,4461.111111111111
-0.74,-0.015,4463.888888888889
-0.75,-0.015,4466.666666666667
-0.745,-0.025,4469.444444444444
-0.75,-0.015,4472.222222222223
-0.735,0.005,4475.0
-0.735,-0.005,4477.777777777777
-0.74,-0.02,4480.555555555556
-0.76,-0.03,4483.333333333333
-0.76,-0.025,4486.111111111111
-0.74,-0.01,4488.888888888889
-0.725,0.005,4491.666666666667
-0.725,-0.005,4494.444444444444
-0.72,-0.015,4497.222222222223
-0.74,-0.02,4500.0
-0.745,-0.015,4502.777777777777
-0.745,-0.01,4505.555555555556
-0.72,-0.005,4508.333333333333
-0.715,-0.01,4511.111111111111
-0.735,-0.015,4513.888888888889
-0.745,-0.03,4516.666666666667
-0.745,-0.025,4519.444444444444
-0.74,-0.01,4522.222222222223
-0.725,-0.01,4525.0
-0.725,-0.015,4527.777777777777
-0.73,-0.025,4530.555555555556
-0.74,-0.03,4533.333333333333
-0.735,-0.02,4536.111111111111
-0.73,-0.01,4538.888888888889
-0.715,-0.005,4541.666666666667
-0.71,-0.015,4544.444444444444
-0.715,-0.025,4547.222222222223
-0.725,-0.035,4550.0
-0.745,-0.025,4552.777777777777
-0.735,-0.02,4555.555555555556
-0.715,-0.01,4558.333333333333
-0.71,-0.005,4561.111111111111
-0.71,-0.02,4563.888888888889
-0.72,-0.015,4566.666666666667
-0.715,-0.01,4569.444444444444
-0.715,0.015,4572.222222222223
-0.695,0.045,4575.0
-0.67,0.03,4577.777777777777
-0.685,0.015,4580.555555555556
-0.69,-0.005,4583.333333333333
-0.67,-0.025,4586.111111111111
-0.66,-0.01,4588.888888888889
-0.645,0.0,4591.666666666667
-0.645,-0.02,4594.444444444444
-0.645,-0.055,4597.222222222223
-0.64,-0.07,4600.0
-0.635,-0.07,4602.777777777777
-0.65,-0.04,4605.555555555556
-0.63,-0.045,4608.333333333333
-0.625,-0.03,4611.111111111111
-0.625,-0.055,4613.888888888889
-0.64,-0.055,4616.666666666667
-0.65,-0.055,4619.444444444444
-0.645,-0.035,4622.222222222223
-0.66,-0.025,4625.0
-0.66,-0.035,4627.777777777777
-0.68,-0.055,4630.555555555556
-0.71,-0.055,4633.333333333333
-0.715,-0.06,4636.111111111111
-0.71,-0.045,4638.888888888889
-0.7,-0.045,4641.666666666667
-0.685,-0.045,4644.444444444444
-0.7,-0.05,4647.222222222223
-0.7,-0.05,4650.0
-0.715,-0.055,4652.777777777777
-0.695,-0.05,4655.555555555556
-0.69,-0.03,4658.333333333333
-0.69,-0.045,4661.111111111111
-0.7,-0.055,4663.888888888889
-0.7,-0.065,4666.666666666667
-0.71,-0.06,4669.444444444444
-0.7,-0.05,4672.222222222223
-0.675,-0.03,4675.0
-0.66,-0.025,4677.777777777777
-0.67,-0.04,4680.555555555556
-0.68,-0.05,4683.333333333333
-0.675,-0.035,4686.111111111111
-0.66,0.005,4688.888888888889
-0.645,0.05,4691.666666666667
-0.65,0.095,4694.444444444444
-0.67,0.115,4697.222222222223
-0.705,0.145,4700.0
-0.745,0.145,4702.777777777777
-0.775,0.14,4705.555555555556
-0.77,0.105,4708.333333333333
-0.745,0.035,4711.111111111111
-0.7,-0.08,4713.888888888889
-0.565,-0.21,4716.666666666667
-0.285,-0.34,4719.444444444444
0.17,-0.44,4722.222222222223
0.69,-0.505,4725.0
1.2,-0.505,4727.777777777777
1.59,-0.425,4730.555555555556
1.8,-0.34,4733.333333333333
1.8,-0.21,4736.111111111111
1.505,-0.125,4738.888888888889
0.865,-0.1,4741.666666666667
0.225,-0.125,4744.444444444444
-0.415,-0.13,4747.222222222223
-1.05,-0.11,4750.0
-0.96,-0.065,4752.777777777777
-0.84,-0.035,4755.555555555556
-0.8,-0.015,4758.333333333333
-0.82,-0.045,4761.111111111111
-0.835,-0.065,4763.888888888889
-0.84,-0.055,4766.666666666667
-0.81,-0.045,4769.444444444444
-0.77,-0.03,4772.222222222223
-0.705,-0.01,4775.0
-0.655,-0.025,4777.777777777777
-0.64,-0.04,4780.555555555556
-0.635,-0.055,4783.333333333333
-0.645,-0.055,4786.111111111111
-0.625,-0.04,4788.888888888889
-0.62,-0.015,4791.666666666667
-0.6,-0.02,4794.444444444444
-0.62,-0.05,4797.222222222223
-0.62,-0.06,4800.0
-0.62,-0.06,4802.777777777777
-0.605,-0.025,4805.555555555556
-0.585,-0.025,4808.333333333333
-0.585,-0.035,4811.111111111111
-0.595,-0.05,4813.888888888889
-0.605,-0.065,4816.666666666667
-0.6,-0.055,4819.444444444444
-0.595,-0.045,4822.222222222223
-0.565,-0.025,4825.0
-0.58,-0.04,4827.777777777777
-0.58,-0.05,4830.555555555556
-0.585,-0.065,4833.333333333333
-0.59,-0.05,4836.111111111111
-0.57,-0.05,4838.888888888889
-0.55,-0.03,4841.666666666667
-0.545,-0.045,4844.444444444444
-0.545,-0.065,4847.222222222223
-0.565,-0.07,4850.0
-0.56,-0.065,4852.777777777777
-0.555,-0.055,4855.555555555556
-0.525,-0.05,4858.333333333333
-0.535,-0.04,4861.111111111111
-0.525,-0.065,4863.888888888889
-0.545,-0.075,4866.666666666667
-0.55,-0.065,4869.444444444444
-0.535,-0.055,4872.222222222223
-0.515,-0.04,4875.0
-0.505,-0.06,4877.777777777777
-0.5,-0.06,4880.555555555556
-0.5,-0.085,4883.333333333333
-0.51,-0.07,4886.111111111111
-0.49,-0.06,4888.888888888889
-0.475,-0.055,4891.666666666667
-0.46,-0.06,4894.444444444444
-0.455,-0.07,4897.222222222223
-0.46,-0.075,4900.0
-0.46,-0.075,4902.777777777777
-0.44,-0.075,4905.555555555556
-0.42,-0.065,4908.333333333333
-0.4,-0.07,4911.111111111111
-0.405,-0.08,4913.888888888889
-0.395,-0.085,4916.666666666667
-0.39,-0.085,4919.444444444444
-0.375,-0.065,4922.222222222223
-0.345,-0.065,4925.0
-0.33,-0.075,4927.777777777777
-0.325,-0.09,4930.555555555556
-0.315,-0.105,4933.333333333333
-0.3,-0.1,4936.111111111111
-0.28,-0.085,4938.888888888889
-0.27,-0.08,4941.666666666667
-0.22,-0.09,4944.444444444444
-0.2,-0.095,4947.222222222223
-0.185,-0.105,4950.0
-0.175,-0.105,4952.777777777777
-0.14,-0.09,4955.555555555556
-0.09,-0.085,4958.333333333333
-0.065,-0.09,4961.111111111111
-0.055,-0.11,4963.888888888889
-0.035,-0.12,4966.666666666667
-0.01,-0.115,4969.444444444444
0.015,-0.11,4972.222222222223
0.075,-0.105,4975.0
0.115,-0.12,4977.777777777777
0.13,-0.12,4980.555555555556
0.145,-0.135,4983.333333333333
0.175,-0.13,4986.111111111111
0.215,-0.12,4988.888888888889
0.26,-0.115,4991.666666666667
0.285,-0.13,4994.444444444444
0.31,-0.145,4997.222222222223
0.315,-0.145,5000.0
0.33,-0.145,5002.777777777777
0.38,-0.12,5005.555555555556
0.41,-0.115,5008.333333333333
0.45,-0.135,5011.111111111111
0.465,-0.15,5013.888888888889
0.48,-0.155,5016.666666666667
0.485,-0.155,5019.444444444444
0.51,-0.14,5022.222222222223
0.53,-0.12,5025.0
0.54,-0.125,5027.777777777777
0.515,-0.13,5030.555555555556
0.48,-0.135,5033.333333333333
0.46,-0.125,5036.111111111111
0.43,-0.09,5038.888888888889
0.395,-0.085,5041.666666666667
0.345,-0.09,5044.444444444444
0.28,-0.11,5047.222222222223
0.205,-0.105,5050.0
0.14,-0.1,5052.777777777777
0.075,-0.1,5055.555555555556
0.025,-0.085,5058.333333333333
-0.04,-0.09,5061.111111111111
-0.11,-0.1,5063.888888888889
-0.185,-0.11,5066.666666666667
-0.245,-0.11,5069.444444444444
-0.305,-0.09,5072.222222222223
-0.34,-0.085,5075.0
-0.385,-0.09,5077.777777777777
-0.42,-0.095,5080.555555555556
-0.475,-0.115,5083.333333333333
-0.515,-0.11,5086.111111111111
-0.545,-0.105,5088.888888888889
-0.55,-0.075,5091.666666666667
-0.56,-0.085,5094.444444444444
-0.585,-0.11,5097.222222222223
-0.605,-0.115,5100.0
-0.63,-0.11,5102.777777777777
-0.64,-0.095,5105.555555555556
-0.635,-0.07,5108.333333333333
-0.635,-0.09,5111.111111111111
-0.65,-0.11,5113.888888888889
-0.665,-0.11,5116.666666666667
-0.68,-0.11,5119.444444444444
-0.685,-0.09,5122.222222222223
-0.675,-0.09,5125.0
-0.665,-0.095,5127.777777777777
-0.67,-0.13,5130.555555555556
-0.685,-0.12,5133.333333333333
-0.71,-0.115,5136.111111111111
-0.695,-0.095,5138.888888888889
-0.68,-0.09,5141.666666666667
-0.675,-0.1,5144.444444444444
-0.68,-0.105,5147.222222222223
-0.705,-0.115,5150.0
-0.715,-0.105,5152.777777777777
-0.705,-0.095,5155.555555555556
-0.68,-0.08,5158.333333333333
-0.685,-0.09,5161.111111111111
-0.69,-0.11,5163.888888888889
-0.69,-0.125,5166.666666666667
-0.71,-0.115,5169.444444444444
-0.705,-0.105,5172.222222222223
-0.685,-0.095,5175.0
-0.675,-0.095,5177.777777777777
-0.68,-0.11,5180.555555555556
-0.69,-0.12,5183.333333333333
-0.705,-0.11,5186.111111111111
-0.695,-0.095,5188.888888888889
-0.66,-0.095,5191.666666666667
-0.665,-0.09,5194.444444444444
-0.675,-0.105,5197.222222222223
-0.68,-0.12,5200.0
-0.69,-0.12,5202.777777777777
-0.68,-0.1,5205.555555555556
-0.655,-0.09,5208.333333333333
-0.645,-0.105,5211.111111111111
-0.665,-0.115,5213.888888888889
-0.67,-0.12,5216.666666666667
-0.7,-0.125,5219.444444444444
-0.67,-0.1,5222.222222222223
-0.655,-0.085,5225.0
-0.645,-0.11,5227.777777777777
-0.65,-0.115,5230.555555555556
-0.67,-0.13,5233.333333333333
-0.675,-0.12,5236.111111111111
-0.675,-0.105,5238.888888888889
-0.66,-0.1,5241.666666666667
-0.645,-0.115,5244.444444444444
-0.66,-0.125,5247.222222222223
-0.665,-0.125,5250.0
-0.68,-0.115,5252.777777777777
-0.675,-0.105,5255.555555555556
-0.66,-0.105,5258.333333333333
-0.645,-0.11,5261.111111111111
-0.655,-0.115,5263.888888888889
-0.655,-0.13,5266.666666666667
-0.67,-0.12,5269.444444444444
-0.665,-0.115,5272.222222222223
-0.645,-0.1,5275.0
-0.645,-0.11,5277.777777777777
-0.645,-0.13,5280.555555555556
-0.66,-0.115,5283.333333333333
-0.685,-0.115,5286.111111111111
-0.67,-0.115,5288.888888888889
-0.65,-0.1,5291.666666666667
-0.64,-0.11,5294.444444444444
-0.65,-0.125,5297.222222222223
-0.675,-0.13,5300.0
-0.665,-0.125,5302.777777777777
-0.66,-0.115,5305.555555555556
-0.655,-0.1,5308.333333333333
-0.65,-0.1,5311.111111111111
-0.655,-0.12,5313.888888888889
-0.67,-0.14,5316.666666666667
-0.685,-0.125,5319.444444444444
-0.68,-0.125,5322.222222222223
-0.66,-0.105,5325.0
-0.655,-0.125,5327.777777777777
-0.66,-0.135,5330.555555555556
-0.67,-0.145,5333.333333333333
-0.67,-0.125,5336.111111111111
-0.665,-0.115,5338.888888888889
-0.665,-0.11,5341.666666666667
-0.665,-0.12,5344.444444444444
-0.66,-0.115,5347.222222222223
-0.67,-0.135,5350.0
-0.685,-0.14,5352.777777777777
-0.67,-0.125,5355.555555555556
-0.65,-0.115,5358.333333333333
-0.64,-0.125,5361.111111111111
-0.66,-0.135,5363.888888888889
-0.665,-0.125,5366.666666666667
-0.675,-0.14,5369.444444444444
-0.66,-0.12,5372.222222222223
-0.655,-0.11,5375.0
-0.645,-0.115,5377.777777777777
-0.65,-0.125,5380.555555555556
-0.67,-0.14,5383.333333333333
-0.66,-0.14,5386.111111111111
-0.65,-0.13,5388.888888888889
-0.64,-0.115,5391.666666666667
-0.65,-0.12,5394.444444444444
-0.65,-0.125,5397.222222222223
-0.66,-0.145,5400.0
-0.675,-0.135,5402.777777777777
-0.655,-0.13,5405.555555555556
-0.635,-0.11,5408.333333333333
-0.63,-0.125,5411.111111111111
-0.635,-0.13,5413.888888888889
-0.655,-0.145,5416.666666666667
-0.665,-0.14,5419.444444444444
-0.66,-0.14,5422.222222222223
-0.635,-0.115,5425.0
-0.63,-0.13,5427.777777777777
-0.635,-0.125,5430.555555555556
-0.655,-0.145,5433.333333333333
-0.645,-0.14,5436.111111111111
-0.625,-0.135,5438.888888888889
-0.625,-0.12,5441.666666666667
-0.61,-0.125,5444.444444444444
-0.63,-0.14,5447.222222222223
-0.64,-0.155,5450.0
-0.645,-0.15,5452.777777777777
-0.635,-0.14,5455.555555555556
-0.63,-0.12,5458.333333333333
-0.61,-0.125,5461.111111111111
-0.61,-0.13,5463.888888888889
-0.62,-0.145,5466.666666666667
-0.63,-0.145,5469.444444444444
-0.62,-0.13,5472.222222222223
-0.62,-0.135,5475.0
-0.615,-0.13,5477.777777777777
-0.605,-0.135,5480.555555555556
-0.62,-0.15,5483.333333333333
-0.635,-0.15,5486.111111111111
-0.62,-0.135,5488.888888888889
-0.605,-0.115,5491.666666666667
-0.59,-0.125,5494.444444444444
-0.6,-0.145,5497.222222222223
-0.635,-0.14,5500.0
-0.625,-0.14,5502.777777777777
-0.61,-0.13,5505.555555555556
-0.6,-0.12,5508.333333333333
-0.595,-0.13,5511.111111111111
-0.605,-0.135,5513.888888888889
-0.605,-0.145,5516.666666666667
-0.61,-0.145,5519.444444444444
-0.6,-0.115,5522.222222222223
-0.59,-0.115,5525.0
-0.595,-0.125,5527.777777777777
-0.6,-0.135,5530.555555555556
-0.615,-0.15,5533.333333333333
-0.615,-0.145,5536.111111111111
-0.61,-0.13,5538.888888888889
-0.58,-0.115,5541.666666666667
-0.565,-0.13,5544.444444444444
-0.58,-0.135,5547.222222222223
-0.6,-0.145,5550.0
-0.595,-0.145,5552.777777777777
-0.585,-0.125,5555.555555555556
-0.58,-0.12,5558.333333333333
-0.57,-0.125,5561.111111111111
-0.57,-0.145,5563.888888888889
-0.595,-0.155,5566.666666666667
-0.585,-0.14,5569.444444444444
-0.58,-0.13,5572.222222222223
-0.57,-0.12,5575.0
-0.57,-0.12,5577.777777777777
-0.575,-0.135,5580.555555555556
-0.575,-0.15,5583.333333333333
-0.595,-0.145,5586.111111111111
-0.585,-0.13,5588.888888888889
-0.56,-0.115,5591.666666666667
-0.555,-0.135,5594.444444444444
-0.57,-0.14,5597.222222222223
-0.58,-0.145,5600.0
-0.58,-0.13,5602.777777777777
-0.575,-0.13,5605.555555555556
-0.575,-0.125,5608.333333333333
-0.555,-0.13,5611.111111111111
-0.56,-0.12,5613.888888888889
-0.58,-0.135,5616.666666666667
-0.57,-0.15,5619.444444444444
-0.57,-0.135,5622.222222222223
-0.555,-0.115,5625.0
-0.54,-0.125,5627.777777777777
-0.545,-0.135,5630.555555555556
-0.56,-0.13,5633.333333333333
-0.56,-0.12,5636.111111111111
-0.54,-0.1,5638.888888888889
-0.525,-0.075,5641.666666666667
-0.51,-0.075,5644.444444444444
-0.515,-0.09,5647.222222222223
-0.525,-0.105,5650.0
-0.51,-0.11,5652.777777777777
-0.485,-0.11,5655.555555555556
-0.47,-0.105,5658.333333333333
-0.455,-0.11,5661.111111111111
-0.475,-0.135,5663.888888888889
-0.48,-0.15,5666.666666666667
-0.475,-0.165,5669.444444444444
-0.46,-0.16,5672.222222222223
-0.44,-0.145,5675.0
-0.445,-0.15,5677.777777777777
-0.455,-0.16,5680.555555555556
-0.48,-0.155,5683.333333333333
-0.485,-0.145,5686.111111111111
-0.47,-0.13,5688.888888888889
-0.465,-0.125,5691.666666666667
-0.445,-0.13,5694.444444444444
-0.485,-0.15,5697.222222222223
-0.5,-0.14,5700.0
-0.51,-0.145,5702.777777777777
-0.515,-0.125,5705.555555555556
-0.5,-0.12,5708.333333333333
-0.515,-0.125,5711.111111111111
-0.52,-0.14,5713.888888888889
-0.53,-0.15,5716.666666666667
-0.53,-0.14,5719.444444444444
-0.52,-0.125,5722.222222222223
-0.505,-0.125,5725.0
-0.49,-0.135,5727.777777777777
-0.515,-0.135,5730.555555555556
-0.51,-0.14,5733.333333333333
-0.525,-0.14,5736.111111111111
-0.515,-0.125,5738.888888888889
-0.49,-0.115,5741.666666666667
-0.495,-0.12,5744.444444444444
-0.495,-0.13,5747.222222222223
-0.505,-0.15,5750.0
-0.515,-0.14,5752.777777777777
-0.485,-0.115,5755.555555555556
-0.48,-0.1,5758.333333333333
-0.46,-0.11,5761.111111111111
-0.465,-0.1,5763.888888888889
-0.475,-0.08,5766.666666666667
-0.485,-0.045,5769.444444444444
-0.47,0.01,5772.222222222223
-0.465,0.075,5775.0
-0.495,0.09,5777.777777777777
-0.52,0.085,5780.555555555556
-0.57,0.06,5783.333333333333
-0.59,0.04,5786.111111111111
-0.585,-0.005,5788.888888888889
-0.545,-0.05,5791.666666666667
-0.47,-0.16,5794.444444444444
-0.325,-0.27,5797.222222222223
-0.08,-0.385,5800.0
0.295,-0.49,5802.777777777777
0.765,-0.545,5805.555555555556
1.26,-0.545,5808.333333333333
1.655,-0.49,5811.111111111111
1.94,-0.43,5813.888888888889
2.035,-0.34,5816.666666666667
1.97,-0.255,5819.444444444444
1.66,-0.195,5822.222222222223
1.07,-0.175,5825.0
0.43,-0.175,5827.777777777777
-0.21,-0.2,5830.555555555556
-0.76,-0.195,5833.333333333333
-0.775,-0.145,5836.111111111111
-0.665,-0.115,5838.888888888889
-0.61,-0.09,5841.666666666667
-0.605,-0.1,5844.444444444444
-0.63,-0.125,5847.222222222223
-0.64,-0.13,5850.0
-0.615,-0.115,5852.777777777777
-0.61,-0.1,5855.555555555556
-0.55,-0.08,5858.333333333333
-0.5,-0.085,5861.111111111111
-0.44,-0.09,5863.888888888889
-0.42,-0.105,5866.666666666667
-0.425,-0.1,5869.444444444444
-0.41,-0.075,5872.222222222223
-0.4,-0.075,5875.0
-0.395,-0.095,5877.777777777777
-0.4,-0.085,5880.555555555556
-0.41,-0.105,5883.333333333333
-0.405,-0.095,5886.111111111111
-0.4,-0.08,5888.888888888889
-0.385,-0.065,5891.666666666667
-0.365,-0.07,5894.444444444444
-0.38,-0.1,5897.222222222223
-0.385,-0.095,5900.0
-0.385,-0.095,5902.777777777777
-0.38,-0.085,5905.555555555556
-0.36,-0.06,5908.333333333333
-0.355,-0.075,5911.111111111111
-0.36,-0.08,5913.888888888889
-0.38,-0.095,5916.666666666667
-0.37,-0.095,5919.444444444444
-0.36,-0.075,5922.222222222223
-0.34,-0.07,5925.0
-0.345,-0.07,5927.777777777777
-0.34,-0.09,5930.555555555556
-0.35,-0.1,5933.333333333333
-0.36,-0.095,5936.111111111111
-0.34,-0.08,5938.888888888889
-0.325,-0.07,5941.666666666667
-0.31,-0.08,5944.444444444444
-0.32,-0.095,5947.222222222223
-0.34,-0.095,5950.0
-0.335,-0.085,5952.777777777777
-0.33,-0.085,5955.555555555556
-0.31,-0.075,5958.333333333333
-0.31,-0.075,5961.111111111111
-0.31,-0.085,5963.888888888889
-0.325,-0.095,5966.666666666667
-0.33,-0.085,5969.444444444444
-0.315,-0.08,5972.222222222223
-0.285,-0.06,5975.0
-0.29,-0.07,5977.777777777777
-0.29,-0.08,5980.555555555556
-0.295,-0.085,5983.333333333333
-0.305,-0.09,5986.111111111111
-0.285,-0.085,5988.888888888889
-0.265,-0.08,5991.666666666667
-0.255,-0.09,5994.444444444444
-0.25,-0.1,5997.222222222223
-0.27,-0.105,6000.0
-0.28,-0.095,6002.777777777777
-0.265,-0.085,6005.555555555556
-0.24,-0.065,6008.333333333333
-0.23,-0.07,6011.111111111111
-0.23,-0.08,6013.888888888889
-0.235,-0.105,6016.666666666667
-0.25,-0.1,6019.444444444444
-0.225,-0.085,6022.222222222223
-0.2,-0.08,6025.0
-0.195,-0.07,6027.777777777777
-0.2,-0.095,6030.555555555556
-0.205,-0.1,6033.333333333333
-0.21,-0.095,6036.111111111111
-0.19,-0.09,6038.888888888889
-0.165,-0.07,6041.666666666667
-0.145,-0.08,6044.444444444444
-0.135,-0.095,6047.222222222223
-0.155,-0.1,6050.0
-0.14,-0.105,6052.777777777777
-0.12,-0.095,6055.555555555556
-0.09,-0.07,6058.333333333333
-0.075,-0.08,6061.111111111111
-0.075,-0.095,6063.888888888889
-0.08,-0.1,6066.666666666667
-0.065,-0.105,6069.444444444444
-0.04,-0.09,6072.222222222223
-0.015,-0.08,6075.0
0.01,-0.09,6077.777777777777
0.015,-0.1,6080.555555555556
0.025,-0.11,6083.333333333333
0.04,-0.105,6086.111111111111
0.07,-0.09,6088.888888888889
0.1,-0.085,6091.666666666667
0.135,-0.1,6094.444444444444
0.15,-0.1,6097.222222222223
0.17,-0.105,6100.0
0.18,-0.115,6102.777777777777
0.22,-0.105,6105.555555555556
0.265,-0.085,6108.333333333333
0.3,-0.095,6111.111111111111
0.32,-0.115,6113.888888888889
0.33,-0.12,6116.666666666667
0.335,-0.12,6119.444444444444
0.365,-0.105,6122.222222222223
0.41,-0.1,6125.0
0.455,-0.105,6127.777777777777
0.47,-0.11,6130.555555555556
0.495,-0.135,6133.333333333333
0.515,-0.12,6136.111111111111
0.545,-0.115,6138.888888888889
0.595,-0.105,6141.666666666667
0.635,-0.115,6144.444444444444
0.65,-0.13,6147.222222222223
0.655,-0.13,6150.0
0.66,-0.125,6152.777777777777
0.7,-0.11,6155.555555555556
0.725,-0.105,6158.333333333333
0.755,-0.105,6161.111111111111
0.76,-0.11,6163.888888888889
0.735,-0.12,6166.666666666667
0.71,-0.11,6169.444444444444
0.715,-0.095,6172.222222222223
0.71,-0.07,6175.0
0.67,-0.075,6177.777777777777
0.62,-0.085,6180.555555555556
0.575,-0.105,6183.333333333333
0.52,-0.08,6186.111111111111
0.465,-0.075,6188.888888888889
0.41,-0.07,6191.666666666667
0.375,-0.075,6194.444444444444
0.31,-0.07,6197.222222222223
0.24,-0.09,6200.0
0.155,-0.085,6202.777777777777
0.09,-0.07,6205.555555555556
0.065,-0.065,6208.333333333333
0.01,-0.06,6211.111111111111
-0.06,-0.065,6213.888888888889
-0.12,-0.075,6216.666666666667
-0.175,-0.065,6219.444444444444
-0.21,-0.065,6222.222222222223
-0.235,-0.04,6225.0
-0.27,-0.055,6227.777777777777
-0.29,-0.07,6230.555555555556
-0.34,-0.075,6233.333333333333
-0.36,-0.075,6236.111111111111
-0.375,-0.06,6238.888888888889
-0.38,-0.05,6241.666666666667
-0.39,-0.055,6244.444444444444
-0.42,-0.07,6247.222222222223
-0.425,-0.075,6250.0
-0.445,-0.085,6252.777777777777
-0.445,-0.05,6255.555555555556
-0.44,-0.04,6258.333333333333
-0.435,-0.06,6261.111111111111
-0.45,-0.06,6263.888888888889
-0.475,-0.075,6266.666666666667
-0.5,-0.075,6269.444444444444
-0.485,-0.06,6272.222222222223
-0.475,-0.04,6275.0
-0.48,-0.055,6277.777777777777
-0.48,-0.07,6280.555555555556
-0.495,-0.08,6283.333333333333
-0.5,-0.07,6286.111111111111
-0.485,-0.05,6288.888888888889
-0.475,-0.045,6291.666666666667
-0.475,-0.055,6294.444444444444
-0.48,-0.055,6297.222222222223
-0.495,-0.065,6300.0
-0.505,-0.07,6302.777777777777
-0.5,-0.06,6305.555555555556
-0.475,-0.035,6308.333333333333
-0.47,-0.05,6311.111111111111
-0.485,-0.06,6313.888888888889
-0.5,-0.055,6316.666666666667
-0.49,-0.06,6319.444444444444
-0.485,-0.06,6322.222222222223
-0.475,-0.035,6325.0
-0.48,-0.055,6327.777777777777
-0.47,-0.055,6330.555555555556
-0.485,-0.065,6333.333333333333
-0.485,-0.065,6336.111111111111
-0.48,-0.04,6338.888888888889
-0.465,-0.025,6341.666666666667
-0.46,-0.03,6344.444444444444
-0.475,-0.045,6347.222222222223
-0.475,-0.055,6350.0
-0.49,-0.055,6352.777777777777
-0.465,-0.04,6355.555555555556
-0.465,-0.035,6358.333333333333
-0.46,-0.04,6361.111111111111
-0.46,-0.05,6363.888888888889
-0.475,-0.075,6366.666666666667
-0.485,-0.06,6369.444444444444
-0.475,-0.055,6372.222222222223
-0.455,-0.035,6375.0
-0.45,-0.055,6377.777777777777
-0.46,-0.065,6380.555555555556
-0.465,-0.075,6383.333333333333
-0.485,-0.065,6386.111111111111
-0.47,-0.045,6388.888888888889
-0.46,-0.035,6391.666666666667
-0.455,-0.04,6394.444444444444
-0.455,-0.045,6397.222222222223
-0.475,-0.055,6400.0
-0.475,-0.06,6402.777777777777
-0.485,-0.045,6405.555555555556
-0.465,-0.045,6408.333333333333
-0.45,-0.045,6411.111111111111
-0.46,-0.055,6413.888888888889
-0.48,-0.07,6416.666666666667
-0.495,-0.06,6419.444444444444
-0.48,-0.045,6422.222222222223
-0.465,-0.04,6425.0
-0.455,-0.055,6427.777777777777
-0.485,-0.05,6430.555555555556
-0.49,-0.065,6433.333333333333
-0.495,-0.045,6436.111111111111
-0.48,-0.045,6438.888888888889
-0.47,-0.04,6441.666666666667
-0.47,-0.035,6444.444444444444
-0.47,-0.045,6447.222222222223
-0.495,-0.05,6450.0
-0.505,-0.045,6452.777777777777
-0.505,-0.04,6455.555555555556
-0.48,-0.035,6458.333333333333
-0.475,-0.045,6461.111111111111
-0.47,-0.055,6463.888888888889
-0.485,-0.06,6466.666666666667
-0.505,-0.065,6469.444444444444
-0.49,-0.04,6472.222222222223
-0.485,-0.025,6475.0
-0.48,-0.03,6477.777777777777
-0.48,-0.05,6480.555555555556
-0.495,-0.06,6483.333333333333
-0.51,-0.06,6486.111111111111
-0.5,-0.035,6488.888888888889
-0.49,-0.03,6491.666666666667
-0.48,-0.03,6494.444444444444
-0.49,-0.055,6497.222222222223
-0.49,-0.05,6500.0
-0.495,-0.045,6502.777777777777
-0.475,-0.03,6505.555555555556
-0.475,-0.035,6508.333333333333
-0.47,-0.04,6511.111111111111
-0.48,-0.04,6513.888888888889
-0.495,-0.055,6516.666666666667
-0.5,-0.045,6519.444444444444
-0.49,-0.05,6522.222222222223
-0.47,-0.02,6525.0
-0.48,-0.035,6527.777777777777
-0.465,-0.045,6530.555555555556
-0.48,-0.055,6533.333333333333
-0.49,-0.055,6536.111111111111
-0.485,-0.05,6538.888888888889
-0.47,-0.025,6541.666666666667
-0.47,-0.035,6544.444444444444
-0.48,-0.05,6547.222222222223
-0.485,-0.045,6550.0
-0.485,-0.05,6552.777777777777
-0.48,-0.035,6555.555555555556
-0.465,-0.03,6558.333333333333
-0.455,-0.03,6561.111111111111
-0.455,-0.04,6563.888888888889
-0.475,-0.055,6566.666666666667
-0.48,-0.045,6569.444444444444
-0.475,-0.04,6572.222222222223
-0.455,-0.025,6575.0
-0.45,-0.025,6577.777777777777
-0.475,-0.04,6580.555555555556
-0.475,-0.045,6583.333333333333
-0.49,-0.05,6586.111111111111
-0.48,-0.05,6588.888888888889
-0.46,-0.02,6591.666666666667
-0.45,-0.025,6594.444444444444
-0.46,-0.05,6597.222222222223
-0.48,-0.055,6600.0
-0.49,-0.05,6602.777777777777
-0.47,-0.05,6605.555555555556
-0.445,-0.025,6608.333333333333
-0.44,-0.025,6611.111111111111
-0.445,-0.045,6613.888888888889
-0.465,-0.05,6616.666666666667
-0.47,-0.045,6619.444444444444
-0.47,-0.035,6622.222222222223
-0.46,-0.03,6625.0
-0.44,-0.035,6627.777777777777
-0.44,-0.04,6630.555555555556
-0.45,-0.04,6633.333333333333
-0.465,-0.04,6636.111111111111
-0.465,-0.035,6638.888888888889
-0.44,-0.025,6641.666666666667
-0.44,-0.025,6644.444444444444
-0.46,-0.025,6647.222222222223
-0.46,-0.045,6650.0
-0.465,-0.05,6652.777777777777
-0.455,-0.035,6655.555555555556
-0.43,-0.03,6658.333333333333
-0.43,-0.02,6661.111111111111
-0.435,-0.045,6663.888888888889
-0.455,-0.06,6666.666666666667
-0.47,-0.04,6669.444444444444
-0.435,-0.04,6672.222222222223
-0.425,-0.03,6675.0
-0.41,-0.025,6677.777777777777
-0.415,-0.04,6680.555555555556
-0.445,-0.055,6683.333333333333
-0.45,-0.05,6686.111111111111
-0.445,-0.04,6688.888888888889
-0.43,-0.03,6691.666666666667
-0.415,-0.035,6694.444444444444
-0.415,-0.045,6697.222222222223
-0.435,-0.055,6700.0
-0.45,-0.035,6702.777777777777
-0.435,-0.025,6705.555555555556
-0.42,-0.02,6708.333333333333
-0.41,-0.02,6711.111111111111
-0.405,-0.04,6713.888888888889
-0.425,-0.04,6716.666666666667
-0.43,-0.03,6719.444444444444
-0.43,-0.02,6722.222222222223
-0.42,-0.005,6725.0
-0.405,-0.005,6727.777777777777
-0.405,-0.025,6730.555555555556
-0.415,-0.03,6733.333333333333
-0.415,-0.055,6736.111111111111
-0.415,-0.035,6738.888888888889
-0.41,-0.03,6741.666666666667
-0.385,-0.035,6744.444444444444
-0.39,-0.045,6747.222222222223
-0.41,-0.05,6750.0
-0.425,-0.045,6752.777777777777
-0.41,-0.025,6755.555555555556
-0.405,-0.015,6758.333333333333
-0.405,-0.015,6761.111111111111
-0.4,-0.04,6763.888888888889
-0.425,-0.04,6766.666666666667
-0.425,-0.03,6769.444444444444
-0.405,-0.025,6772.222222222223
-0.4,-0.015,6775.0
-0.405,-0.005,6777.777777777777
-0.395,-0.02,6780.555555555556
-0.4,-0.01,6783.333333333333
-0.4,-0.005,6786.111111111111
-0.395,0.015,6788.888888888889
-0.365,0.03,6791.666666666667
-0.355,0.01,6794.444444444444
-0.355,0.0,6797.222222222223
-0.37,-0.005,6800.0
-0.37,-0.005,6802.777777777777
-0.34,0.0,6805.555555555556
-0.32,0.01,6808.333333333333
-0.315,-0.02,6811.111111111111
-0.325,-0.02,6813.888888888889
-0.345,-0.03,6816.666666666667
-0.355,-0.05,6819.444444444444
-0.33,-0.035,6822.222222222223
-0.32,-0.035,6825.0
-0.28,-0.05,6827.777777777777
-0.295,-0.05,6830.555555555556
-0.32,-0.055,6833.333333333333
-0.335,-0.05,6836.111111111111
-0.32,-0.03,6838.888888888889
-0.3,-0.02,6841.666666666667
-0.295,-0.02,6844.444444444444
-0.315,-0.03,6847.222222222223
-0.33,-0.025,6850.0
-0.35,-0.03,6852.777777777777
-0.345,-0.01,6855.555555555556
-0.34,-0.01,6858.333333333333
-0.34,-0.02,6861.111111111111
-0.355,-0.03,6863.888888888889
-0.375,-0.035,6866.666666666667
-0.385,-0.035,6869.444444444444
-0.375,-0.01,6872.222222222223
-0.37,-0.02,6875.0
-0.355,-0.015,6877.777777777777
-0.36,-0.035,6880.555555555556
-0.375,-0.035,6883.333333333333
-0.37,-0.025,6886.111111111111
-0.37,-0.01,6888.888888888889
-0.355,0.0,6891.666666666667
-0.36,-0.005,6894.444444444444
-0.355,-0.015,6897.222222222223
-0.365,-0.035,6900.0
-0.38,-0.025,6902.777777777777
-0.375,-0.01,6905.555555555556
-0.35,0.005,6908.333333333333
-0.35,-0.01,6911.111111111111
-0.33,-0.01,6913.888888888889
-0.345,-0.01,6916.666666666667
-0.345,-0.015,6919.444444444444
-0.34,0.015,6922.222222222223
-0.315,0.04,6925.0
-0.32,0.065,6927.777777777777
-0.31,0.085,6930.555555555556
-0.335,0.11,6933.333333333333
-0.355,0.16,6936.111111111111
-0.37,0.205,6938.888888888889
-0.395,0.22,6941.666666666667
-0.405,0.2,6944.444444444444
-0.435,0.165,6947.222222222223
-0.45,0.11,6950.0
-0.425,0.04,6952.777777777777
-0.315,-0.06,6955.555555555556
-0.09,-0.145,6958.333333333333
0.285,-0.26,6961.111111111111
0.75,-0.36,6963.888888888889
1.225,-0.405,6966.666666666667
1.645,-0.36,6969.444444444444
1.95,-0.28,6972.222222222223
2.075,-0.165,6975.0
2.015,-0.085,6977.777777777777
1.67,-0.04,6980.555555555556
1.045,-0.04,6983.333333333333
0.405,-0.04,6986.111111111111
-0.235,-0.04,6988.888888888889
-0.615,-0.01,6991.666666666667
-0.615,-0.005,6994.444444444444
-0.53,0.01,6997.222222222223
-0.5,0.015,7000.0
-0.51,0.02,7002.777777777777
-0.515,0.025,7005.555555555556
-0.51,0.03,7008.333333333333
-0.5,0.025,7011.111111111111
-0.475,0.015,7013.888888888889
-0.47,0.005,7016.666666666667
-0.44,0.02,7019.444444444444
-0.39,0.025,7022.222222222223
-0.33,0.035,7025.0
-0.28,0.04,7027.777777777777
-0.26,0.03,7030.555555555556
-0.285,0.015,7033.333333333333
-0.275,0.025,7036.111111111111
-0.28,0.035,7038.888888888889
-0.27,0.04,7041.666666666667
-0.245,0.035,7044.444444444444
-0.25,0.005,7047.222222222223
-0.255,0.005,7050.0
-0.26,0.0,7052.777777777777
-0.25,0.02,7055.555555555556
-0.23,0.03,7058.333333333333
-0.22,0.03,7061.111111111111
-0.24,0.02,7063.888888888889
-0.23,0.0,7066.666666666667
-0.245,-0.005,7069.444444444444
-0.23,0.02,7072.222222222223
-0.21,0.03,7075.0
-0.2,0.02,7077.777777777777
-0.2,0.02,7080.555555555556
-0.215,0.01,7083.333333333333
-0.215,0.01,7086.111111111111
-0.21,0.035,7088.888888888889
-0.185,0.035,7091.666666666667
-0.18,0.03,7094.444444444444
-0.185,0.02,7097.222222222223
-0.205,0.015,7100.0
-0.205,0.01,7102.777777777777
-0.19,0.02,7105.555555555556
-0.17,0.045,7108.333333333333
-0.16,0.035,7111.111111111111
-0.165,0.035,7113.888888888889
-0.18,0.01,7116.666666666667
-0.18,0.025,7119.444444444444
-0.165,0.035,7122.222222222223
-0.155,0.035,7125.0
-0.135,0.02,7127.777777777777
-0.15,0.015,7130.555555555556
-0.15,0.0,7133.333333333333
-0.155,0.005,7136.111111111111
-0.155,0.02,7138.888888888889
-0.145,0.035,7141.666666666667
-0.13,0.025,7144.444444444444
-0.145,0.03,7147.222222222223
-0.15,0.015,7150.0
-0.145,0.02,7152.777777777777
-0.12,0.02,7155.555555555556
-0.105,0.04,7158.333333333333
-0.095,0.03,7161.111111111111
-0.11,0.01,7163.888888888889
-0.1,0.005,7166.666666666667
-0.115,0.02,7169.444444444444
-0.09,0.02,7172.222222222223
-0.075,0.04,7175.0
-0.06,0.025,7177.777777777777
-0.06,0.01,7180.555555555556
-0.06,0.005,7183.333333333333
-0.07,-0.005,7186.111111111111
-0.035,0.02,7188.888888888889
-0.01,0.03,7191.666666666667
-0.005,0.025,7194.444444444444
-0.005,0.015,7197.222222222223
0.01,0.01,7200.0
0.01,0.0,7202.777777777777
0.025,0.02,7205.555555555556
0.045,0.02,7208.333333333333
0.055,0.025,7211.111111111111
0.06,0.0,7213.888888888889
0.065,0.005,7216.666666666667
0.07,0.0,7219.444444444444
0.1,0.015,7222.222222222223
0.135,0.02,7225.0
0.155,0.015,7227.777777777777
0.17,0.005,7230.555555555556
0.16,0.005,7233.333333333333
0.195,-0.005,7236.111111111111
0.215,0.005,7238.888888888889
0.26,0.02,7241.666666666667
0.285,-0.005,7244.444444444444
0.3,-0.005,7247.222222222223
0.31,-0.02,7250.0
0.31,-0.01,7252.777777777777
0.365,-0.01,7255.555555555556
0.41,-0.005,7258.333333333333
0.445,-0.005,7261.111111111111
0.455,-0.03,7263.888888888889
0.475,-0.025,7266.666666666667
0.505,-0.02,7269.444444444444
0.54,-0.02,7272.222222222223
0.58,-0.015,7275.0
0.615,-0.02,7277.777777777777
0.63,-0.025,7280.555555555556
0.645,-0.035,7283.333333333333
0.665,-0.045,7286.111111111111
0.705,-0.035,7288.888888888889
0.75,-0.025,7291.666666666667
0.77,-0.03,7294.444444444444
0.795,-0.03,7297.222222222223
0.8,-0.06,7300.0
0.815,-0.055,7302.777777777777
0.85,-0.03,7305.555555555556
0.88,-0.02,7308.333333333333
0.89,-0.025,7311.111111111111
0.895,-0.025,7313.888888888889
0.88,-0.03,7316.666666666667
0.865,-0.025,7319.444444444444
0.855,-0.005,7322.222222222223
0.855,0.005,7325.0
0.835,0.01,7327.777777777777
0.78,0.005,7330.555555555556
0.72,0.0,7333.333333333333
0.67,0.01,7336.111111111111
0.61,0.02,7338.888888888889
0.58,0.035,7341.666666666667
0.515,0.035,7344.444444444444
0.45,0.015,7347.222222222223
0.355,0.025,7350.0
0.285,0.02,7352.777777777777
0.225,0.04,7355.555555555556
0.175,0.04,7358.333333333333
0.115,0.04,7361.111111111111
0.055,0.03,7363.888888888889
-0.005,0.025,7366.666666666667
-0.06,0.03,7369.444444444444
-0.1,0.045,7372.222222222223
-0.105,0.05,7375.0
-0.135,0.05,7377.777777777777
-0.17,0.04,7380.555555555556
-0.205,0.03,7383.333333333333
-0.24,0.035,7386.111111111111
-0.255,0.055,7388.888888888889
-0.245,0.06,7391.666666666667
-0.25,0.055,7394.444444444444
-0.265,0.035,7397.222222222223
-0.29,0.035,7400.0
-0.3,0.035,7402.777777777777
-0.3,0.04,7405.555555555556
-0.295,0.065,7408.333333333333
-0.29,0.05,7411.111111111111
-0.305,0.035,7413.888888888889
-0.325,0.025,7416.666666666667
-0.335,0.035,7419.444444444444
-0.325,0.035,7422.222222222223
-0.315,0.06,7425.0
-0.315,0.04,7427.777777777777
-0.315,0.04,7430.555555555556
-0.33,0.035,7433.333333333333
-0.335,0.045,7436.111111111111
-0.35,0.06,7438.888888888889
-0.32,0.065,7441.666666666667
-0.32,0.05,7444.444444444444
-0.315,0.045,7447.222222222223
-0.335,0.03,7450.0
-0.34,0.03,7452.777777777777
-0.345,0.055,7455.555555555556
-0.325,0.06,7458.333333333333
-0.315,0.065,7461.111111111111
-0.315,0.04,7463.888888888889
-0.325,0.03,7466.666666666667
-0.325,0.035,7469.444444444444
-0.325,0.05,7472.222222222223
-0.315,0.07,7475.0
-0.31,0.06,7477.777777777777
-0.305,0.04,7480.555555555556
-0.325,0.035,7483.333333333333
-0.325,0.045,7486.111111111111
-0.32,0.05,7488.888888888889
-0.315,0.065,7491.666666666667
-0.305,0.07,7494.444444444444
-0.305,0.045,7497.222222222223
-0.325,0.035,7500.0
-0.32,0.03,7502.777777777777
-0.31,0.035,7505.555555555556
-0.3,0.07,7508.333333333333
-0.29,0.06,7511.111111111111
-0.305,0.045,7513.888888888889
-0.315,0.035,7516.666666666667
-0.32,0.03,7519.444444444444
-0.305,0.055,7522.222222222223
-0.3,0.065,7525.0
-0.285,0.055,7527.777777777777
-0.29,0.035,7530.555555555556
-0.31,0.025,7533.333333333333
-0.31,0.04,7536.111111111111
-0.31,0.05,7538.888888888889
-0.3,0.065,7541.666666666667
-0.285,0.055,7544.444444444444
-0.295,0.04,7547.222222222223
-0.31,0.03,7550.0
-0.305,0.035,7552.777777777777
-0.32,0.05,7555.555555555556
-0.3,0.06,7558.333333333333
-0.295,0.055,7561.111111111111
-0.31,0.04,7563.888888888889
-0.34,0.045,7566.666666666667
-0.33,0.04,7569.444444444444
-0.325,0.05,7572.222222222223
-0.315,0.055,7575.0
-0.3,0.05,7577.777777777777
-0.305,0.04,7580.555555555556
-0.31,0.03,7583.333333333333
-0.335,0.03,7586.111111111111
-0.32,0.045,7588.888888888889
-0.31,0.07,7591.666666666667
-0.31,0.05,7594.444444444444
-0.31,0.045,7597.222222222223
-0.335,0.025,7600.0
-0.335,0.03,7602.777777777777
-0.345,0.05,7605.555555555556
-0.325,0.06,7608.333333333333
-0.305,0.055,7611.111111111111
-0.32,0.035,7613.888888888889
-0.34,0.02,7616.666666666667
-0.34,0.04,7619.444444444444
-0.34,0.05,7622.222222222223
-0.325,0.065,7625.0
-0.325,0.05,7627.777777777777
-0.335,0.03,7630.555555555556
-0.33,0.025,7633.333333333333
-0.34,0.035,7636.111111111111
-0.33,0.05,7638.888888888889
-0.33,0.045,7641.666666666667
-0.32,0.045,7644.444444444444
-0.32,0.035,7647.222222222223
-0.34,0.01,7650.0
-0.335,0.03,7652.777777777777
-0.33,0.04,7655.555555555556
-0.315,0.055,7658.333333333333
-0.31,0.045,7661.111111111111
-0.325,0.035,7663.888888888889
-0.34,0.035,7666.666666666667
-0.355,0.03,7669.444444444444
-0.345,0.035,7672.222222222223
-0.335,0.06,7675.0
-0.325,0.045,7677.777777777777
-0.325,0.025,7680.555555555556
-0.325,0.03,7683.333333333333
-0.34,0.04,7686.111111111111
-0.33,0.05,7688.888888888889
-0.305,0.055,7691.666666666667
-0.305,0.045,7694.444444444444
-0.325,0.025,7697.222222222223
-0.345,0.02,7700.0
-0.345,0.03,7702.777777777777
-0.34,0.03,7705.555555555556
-0.32,0.05,7708.333333333333
-0.325,0.04,7711.111111111111
-0.335,0.03,7713.888888888889
-0.345,0.02,7716.666666666667
-0.33,0.02,7719.444444444444
-0.34,0.045,7722.222222222223
-0.33,0.06,7725.0
-0.315,0.055,7727.777777777777
-0.32,0.035,7730.555555555556
-0.325,0.035,7733.333333333333
-0.32,0.04,7736.111111111111
-0.315,0.03,7738.888888888889
-0.315,0.04,7741.666666666667
-0.3,0.045,7744.444444444444
-0.305,0.025,7747.222222222223
-0.32,0.02,7750.0
-0.315,0.025,7752.777777777777
-0.31,0.045,7755.555555555556
-0.3,0.055,7758.333333333333
-0.31,0.045,7761.111111111111
-0.305,0.045,7763.888888888889
-0.325,0.03,7766.666666666667
-0.33,0.03,7769.444444444444
-0.315,0.04,7772.222222222223
-0.31,0.055,7775.0
-0.29,0.045,7777.777777777777
-0.295,0.045,7780.555555555556
-0.305,0.03,7783.333333333333
-0.32,0.03,7786.111111111111
-0.305,0.05,7788.888888888889
-0.295,0.055,7791.666666666667
-0.295,0.065,7794.444444444444
-0.29,0.055,7797.222222222223
-0.305,0.07,7800.0
-0.29,0.075,7802.777777777777
-0.27,0.095,7805.555555555556
-0.255,0.1,7808.333333333333
-0.245,0.105,7811.111111111111
-0.235,0.08,7813.888888888889
-0.255,0.07,7816.666666666667
-0.24,0.06,7819.444444444444
-0.245,0.06,7822.222222222223
-0.225,0.075,7825.0
-0.21,0.06,7827.777777777777
-0.215,0.03,7830.555555555556
-0.225,0.01,7833.333333333333
-0.225,0.025,7836.111111111111
-0.205,0.03,7838.888888888889
-0.17,0.035,7841.666666666667
-0.185,0.03,7844.444444444444
-0.195,0.015,7847.222222222223
-0.215,0.015,7850.0
-0.23,0.02,7852.777777777777
-0.215,0.03,7855.555555555556
-0.21,0.05,7858.333333333333
-0.22,0.04,7861.111111111111
-0.245,0.03,7863.888888888889
-0.265,0.02,7866.666666666667
-0.285,0.03,7869.444444444444
-0.275,0.045,7872.222222222223
-0.275,0.045,7875.0
-0.27,0.04,7877.777777777777
-0.28,0.02,7880.555555555556
-0.305,0.025,7883.333333333333
-0.315,0.035,7886.111111111111
-0.295,0.035,7888.888888888889
-0.285,0.05,7891.666666666667
-0.275,0.04,7894.444444444444
-0.28,0.035,7897.222222222223
-0.29,0.035,7900.0
-0.31,0.03,7902.777777777777
-0.29,0.045,7905.555555555556
-0.275,0.055,7908.333333333333
-0.27,0.04,7911.111111111111
-0.275,0.03,7913.888888888889
-0.285,0.03,7916.666666666667
-0.285,0.025,7919.444444444444
-0.28,0.045,7922.222222222223
-0.27,0.065,7925.0
-0.25,0.065,7927.777777777777
-0.25,0.065,7930.555555555556
-0.25,0.07,7933.333333333333
-0.26,0.13,7936.111111111111
-0.25,0.175,7938.888888888889
-0.245,0.235,7941.666666666667
-0.27,0.27,7944.444444444444
-0.31,0.275,7947.222222222223
-0.355,0.255,7950.0
-0.395,0.22,7952.777777777777
-0.385,0.165,7955.555555555556
-0.34,0.095,7958.333333333333
-0.23,-0.02,7961.111111111111
-0.02,-0.145,7963.888888888889
0.335,-0.255,7966.666666666667
0.84,-0.36,7969.444444444444
1.39,-0.38,7972.222222222223
1.85,-0.31,7975.0
2.15,-0.21,7977.777777777777
2.235,-0.12,7980.555555555556
2.02,-0.045,7983.333333333333
1.48,-0.005,7986.111111111111
0.84,0.01,7988.888888888889
0.2,0.015,7991.666666666667
-0.44,0.035,7994.444444444444
-0.58,0.06,7997.222222222223
-0.465,0.065,8000.0
-0.405,0.085,8002.777777777777
-0.42,0.09,8005.555555555556
-0.42,0.08,8008.333333333333
-0.42,0.07,8011.111111111111
-0.4,0.06,8013.888888888889
-0.38,0.06,8016.666666666667
-0.335,0.075,8019.444444444444
-0.27,0.085,8022.222222222223
-0.225,0.085,8025.0
-0.21,0.08,8027.777777777777
-0.225,0.07,8030.555555555556
-0.24,0.065,8033.333333333333
-0.245,0.06,8036.111111111111
-0.215,0.08,8038.888888888889
-0.205,0.075,8041.666666666667
-0.195,0.07,8044.444444444444
-0.2,0.055,8047.222222222223
-0.215,0.065,8050.0
-0.205,0.065,8052.777777777777
-0.19,0.085,8055.555555555556
-0.18,0.08,8058.333333333333
-0.175,0.06,8061.111111111111
-0.175,0.065,8063.888888888889
-0.2,0.055,8066.666666666667
-0.2,0.045,8069.444444444444
-0.17,0.07,8072.222222222223
-0.165,0.07,8075.0
-0.16,0.06,8077.777777777777
-0.17,0.05,8080.555555555556
-0.18,0.045,8083.333333333333
-0.17,0.05,8086.111111111111
-0.175,0.07,8088.888888888889
-0.145,0.07,8091.666666666667
-0.135,0.08,8094.444444444444
-0.145,0.065,8097.222222222223
-0.155,0.05,8100.0
-0.15,0.04,8102.777777777777
-0.15,0.06,8105.555555555556
-0.145,0.07,8108.333333333333
-0.12,0.07,8111.111111111111
-0.13,0.06,8113.888888888889
-0.135,0.045,8116.666666666667
-0.135,0.055,8119.444444444444
-0.12,0.055,8122.222222222223
-0.105,0.06,8125.0
-0.105,0.07,8127.777777777777
-0.1,0.05,8130.555555555556
-0.11,0.04,8133.333333333333
-0.12,0.05,8136.111111111111
-0.1,0.06,8138.888888888889
-0.07,0.075,8141.666666666667
-0.065,0.055,8144.444444444444
-0.05,0.045,8147.222222222223
-0.06,0.04,8150.0
-0.07,0.04,8152.777777777777
-0.04,0.045,8155.555555555556
-0.03,0.055,8158.333333333333
-0.02,0.05,8161.111111111111
-0.01,0.045,8163.888888888889
-0.005,0.03,8166.666666666667
-0.01,0.055,8169.444444444444
0.0,0.05,8172.222222222223
0.03,0.065,8175.0
0.05,0.06,8177.777777777777
0.055,0.04,8180.555555555556
0.065,0.025,8183.333333333333
0.07,0.03,8186.111111111111
0.095,0.055,8188.888888888889
0.12,0.07,8191.666666666667
0.145,0.06,8194.444444444445
0.15,0.04,8197.222222222223
0.17,0.02,8200.0
0.185,0.025,8202.777777777777
0.21,0.03,8205.555555555555
0.245,0.05,8208.333333333334
0.27,0.04,8211.111111111111
0.275,0.03,8213.888888888889
0.3,0.015,8216.666666666666
0.305,0.03,8219.444444444445
0.34,0.05,8222.222222222223
0.385,0.045,8225.0
0.43,0.03,8227.777777777777
0.44,0.005,8230.555555555555
0.475,-0.005,8233.333333333334
0.5,0.005,8236.111111111111
0.54,0.01,8238.888888888889
0.585,0.03,8241.666666666666
0.615,0.025,8244.444444444445
0.63,-0.005,8247.222222222223
0.65,0.005,8250.0
0.67,0.0,8252.777777777777
0.71,0.0,8255.555555555555
0.75,0.02,8258.333333333334
0.795,0.02,8261.111111111111
0.815,0.005,8263.888888888889
0.835,-0.015,8266.666666666666
0.85,-0.015,8269.444444444445
0.88,0.005,8272.222222222223
0.92,0.01,8275.0
0.93,0.015,8277.777777777777
0.935,0.005,8280.555555555555
0.915,0.0,8283.333333333334
0.905,0.01,8286.111111111111
0.9,0.025,8288.888888888889
0.885,0.04,8291.666666666666
0.855,0.035,8294.444444444445
0.8,0.03,8297.222222222223
0.73,0.025,8300.0
0.66,0.03,8302.777777777777
0.605,0.05,8305.555555555555
0.54,0.06,8308.333333333334
0.48,0.05,8311.111111111111
0.42,0.04,8313.888888888889
0.345,0.04,8316.666666666666
0.255,0.04,8319.444444444445
0.195,0.055,8322.222222222223
0.155,0.075,8325.0
0.1,0.065,8327.777777777777
0.04,0.05,8330.555555555555
-0.01,0.035,8333.333333333334
-0.075,0.035,8336.111111111111
-0.1,0.05,8338.888888888889
-0.115,0.06,8341.666666666666
-0.145,0.06,8344.444444444445
-0.175,0.04,8347.222222222223
-0.225,0.025,8350.0
-0.235,0.045,8352.777777777777
-0.24,0.05,8355.555555555555
-0.245,0.055,8358.333333333334
-0.245,0.05,8361.111111111111
-0.27,0.04,8363.888888888889
-0.295,0.03,8366.666666666666
-0.31,0.04,8369.444444444445
-0.32,0.035,8372.222222222223
-0.31,0.06,8375.0
-0.305,0.05,8377.777777777777
-0.335,0.04,8380.555555555555
-0.34,0.03,8383.333333333334
-0.34,0.035,8386.111111111111
-0.34,0.04,8388.888888888889
-0.34,0.055,8391.666666666666
-0.33,0.06,8394.444444444445
-0.33,0.045,8397.222222222223
-0.35,0.045,8400.0
-0.35,0.05,8402.777777777777
-0.34,0.055,8405.555555555555
-0.345,0.065,8408.333333333334
-0.325,0.05,8411.111111111111
-0.33,0.045,8413.888888888889
-0.35,0.04,8416.666666666666
-0.35,0.05,8419.444444444445
-0.355,0.065,8422.222222222223
-0.35,0.07,8425.0
-0.335,0.055,8427.777777777777
-0.335,0.05,8430.555555555555
-0.355,0.03,8433.333333333334
-0.365,0.05,8436.111111111111
-0.345,0.05,8438.888888888889
-0.335,0.07,8441.666666666666
-0.32,0.07,8444.444444444445
-0.34,0.055,8447.222222222223
-0.34,0.045,8450.0
-0.355,0.05,8452.777777777777
-0.345,0.06,8455.555555555555
-0.325,0.065,8458.333333333334
-0.33,0.06,8461.111111111111
-0.35,0.04,8463.888888888889
-0.335,0.04,8466.666666666666
-0.335,0.05,8469.444444444445
-0.335,0.055,8472.222222222223
-0.33,0.06,8475.0
-0.33,0.065,8477.777777777777
-0.335,0.06,8480.555555555555
-0.34,0.04,8483.333333333334
-0.365,0.04,8486.111111111111
-0.36,0.06,8488.888888888889
-0.33,0.065,8491.666666666666
-0.32,0.055,8494.444444444445
-0.33,0.055,8497.222222222223
-0.345,0.04,8500.0
-0.355,0.03,8502.777777777777
-0.34,0.06,8505.555555555555
-0.345,0.06,8508.333333333334
-0.33,0.05,8511.111111111111
-0.33,0.05,8513.888888888889
-0.355,0.035,8516.666666666666
-0.355,0.055,8519.444444444445
-0.37,0.065,8522.222222222223
-0.345,0.07,8525.0
-0.34,0.07,8527.777777777777
-0.345,0.055,8530.555555555555
-0.365,0.045,8533.333333333334
-0.365,0.045,8536.111111111111
-0.355,0.055,8538.888888888889
-0.345,0.07,8541.666666666666
-0.355,0.07,8544.444444444445
-0.37,0.05,8547.222222222223
-0.385,0.04,8550.0
-0.395,0.045,8552.777777777777
-0.38,0.055,8555.555555555555
-0.365,0.07,8558.333333333334
-0.36,0.065,8561.111111111111
-0.385,0.055,8563.888888888889
-0.39,0.05,8566.666666666666
-0.4,0.05,8569.444444444445
-0.38,0.06,8572.222222222223
-0.365,0.065,8575.0
-0.375,0.06,8577.777777777777
-0.385,0.05,8580.555555555555
-0.4,0.035,8583.333333333334
-0.405,0.035,8586.111111111111
-0.41,0.06,8588.888888888889
-0.385,0.065,8591.666666666666
-0.37,0.06,8594.444444444445
-0.375,0.05,8597.222222222223
-0.4,0.045,8600.0
-0.415,0.05,8602.777777777777
-0.405,0.07,8605.555555555555
-0.4,0.075,8608.333333333334
-0.38,0.07,8611.111111111111
-0.385,0.06,8613.888888888889
-0.405,0.05,8616.666666666666
-0.41,0.06,8619.444444444445
-0.415,0.065,8622.222222222223
-0.385,0.08,8625.0
-0.39,0.07,8627.777777777777
-0.39,0.065,8630.555555555555
-0.405,0.045,8633.333333333334
-0.41,0.055,8636.111111111111
-0.41,0.06,8638.888888888889
-0.385,0.075,8641.666666666666
-0.39,0.065,8644.444444444445
-0.395,0.065,8647.222222222223
-0.415,0.05,8650.0
-0.415,0.05,8652.777777777777
-0.42,0.075,8655.555555555555
-0.395,0.085,8658.333333333334
-0.405,0.08,8661.111111111111
-0.405,0.055,8663.888888888889
-0.425,0.05,8666.666666666666
-0.425,0.06,8669.444444444445
-0.41,0.07,8672.222222222223
-0.405,0.09,8675.0
-0.41,0.08,8677.777777777777
-0.415,0.06,8680.555555555555
-0.415,0.055,8683.333333333334
-0.435,0.065,8686.111111111111
-0.44,0.08,8688.888888888889
-0.415,0.095,8691.666666666666
-0.41,0.085,8694.444444444445
-0.41,0.07,8697.222222222223
-0.445,0.055,8700.0
-0.44,0.06,8702.777777777777
-0.44,0.085,8705.555555555555
-0.425,0.085,8708.333333333334
-0.405,0.09,8711.111111111111
-0.415,0.07,8713.888888888889
-0.425,0.06,8716.666666666666
-0.425,0.065,8719.444444444445
-0.43,0.08,8722.222222222223
-0.415,0.1,8725.0
-0.4,0.085,8727.777777777777
-0.405,0.075,8730.555555555555
-0.42,0.075,8733.333333333334
-0.43,0.07,8736.111111111111
-0.425,0.085,8738.888888888889
-0.405,0.095,8741.666666666666
-0.405,0.085,8744.444444444445
-0.415,0.085,8747.222222222223
-0.435,0.065,8750.0
-0.45,0.075,8752.777777777777
-0.43,0.085,8755.555555555555
-0.425,0.095,8758.333333333334
-0.425,0.085,8761.111111111111
-0.425,0.075,8763.888888888889
-0.445,0.07,8766.666666666666
-0.445,0.08,8769.444444444445
-0.44,0.085,8772.222222222223
-0.43,0.105,8775.0
-0.415,0.1,8777.777777777777
-0.43,0.08,8780.555555555555
-0.445,0.07,8783.333333333334
-0.45,0.08,8786.111111111111
-0.44,0.09,8788.888888888889
-0.42,0.11,8791.666666666666
-0.41,0.1,8794.444444444445
-0.44,0.085,8797.222222222223
-0.465,0.075,8800.0
-0.445,0.09,8802.777777777777
-0.435,0.1,8805.555555555555
-0.415,0.1,8808.333333333334
-0.425,0.105,8811.111111111111
-0.42,0.095,8813.888888888889
-0.435,0.08,8816.666666666666
-0.46,0.09,8819.444444444445
-0.435,0.095,8822.222222222223
-0.425,0.11,8825.0
-0.42,0.11,8827.777777777777
-0.425,0.09,8830.555555555555
-0.44,0.09,8833.333333333334
-0.445,0.095,8836.111111111111
-0.45,0.105,8838.888888888889
-0.445,0.11,8841.666666666666
-0.425,0.1,8844.444444444445
-0.445,0.105,8847.222222222223
-0.445,0.095,8850.0
-0.455,0.105,8852.777777777777
-0.455,0.115,8855.555555555555
-0.43,0.13,8858.333333333334
-0.445,0.125,8861.111111111111
-0.445,0.115,8863.888888888889
-0.455,0.13,8866.666666666666
-0.445,0.145,8869.444444444445
-0.425,0.165,8872.222222222223
-0.405,0.18,8875.0
-0.4,0.18,8877.777777777777
-0.395,0.14,8880.555555555555
-0.405,0.115,8883.333333333334
-0.405,0.135,8886.111111111111
-0.405,0.125,8888.888888888889
-0.385,0.12,8891.666666666666
-0.38,0.095,8894.444444444445
-0.36,0.085,8897.222222222223
-0.375,0.075,8900.0
-0.385,0.095,8902.777777777777
-0.38,0.11,8905.555555555555
-0.37,0.13,8908.333333333334
-0.38,0.12,8911.111111111111
-0.37,0.125,8913.888888888889
-0.385,0.1,8916.666666666666
-0.415,0.12,8919.444444444445
-0.41,0.14,8922.222222222223
-0.405,0.155,8925.0
-0.41,0.13,8927.777777777777
-0.435,0.115,8930.555555555555
-0.46,0.1,8933.333333333334
-0.46,0.11,8936.111111111111
-0.46,0.135,8938.888888888889
-0.44,0.145,8941.666666666666
-0.44,0.135,8944.444444444445
-0.455,0.12,8947.222222222223
-0.46,0.115,8950.0
-0.46,0.125,8952.777777777777
-0.455,0.14,8955.555555555555
-0.435,0.15,8958.333333333334
-0.43,0.15,8961.111111111111
-0.435,0.12,8963.888888888889
-0.46,0.13,8966.666666666666
-0.455,0.135,8969.444444444445
-0.46,0.155,8972.222222222223
-0.435,0.16,8975.0
-0.425,0.155,8977.777777777777
-0.425,0.165,8980.555555555555
-0.45,0.155,8983.333333333334
-0.44,0.165,8986.111111111111
-0.43,0.22,8988.888888888889
-0.41,0.275,8991.666666666666
-0.42,0.315,8994.444444444445
-0.445,0.345,8997.222222222223
-0.495,0.355,9000.0
-0.535,0.35,9002.777777777777
-0.56,0.315,9005.555555555555
-0.54,0.26,9008.333333333334
-0.485,0.13,9011.111111111111
-0.315,0.0,9013.888888888889
-0.01,-0.125,9016.666666666666
0.435,-0.235,9019.444444444445
1.01,-0.26,9022.222222222223
1.51,-0.235,9025.0
1.84,-0.155,9027.777777777777
2.01,-0.075,9030.555555555555
1.98,0.015,9033.333333333334
1.715,0.08,9036.111111111111
1.17,0.11,9038.888888888889
0.53,0.11,9041.666666666666
-0.11,0.11,9044.444444444445
-0.75,0.125,9047.222222222223
-0.77,0.16,9050.0
-0.67,0.185,9052.777777777777
-0.62,0.2,9055.555555555555
-0.59,0.21,9058.333333333334
-0.615,0.195,9061.111111111111
-0.615,0.18,9063.888888888889
-0.61,0.185,9066.666666666666
-0.575,0.2,9069.444444444445
-0.52,0.22,9072.222222222223
-0.465,0.225,9075.0
-0.44,0.22,9077.777777777777
-0.42,0.19,9080.555555555555
-0.44,0.195,9083.333333333334
-0.455,0.2,9086.111111111111
-0.435,0.215,9088.888888888889
-0.415,0.22,9091.666666666666
-0.425,0.235,9094.444444444445
-0.425,0.205,9097.222222222223
-0.435,0.205,9100.0
-0.445,0.2,9102.777777777777
-0.425,0.225,9105.555555555555
-0.42,0.24,9108.333333333334
-0.405,0.235,9111.111111111111
-0.415,0.225,9113.888888888889
-0.425,0.21,9116.666666666666
-0.42,0.225,9119.444444444445
-0.415,0.225,9122.222222222223
-0.395,0.24,9125.0
-0.41,0.24,9127.777777777777
-0.405,0.225,9130.555555555555
-0.405,0.22,9133.333333333334
-0.42,0.225,9136.111111111111
-0.41,0.23,9138.888888888889
-0.385,0.235,9141.666666666666
-0.39,0.235,9144.444444444445
-0.4,0.215,9147.222222222223
-0.41,0.215,9150.0
-0.41,0.23,9152.777777777777
-0.405,0.245,9155.555555555555
-0.375,0.255,9158.333333333334
-0.37,0.245,9161.111111111111
-0.385,0.23,9163.888888888889
-0.38,0.225,9166.666666666666
-0.395,0.22,9169.444444444445
-0.38,0.235,9172.222222222223
-0.365,0.245,9175.0
-0.36,0.24,9177.777777777777
-0.375,0.23,9180.555555555555
-0.385,0.22,9183.333333333334
-0.385,0.225,9186.111111111111
-0.38,0.24,9188.888888888889
-0.35,0.255,9191.666666666666
-0.345,0.245,9194.444444444445
-0.35,0.23,9197.222222222223
-0.35,0.22,9200.0
-0.345,0.225,9202.777777777777
-0.33,0.235,9205.555555555555
-0.325,0.255,9208.333333333334
-0.315,0.245,9211.111111111111
-0.32,0.23,9213.888888888889
-0.325,0.22,9216.666666666666
-0.325,0.23,9219.444444444445
-0.305,0.24,9222.222222222223
-0.295,0.255,9225.0
-0.295,0.24,9227.777777777777
-0.28,0.24,9230.555555555555
-0.285,0.225,9233.333333333334
-0.275,0.235,9236.111111111111
-0.27,0.235,9238.888888888889
-0.24,0.26,9241.666666666666
-0.23,0.255,9244.444444444445
-0.23,0.24,9247.222222222223
-0.235,0.225,9250.0
-0.245,0.235,9252.777777777777
-0.215,0.24,9255.555555555555
-0.175,0.26,9258.333333333334
-0.165,0.25,9261.111111111111
-0.155,0.24,9263.888888888889
-0.165,0.23,9266.666666666666
-0.15,0.23,9269.444444444445
-0.115,0.24,9272.222222222223
-0.095,0.25,9275.0
-0.08,0.245,9277.777777777777
-0.065,0.225,9280.555555555555
-0.06,0.22,9283.333333333334
-0.055,0.22,9286.111111111111
-0.01,0.23,9288.888888888889
0.035,0.24,9291.666666666666
0.05,0.25,9294.444444444445
0.07,0.225,9297.222222222223
0.085,0.22,9300.0
0.115,0.22,9302.777777777777
0.14,0.235,9305.555555555555
0.185,0.24,9308.333333333334
0.22,0.24,9311.111111111111
0.255,0.215,9313.888888888889
0.27,0.205,9316.666666666666
0.28,0.22,9319.444444444445
0.315,0.225,9322.222222222223
0.365,0.24,9325.0
0.4,0.23,9327.777777777777
0.425,0.215,9330.555555555555
0.435,0.205,9333.333333333334
0.46,0.215,9336.111111111111
0.505,0.22,9338.888888888889
0.53,0.22,9341.666666666666
0.555,0.22,9344.444444444445
0.575,0.195,9347.222222222223
0.59,0.205,9350.0
0.61,0.215,9352.777777777777
0.635,0.225,9355.555555555555
0.645,0.235,9358.333333333334
0.65,0.24,9361.111111111111
0.62,0.23,9363.888888888889
0.58,0.22,9366.666666666666
0.565,0.24,9369.444444444445
0.53,0.255,9372.222222222223
0.49,0.255,9375.0
0.44,0.25,9377.777777777777
0.37,0.25,9380.555555555555
0.285,0.245,9383.333333333334
0.215,0.24,9386.111111111111
0.16,0.26,9388.888888888889
0.105,0.27,9391.666666666666
0.05,0.275,9394.444444444445
-0.035,0.25,9397.222222222223
-0.09,0.26,9400.0
-0.17,0.25,9402.777777777777
-0.215,0.265,9405.555555555555
-0.26,0.285,9408.333333333334
-0.285,0.285,9411.111111111111
-0.33,0.27,9413.888888888889
-0.385,0.255,9416.666666666666
-0.415,0.27,9419.444444444445
-0.43,0.275,9422.222222222223
-0.45,0.28,9425.0
-0.45,0.27,9427.777777777777
-0.475,0.255,9430.555555555555
-0.495,0.25,9433.333333333334
-0.52,0.26,9436.111111111111
-0.505,0.28,9438.888888888889
-0.505,0.28,9441.666666666666
-0.515,0.28,9444.444444444445
-0.525,0.26,9447.222222222223
-0.54,0.25,9450.0
-0.555,0.265,9452.777777777777
-0.555,0.28,9455.555555555555
-0.545,0.285,9458.333333333334
-0.55,0.275,9461.111111111111
-0.55,0.275,9463.888888888889
-0.565,0.255,9466.666666666666
-0.57,0.255,9469.444444444445
-0.555,0.275,9472.222222222223
-0.56,0.28,9475.0
-0.55,0.28,9477.777777777777
-0.55,0.26,9480.555555555555
-0.58,0.26,9483.333333333334
-0.58,0.26,9486.111111111111
-0.575,0.285,9488.888888888889
-0.555,0.295,9491.666666666666
-0.57,0.28,9494.444444444445
-0.56,0.26,9497.222222222223
-0.58,0.265,9500.0
-0.57,0.285,9502.777777777777
-0.565,0.28,9505.555555555555
-0.56,0.3,9508.333333333334
-0.56,0.29,9511.111111111111
-0.57,0.29,9513.888888888889
-0.57,0.265,9516.666666666666
-0.575,0.27,9519.444444444445
-0.57,0.29,9522.222222222223
-0.555,0.295,9525.0
-0.55,0.295,9527.777777777777
-0.55,0.275,9530.555555555555
-0.575,0.275,9533.333333333334
-0.58,0.28,9536.111111111111
-0.56,0.285,9538.888888888889
-0.55,0.3,9541.666666666666
-0.535,0.295,9544.444444444445
-0.54,0.28,9547.222222222223
-0.57,0.28,9550.0
-0.58,0.28,9552.777777777777
-0.56,0.285,9555.555555555555
-0.54,0.3,9558.333333333334
-0.535,0.3,9561.111111111111
-0.55,0.275,9563.888888888889
-0.555,0.28,9566.666666666666
-0.56,0.275,9569.444444444445
-0.56,0.3,9572.222222222223
-0.555,0.305,9575.0
-0.545,0.295,9577.777777777777
-0.54,0.28,9580.555555555555
-0.55,0.27,9583.333333333334
-0.56,0.275,9586.111111111111
-0.555,0.285,9588.888888888889
-0.56,0.3,9591.666666666666
-0.555,0.29,9594.444444444445
-0.55,0.28,9597.222222222223
-0.57,0.28,9600.0
-0.58,0.28,9602.777777777777
-0.565,0.285,9605.555555555555
-0.555,0.305,9608.333333333334
-0.545,0.295,9611.111111111111
-0.56,0.265,9613.888888888889
-0.585,0.26,9616.666666666666
-0.575,0.28,9619.444444444445
-0.57,0.29,9622.222222222223
-0.55,0.295,9625.0
-0.555,0.285,9627.777777777777
-0.57,0.28,9630.555555555555
-0.58,0.27,9633.333333333334
-0.595,0.27,9636.111111111111
-0.58,0.285,9638.888888888889
-0.56,0.305,9641.666666666666
-0.565,0.285,9644.444444444445
-0.57,0.28,9647.222222222223
-0.59,0.275,9650.0
-0.6,0.27,9652.777777777777
-0.575,0.275,9655.555555555555
-0.565,0.285,9658.333333333334
-0.57,0.29,9661.111111111111
-0.58,0.28,9663.888888888889
-0.595,0.265,9666.666666666666
-0.6,0.275,9669.444444444445
-0.59,0.28,9672.222222222223
-0.575,0.29,9675.0
-0.575,0.28,9677.777777777777
-0.575,0.265,9680.555555555555
-0.59,0.255,9683.333333333334
-0.59,0.27,9686.111111111111
-0.58,0.275,9688.888888888889
-0.585,0.295,9691.666666666666
-0.57,0.275,9694.444444444445
-0.575,0.28,9697.222222222223
-0.59,0.26,9700.0
-0.585,0.275,9702.777777777777
-0.58,0.28,9705.555555555555
-0.57,0.295,9708.333333333334
-0.575,0.28,9711.111111111111
-0.555,0.28,9713.888888888889
-0.575,0.26,9716.666666666666
-0.58,0.27,9719.444444444445
-0.575,0.28,9722.222222222223
-0.565,0.29,9725.0
-0.555,0.28,9727.777777777777
-0.565,0.28,9730.555555555555
-0.57,0.265,9733.333333333334
-0.58,0.265,9736.111111111111
-0.58,0.285,9738.888888888889
-0.565,0.29,9741.666666666666
-0.55,0.275,9744.444444444445
-0.555,0.26,9747.222222222223
-0.575,0.26,9750.0
-0.585,0.255,9752.777777777777
-0.585,0.275,9755.555555555555
-0.57,0.29,9758.333333333334
-0.565,0.28,9761.111111111111
-0.58,0.265,9763.888888888889
-0.585,0.26,9766.666666666666
-0.58,0.255,9769.444444444445
-0.565,0.285,9772.222222222223
-0.565,0.28,9775.0
-0.555,0.275,9777.777777777777
-0.565,0.27,9780.555555555555
-0.575,0.265,9783.333333333334
-0.57,0.27,9786.111111111111
-0.56,0.28,9788.888888888889
-0.555,0.28,9791.666666666666
-0.55,0.275,9794.444444444445
-0.57,0.255,9797.222222222223
-0.57,0.255,9800.0
-0.565,0.27,9802.777777777777
-0.58,0.28,9805.555555555555
-0.55,0.29,9808.333333333334
-0.55,0.28,9811.111111111111
-0.55,0.27,9813.888888888889
-0.565,0.26,9816.666666666666
-0.58,0.265,9819.444444444445
-0.565,0.28,9822.222222222223
-0.545,0.295,9825.0
-0.535,0.285,9827.777777777777
-0.545,0.265,9830.555555555555
-0.555,0.265,9833.333333333334
-0.57,0.28,9836.111111111111
-0.555,0.275,9838.888888888889
-0.535,0.295,9841.666666666666
-0.53,0.285,9844.444444444445
-0.545,0.27,9847.222222222223
-0.56,0.255,9850.0
-0.555,0.26,9852.777777777777
-0.555,0.27,9855.555555555555
-0.525,0.27,9858.333333333334
-0.525,0.27,9861.111111111111
-0.55,0.275,9863.888888888889
-0.55,0.255,9866.666666666666
-0.545,0.255,9869.444444444445
-0.535,0.28,9872.222222222223
-0.515,0.285,9875.0
-0.515,0.27,9877.777777777777
-0.52,0.265,9880.555555555555
-0.54,0.25,9883.333333333334
-0.545,0.265,9886.111111111111
-0.545,0.27,9888.888888888889
-0.515,0.27,9891.666666666666
-0.505,0.27,9894.444444444445
-0.515,0.265,9897.222222222223
-0.535,0.24,9900.0
-0.54,0.255,9902.777777777777
-0.53,0.27,9905.555555555555
-0.51,0.285,9908.333333333334
-0.505,0.27,9911.111111111111
-0.525,0.265,9913.888888888889
-0.52,0.255,9916.666666666666
-0.52,0.255,9919.444444444445
-0.52,0.27,9922.222222222223
-0.505,0.29,9925.0
-0.51,0.285,9927.777777777777
-0.5,0.27,9930.555555555555
-0.515,0.25,9933.333333333334
-0.505,0.255,9936.111111111111
-0.505,0.27,9938.888888888889
-0.505,0.295,9941.666666666666
-0.505,0.265,9944.444444444445
-0.505,0.265,9947.222222222223
-0.52,0.26,9950.0
-0.525,0.26,9952.777777777777
-0.5,0.27,9955.555555555555
-0.475,0.295,9958.333333333334
-0.47,0.295,9961.111111111111
-0.48,0.29,9963.888888888889
-0.475,0.3,9966.666666666666
-0.475,0.29,9969.444444444445
-0.46,0.31,9972.222222222223
-0.435,0.31,9975.0
-0.43,0.295,9977.777777777777
-0.43,0.285,9980.555555555555
-0.435,0.265,9983.333333333334
-0.435,0.27,9986.111111111111
-0.45,0.255,9988.888888888889
-0.42,0.255,9991.666666666666
-0.4,0.245,9994.444444444445
-0.4,0.225,9997.222222222223
-0.42,0.225,10000.0
-0.425,0.235,10002.777777777777
-0.435,0.255,10005.555555555555
-0.405,0.265,10008.333333333334
-0.39,0.255,10011.111111111111
-0.395,0.25,10013.888888888889
-0.42,0.245,10016.666666666666
-0.44,0.255,10019.444444444445
-0.435,0.26,10022.222222222223
-0.43,0.27,10025.0
-0.44,0.265,10027.777777777777
-0.45,0.245,10030.555555555555
-0.465,0.24,10033.333333333334
-0.47,0.245,10036.111111111111
-0.45,0.26,10038.888888888889
-0.435,0.28,10041.666666666666
-0.45,0.26,10044.444444444445
-0.45,0.25,10047.222222222223
-0.46,0.235,10050.0
-0.47,0.245,10052.777777777777
-0.46,0.245,10055.555555555555
-0.435,0.265,10058.333333333334
-0.43,0.265,10061.111111111111
-0.44,0.25,10063.888888888889
-0.445,0.245,10066.666666666666
-0.45,0.255,10069.444444444445
-0.435,0.27,10072.222222222223
-0.415,0.275,10075.0
-0.41,0.28,10077.777777777777
-0.41,0.275,10080.555555555555
-0.41,0.295,10083.333333333334
-0.425,0.34,10086.111111111111
-0.415,0.4,10088.888888888889
-0.41,0.455,10091.666666666666
-0.43,0.475,10094.444444444445
-0.475,0.455,10097.222222222223
-0.53,0.435,10100.0
-0.545,0.405,10102.777777777777
-0.52,0.34,10105.555555555555
-0.44,0.26,10108.333333333334
-0.29,0.13,10111.111111111111
-0.015,0.01,10113.888888888889
0.375,-0.11,10116.666666666666
0.905,-0.195,10119.444444444445
1.42,-0.185,10122.222222222223
1.825,-0.115,10125.0
2.055,-0.02,10127.777777777777
2.11,0.07,10130.555555555555
1.945,0.135,10133.333333333334
1.5,0.19,10136.111111111111
0.86,0.2,10138.888888888889
0.22,0.195,10141.666666666666
-0.42,0.195,10144.444444444445
-0.705,0.205,10147.222222222223
-0.655,0.23,10150.0
-0.58,0.26,10152.777777777777
-0.555,0.27,10155.555555555555
-0.55,0.28,10158.333333333334
-0.565,0.28,10161.111111111111
-0.565,0.265,10163.888888888889
-0.545,0.26,10166.666666666666
-0.505,0.275,10169.444444444445
-0.46,0.28,10172.222222222223
-0.39,0.295,10175.0
-0.365,0.28,10177.777777777777
-0.355,0.265,10180.555555555555
-0.365,0.25,10183.333333333334
-0.37,0.275,10186.111111111111
-0.35,0.28,10188.888888888889
-0.35,0.28,10191.666666666666
-0.32,0.28,10194.444444444445
-0.325,0.26,10197.222222222223
-0.34,0.26,10200.0
-0.34,0.275,10202.777777777777
-0.34,0.28,10205.555555555555
-0.315,0.3,10208.333333333334
-0.315,0.275,10211.111111111111
-0.315,0.27,10213.888888888889
-0.32,0.26,10216.666666666666
-0.335,0.265,10219.444444444445
-0.32,0.29,10222.222222222223
-0.3,0.29,10225.0
-0.295,0.265,10227.777777777777
-0.305,0.26,10230.555555555555
-0.31,0.25,10233.333333333334
-0.32,0.26,10236.111111111111
-0.31,0.26,10238.888888888889
-0.285,0.28,10241.666666666666
-0.27,0.275,10244.444444444445
-0.285,0.26,10247.222222222223
-0.285,0.245,10250.0
-0.29,0.255,10252.777777777777
-0.295,0.27,10255.555555555555
-0.27,0.27,10258.333333333334
-0.27,0.265,10261.111111111111
-0.265,0.245,10263.888888888889
-0.28,0.24,10266.666666666666
-0.295,0.255,10269.444444444445
-0.265,0.27,10272.222222222223
-0.25,0.27,10275.0
-0.23,0.265,10277.777777777777
-0.245,0.235,10280.555555555555
-0.255,0.24,10283.333333333334
-0.25,0.24,10286.111111111111
-0.245,0.26,10288.888888888889
-0.235,0.26,10291.666666666666
-0.225,0.255,10294.444444444445
-0.225,0.23,10297.222222222223
-0.235,0.225,10300.0
-0.215,0.24,10302.777777777777
-0.205,0.245,10305.555555555555
-0.195,0.26,10308.333333333334
-0.195,0.25,10311.111111111111
-0.185,0.235,10313.888888888889
-0.195,0.225,10316.666666666666
-0.195,0.23,10319.444444444445
-0.175,0.24,10322.222222222223
-0.16,0.255,10325.0
-0.145,0.25,10327.777777777777
-0.15,0.23,10330.555555555555
-0.155,0.225,10333.333333333334
-0.155,0.225,10336.111111111111
-0.14,0.235,10338.888888888889
-0.105,0.235,10341.666666666666
-0.095,0.245,10344.444444444445
-0.095,0.235,10347.222222222223
-0.105,0.215,10350.0
-0.105,0.23,10352.777777777777
-0.08,0.225,10355.555555555555
-0.06,0.24,10358.333333333334
-0.045,0.24,10361.111111111111
-0.04,0.22,10363.888888888889
-0.03,0.215,10366.666666666666
-0.04,0.215,10369.444444444445
-0.01,0.225,10372.222222222223
0.02,0.23,10375.0
0.04,0.235,10377.777777777777
0.055,0.23,10380.555555555555
0.04,0.2,10383.333333333334
0.06,0.205,10386.111111111111
0.09,0.22,10388.888888888889
0.125,0.235,10391.666666666666
0.15,0.215,10394.444444444445
0.165,0.2,10397.222222222223
0.175,0.19,10400.0
0.195,0.205,10402.777777777777
0.22,0.21,10405.555555555555
0.25,0.22,10408.333333333334
0.285,0.2,10411.111111111111
0.315,0.19,10413.888888888889
0.325,0.175,10416.666666666666
0.34,0.18,10419.444444444445
0.395,0.19,10422.222222222223
0.44,0.195,10425.0
0.475,0.185,10427.777777777777
0.495,0.18,10430.555555555555
0.515,0.16,10433.333333333334
0.54,0.185,10436.111111111111
0.58,0.185,10438.888888888889
0.625,0.2,10441.666666666666
0.67,0.18,10444.444444444445
0.68,0.175,10447.222222222223
0.7,0.17,10450.0
0.72,0.155,10452.777777777777
0.73,0.175,10455.555555555555
0.765,0.19,10458.333333333334
0.81,0.18,10461.111111111111
0.79,0.16,10463.888888888889
0.8,0.155,10466.666666666666
0.78,0.16,10469.444444444445
0.79,0.18,10472.222222222223
0.78,0.2,10475.0
0.745,0.19,10477.777777777777
0.715,0.195,10480.555555555555
0.66,0.18,10483.333333333334
0.58,0.195,10486.111111111111
0.545,0.21,10488.888888888889
0.495,0.215,10491.666666666666
0.43,0.205,10494.444444444445
0.355,0.19,10497.222222222223
0.295,0.185,10500.0
0.22,0.195,10502.777777777777
0.165,0.21,10505.555555555555
0.11,0.22,10508.333333333334
0.06,0.22,10511.111111111111
-0.015,0.195,10513.888888888889
-0.085,0.19,10516.666666666666
-0.12,0.19,10519.444444444445
-0.15,0.21,10522.222222222223
-0.165,0.21,10525.0
-0.185,0.21,10527.777777777777
-0.23,0.195,10530.555555555555
-0.26,0.19,10533.333333333334
-0.285,0.195,10536.111111111111
-0.29,0.21,10538.888888888889
-0.295,0.215,10541.666666666666
-0.315,0.22,10544.444444444445
-0.33,0.2,10547.222222222223
-0.345,0.18,10550.0
-0.365,0.175,10552.777777777777
-0.35,0.19,10555.555555555555
-0.345,0.2,10558.333333333334
-0.35,0.195,10561.111111111111
-0.355,0.19,10563.888888888889
-0.37,0.175,10566.666666666666
-0.385,0.185,10569.444444444445
-0.39,0.195,10572.222222222223
-0.36,0.205,10575.0
-0.37,0.205,10577.777777777777
-0.37,0.185,10580.555555555555
-0.4,0.18,10583.333333333334
-0.39,0.195,10586.111111111111
-0.395,0.2,10588.888888888889
-0.385,0.215,10591.666666666666
-0.38,0.21,10594.444444444445
-0.38,0.2,10597.222222222223
-0.39,0.175,10600.0
-0.395,0.18,10602.777777777777
-0.385,0.205,10605.555555555555
-0.375,0.205,10608.333333333334
-0.365,0.21,10611.111111111111
-0.375,0.175,10613.888888888889
-0.385,0.185,10616.666666666666
-0.395,0.175,10619.444444444445
-0.38,0.2,10622.222222222223
-0.38,0.215,10625.0
-0.385,0.19,10627.777777777777
-0.37,0.18,10630.555555555555
-0.385,0.17,10633.333333333334
-0.38,0.185,10636.111111111111
-0.375,0.21,10638.888888888889
-0.365,0.21,10641.666666666666
-0.365,0.195,10644.444444444445
-0.365,0.18,10647.222222222223
-0.39,0.175,10650.0
-0.385,0.17,10652.777777777777
-0.37,0.18,10655.555555555555
-0.355,0.2,10658.333333333334
-0.35,0.2,10661.111111111111
-0.355,0.175,10663.888888888889
-0.375,0.17,10666.666666666666
-0.38,0.175,10669.444444444445
-0.375,0.185,10672.222222222223
-0.365,0.2,10675.0
-0.36,0.19,10677.777777777777
-0.36,0.18,10680.555555555555
-0.37,0.18,10683.333333333334
-0.375,0.185,10686.111111111111
-0.365,0.19,10688.888888888889
-0.36,0.195,10691.666666666666
-0.355,0.18,10694.444444444445
-0.365,0.16,10697.222222222223
-0.38,0.16,10700.0
-0.385,0.17,10702.777777777777
-0.375,0.175,10705.555555555555
-0.355,0.18,10708.333333333334
-0.36,0.185,10711.111111111111
-0.37,0.175,10713.888888888889
-0.38,0.165,10716.666666666666
-0.38,0.165,10719.444444444445
-0.37,0.175,10722.222222222223
-0.36,0.175,10725.0
-0.365,0.175,10727.777777777777
-0.37,0.155,10730.555555555555
-0.4,0.155,10733.333333333334
-0.405,0.16,10736.111111111111
-0.4,0.17,10738.888888888889
-0.38,0.185,10741.666666666666
-0.37,0.18,10744.444444444445
-0.375,0.16,10747.222222222223
-0.39,0.155,10750.0
-0.385,0.14,10752.777777777777
-0.385,0.165,10755.555555555555
-0.36,0.175,10758.333333333334
-0.37,0.18,10761.111111111111
-0.38,0.16,10763.888888888889
-0.395,0.145,10766.666666666666
-0.38,0.155,10769.444444444445
-0.365,0.175,10772.222222222223
-0.355,0.175,10775.0
-0.36,0.17,10777.777777777777
-0.365,0.16,10780.555555555555
-0.375,0.155,10783.333333333334
-0.385,0.155,10786.111111111111
-0.37,0.165,10788.888888888889
-0.365,0.175,10791.666666666666
-0.355,0.16,10794.444444444445
-0.37,0.14,10797.222222222223
-0.38,0.14,10800.0
-0.39,0.15,10802.777777777777
-0.38,0.165,10805.555555555555
-0.375,0.17,10808.333333333334
-0.355,0.17,10811.111111111111
-0.38,0.155,10813.888888888889
-0.39,0.14,10816.666666666666
-0.385,0.15,10819.444444444445
-0.375,0.15,10822.222222222223
-0.355,0.17,10825.0
-0.365,0.155,10827.777777777777
-0.365,0.145,10830.555555555555
-0.38,0.125,10833.333333333334
-0.37,0.135,10836.111111111111
-0.37,0.15,10838.888888888889
-0.355,0.165,10841.666666666666
-0.365,0.16,10844.444444444445
-0.35,0.14,10847.222222222223
-0.365,0.13,10850.0
-0.38,0.14,10852.777777777777
-0.36,0.145,10855.555555555555
-0.35,0.145,10858.333333333334
-0.34,0.15,10861.111111111111
-0.355,0.13,10863.888888888889
-0.36,0.12,10866.666666666666
-0.36,0.125,10869.444444444445
-0.345,0.15,10872.222222222223
-0.345,0.15,10875.0
-0.335,0.14,10877.777777777777
-0.34,0.13,10880.555555555555
-0.355,0.13,10883.333333333334
-0.37,0.125,10886.111111111111
-0.355,0.135,10888.888888888889
-0.33,0.14,10891.666666666666
-0.33,0.13,10894.444444444445
-0.355,0.115,10897.222222222223
-0.36,0.125,10900.0
-0.35,0.13,10902.777777777777
-0.335,0.145,10905.555555555555
-0.325,0.145,10908.333333333334
-0.325,0.13,10911.111111111111
-0.33,0.13,10913.888888888889
-0.34,0.115,10916.666666666666
-0.355,0.125,10919.444444444445
-0.33,0.13,10922.222222222223
-0.325,0.14,10925.0
-0.325,0.145,10927.777777777777
-0.32,0.12,10930.555555555555
-0.35,0.115,10933.333333333334
-0.335,0.12,10936.111111111111
-0.325,0.135,10938.888888888889
-0.315,0.14,10941.666666666666
-0.305,0.135,10944.444444444445
-0.315,0.115,10947.222222222223
-0.32,0.115,10950.0
-0.35,0.12,10952.777777777777
-0.33,0.13,10955.555555555555
-0.305,0.135,10958.333333333334
-0.305,0.13,10961.111111111111
-0.32,0.125,10963.888888888889
-0.33,0.115,10966.666666666666
-0.315,0.12,10969.444444444445
-0.305,0.13,10972.222222222223
-0.285,0.14,10975.0
-0.285,0.16,10977.777777777777
-0.285,0.155,10980.555555555555
-0.29,0.16,10983.333333333334
-0.285,0.16,10986.111111111111
-0.28,0.17,10988.888888888889
-0.26,0.175,10991.666666666666
-0.245,0.16,10994.444444444445
-0.24,0.135,10997.222222222223
-0.25,0.11,11000.0
-0.255,0.115,11002.777777777777
-0.25,0.125,11005.555555555555
-0.225,0.125,11008.333333333334
-0.215,0.115,11011.111111111111
-0.215,0.085,11013.888888888889
-0.21,0.06,11016.666666666666
-0.22,0.07,11019.444444444445
-0.225,0.105,11022.222222222223
-0.215,0.12,11025.0
-0.21,0.12,11027.777777777777
-0.22,0.115,11030.555555555555
-0.24,0.09,11033.333333333334
-0.24,0.11,11036.111111111111
-0.25,0.12,11038.888888888889
-0.23,0.135,11041.666666666666
-0.245,0.135,11044.444444444445
-0.255,0.115,11047.222222222223
-0.28,0.095,11050.0
-0.29,0.095,11052.777777777777
-0.29,0.105,11055.555555555555
-0.27,0.115,11058.333333333334
-0.27,0.115,11061.111111111111
-0.265,0.1,11063.888888888889
-0.285,0.1,11066.666666666666
-0.275,0.1,11069.444444444445
-0.265,0.1,11072.222222222223
-0.26,0.135,11075.0
-0.25,0.12,11077.777777777777
-0.26,0.12,11080.555555555555
-0.27,0.105,11083.333333333334
-0.29,0.095,11086.111111111111
-0.265,0.11,11088.888888888889
-0.245,0.115,11091.666666666666
-0.24,0.135,11094.444444444445
-0.25,0.115,11097.222222222223
-0.27,0.105,11100.0
-0.25,0.12,11102.777777777777
-0.235,0.13,11105.555555555555
-0.22,0.17,11108.333333333334
-0.215,0.215,11111.111111111111
-0.22,0.22,11113.888888888889
-0.255,0.25,11116.666666666666
-0.28,0.29,11119.444444444445
-0.31,0.315,11122.222222222223
-0.315,0.31,11125.0
-0.335,0.29,11127.777777777777
-0.35,0.235,11130.555555555555
-0.335,0.155,11133.333333333334
-0.26,0.06,11136.111111111111
-0.07,-0.025,11138.888888888889
0.24,-0.12,11141.666666666666
0.68,-0.21,11144.444444444445
1.145,-0.27,11147.222222222223
1.565,-0.265,11150.0
1.875,-0.22,11152.777777777777
2.075,-0.115,11155.555555555555
2.125,-0.025,11158.333333333334
1.935,0.05,11161.111111111111
1.425,0.065,11163.888888888889
0.785,0.05,11166.666666666666
0.145,0.07,11169.444444444445
-0.495,0.08,11172.222222222223
-0.535,0.1,11175.0
-0.425,0.11,11177.777777777777
-0.36,0.125,11180.555555555555
-0.385,0.105,11183.333333333334
-0.425,0.12,11186.111111111111
-0.405,0.115,11188.888888888889
-0.375,0.125,11191.666666666666
-0.37,0.135,11194.444444444445
-0.345,0.115,11197.222222222223
-0.33,0.12,11200.0
-0.29,0.14,11202.777777777777
-0.225,0.14,11205.555555555555
-0.195,0.14,11208.333333333334
-0.16,0.13,11211.111111111111
-0.18,0.12,11213.888888888889
-0.19,0.115,11216.666666666666
-0.19,0.13,11219.444444444445
-0.19,0.145,11222.222222222223
-0.165,0.14,11225.0
-0.15,0.135,11227.777777777777
-0.17,0.125,11230.555555555555
-0.175,0.1,11233.333333333334
-0.165,0.105,11236.111111111111
-0.155,0.125,11238.888888888889
-0.135,0.12,11241.666666666666
-0.13,0.125,11244.444444444445
-0.13,0.12,11247.222222222223
-0.15,0.12,11250.0
-0.155,0.115,11252.777777777777
-0.13,0.115,11255.555555555555
-0.115,0.13,11258.333333333334
-0.115,0.12,11261.111111111111
-0.13,0.11,11263.888888888889
-0.125,0.115,11266.666666666666
-0.145,0.105,11269.444444444445
-0.135,0.12,11272.222222222223
-0.11,0.13,11275.0
-0.115,0.125,11277.777777777777
-0.105,0.115,11280.555555555555
-0.12,0.1,11283.333333333334
-0.125,0.11,11286.111111111111
-0.11,0.125,11288.888888888889
-0.085,0.13,11291.666666666666
-0.085,0.12,11294.444444444445
-0.08,0.115,11297.222222222223
-0.11,0.11,11300.0
-0.1,0.1,11302.777777777777
-0.09,0.125,11305.555555555555
-0.075,0.12,11308.333333333334
-0.075,0.115,11311.111111111111
-0.08,0.105,11313.888888888889
-0.09,0.095,11316.666666666666
-0.085,0.095,11319.444444444445
-0.06,0.125,11322.222222222223
-0.055,0.125,11325.0
-0.04,0.125,11327.777777777777
-0.045,0.11,11330.555555555555
-0.055,0.105,11333.333333333334
-0.055,0.09,11336.111111111111
-0.04,0.11,11338.888888888889
-0.02,0.125,11341.666666666666
-0.025,0.12,11344.444444444445
-0.015,0.095,11347.222222222223
-0.02,0.09,11350.0
-0.03,0.095,11352.777777777777
-0.015,0.11,11355.555555555555
-0.005,0.12,11358.333333333334
0.015,0.105,11361.111111111111
0.015,0.095,11363.888888888889
0.015,0.09,11366.666666666666
0.015,0.095,11369.444444444445
0.015,0.11,11372.222222222223
0.055,0.125,11375.0
0.07,0.11,11377.777777777777
0.065,0.095,11380.555555555555
0.065,0.085,11383.333333333334
0.065,0.105,11386.111111111111
0.09,0.105,11388.888888888889
0.105,0.115,11391.666666666666
0.14,0.115,11394.444444444445
0.12,0.09,11397.222222222223
0.135,0.08,11400.0
0.12,0.09,11402.777777777777
0.155,0.095,11405.555555555555
0.165,0.115,11408.333333333334
0.19,0.1,11411.111111111111
0.2,0.095,11413.888888888889
0.195,0.08,11416.666666666666
0.2,0.08,11419.444444444445
0.25,0.1,11422.222222222223
0.265,0.105,11425.0
0.295,0.095,11427.777777777777
0.3,0.085,11430.555555555555
0.325,0.07,11433.333333333334
0.345,0.08,11436.111111111111
0.385,0.09,11438.888888888889
0.415,0.085,11441.666666666666
0.44,0.085,11444.444444444445
0.48,0.075,11447.222222222223
0.485,0.07,11450.0
0.5,0.065,11452.777777777777
0.54,0.075,11455.555555555555
0.58,0.08,11458.333333333334
0.615,0.075,11461.111111111111
0.64,0.06,11463.888888888889
