V5,MLII,time_ms
-0.045,0.015,0.0
-0.045,0.015,2.7777777777777777
-0.045,0.015,5.555555555555555
-0.045,0.015,8.333333333333334
-0.045,0.015,11.11111111111111
-0.045,0.015,13.88888888888889
-0.045,0.015,16.666666666666668
-0.045,0.015,19.444444444444443
-0.045,0.015,22.22222222222222
-0.045,0.04,25.0
-0.01,0.065,27.77777777777778
0.0,0.07,30.555555555555557
-0.015,0.075,33.333333333333336
-0.025,0.08,36.111111111111114
-0.01,0.105,38.888888888888886
0.0,0.135,41.666666666666664
0.02,0.16,44.44444444444444
0.02,0.16,47.22222222222222
0.01,0.165,50.0
-0.005,0.17,52.77777777777778
0.0,0.205,55.55555555555556
-0.005,0.21,58.333333333333336
0.0,0.225,61.111111111111114
0.005,0.22,63.888888888888886
-0.01,0.21,66.66666666666667
-0.04,0.185,69.44444444444444
-0.045,0.19,72.22222222222223
-0.055,0.195,75.0
-0.045,0.195,77.77777777777777
-0.065,0.18,80.55555555555556
-0.075,0.145,83.33333333333333
-0.1,0.125,86.11111111111111
-0.11,0.115,88.88888888888889
-0.125,0.13,91.66666666666667
-0.105,0.125,94.44444444444444
-0.13,0.1,97.22222222222223
-0.145,0.075,100.0
-0.155,0.055,102.77777777777777
-0.175,0.06,105.55555555555556
-0.165,0.06,108.33333333333333
-0.165,0.06,111.11111111111111
-0.175,0.05,113.88888888888889
-0.18,0.02,116.66666666666667
-0.2,0.025,119.44444444444444
-0.225,0.02,122.22222222222223
-0.21,0.025,125.0
-0.205,0.04,127.77777777777777
-0.225,0.02,130.55555555555554
-0.22,0.015,133.33333333333334
-0.235,-0.005,136.11111111111111
-0.235,0.0,138.88888888888889
-0.225,0.015,141.66666666666666
-0.23,0.025,144.44444444444446
-0.215,0.02,147.22222222222223
-0.215,0.015,150.0
-0.255,-0.005,152.77777777777777
-0.245,0.0,155.55555555555554
-0.24,0.005,158.33333333333334
-0.24,0.015,161.11111111111111
-0.235,0.005,163.88888888888889
-0.245,0.0,166.66666666666666
-0.26,-0.005,169.44444444444446
-0.245,0.0,172.22222222222223
-0.245,0.01,175.0
-0.23,0.02,177.77777777777777
-0.23,-0.01,180.55555555555554
-0.23,-0.02,183.33333333333334
-0.245,-0.02,186.11111111111111
-0.25,-0.03,188.88888888888889
-0.235,0.0,191.66666666666666
-0.23,0.01,194.44444444444446
-0.235,-0.01,197.22222222222223
-0.235,-0.02,200.0
-0.26,-0.035,202.77777777777777
-0.27,-0.025,205.55555555555554
-0.255,-0.025,208.33333333333334
-0.23,-0.005,211.11111111111111
-0.235,-0.01,213.88888888888889
-0.23,-0.025,216.66666666666666
-0.255,-0.04,219.44444444444446
-0.255,-0.03,222.22222222222223
-0.255,-0.015,225.0
-0.24,-0.025,227.77777777777777
-0.235,-0.02,230.55555555555554
-0.25,-0.04,233.33333333333334
-0.26,-0.04,236.11111111111111
-0.26,-0.035,238.88888888888889
-0.26,-0.025,241.66666666666666
-0.24,-0.015,244.44444444444446
-0.225,-0.03,247.22222222222223
-0.235,-0.04,250.0
-0.255,-0.045,252.77777777777777
-0.255,-0.025,255.55555555555554
-0.245,-0.02,258.3333333333333
-0.225,-0.005,261.1111111111111
-0.235,-0.01,263.8888888888889
-0.235,-0.025,266.6666666666667
-0.25,-0.035,269.44444444444446
-0.26,-0.02,272.22222222222223
-0.24,-0.005,275.0
-0.215,-0.005,277.77777777777777
-0.22,-0.01,280.55555555555554
-0.235,-0.015,283.3333333333333
-0.245,-0.02,286.1111111111111
-0.235,-0.015,288.8888888888889
-0.235,0.0,291.6666666666667
-0.23,0.005,294.44444444444446
-0.225,-0.005,297.22222222222223
-0.23,-0.015,300.0
-0.245,-0.015,302.77777777777777
-0.255,-0.015,305.55555555555554
-0.25,0.01,308.3333333333333
-0.225,0.005,311.1111111111111
-0.23,0.0,313.8888888888889
-0.245,-0.025,316.6666666666667
-0.265,-0.02,319.44444444444446
-0.255,-0.015,322.22222222222223
-0.25,0.0,325.0
-0.245,0.005,327.77777777777777
-0.23,0.0,330.55555555555554
-0.24,-0.015,333.3333333333333
-0.27,-0.02,336.1111111111111
-0.27,-0.03,338.8888888888889
-0.25,0.0,341.6666666666667
-0.24,0.01,344.44444444444446
-0.245,0.0,347.22222222222223
-0.255,-0.015,350.0
-0.275,-0.02,352.77777777777777
-0.27,-0.025,355.55555555555554
-0.285,-0.01,358.3333333333333
-0.265,0.005,361.1111111111111
-0.255,0.0,363.8888888888889
-0.27,-0.015,366.6666666666667
-0.285,-0.02,369.44444444444446
-0.285,-0.02,372.22222222222223
-0.275,-0.005,375.0
-0.265,-0.005,377.77777777777777
-0.28,-0.015,380.55555555555554
-0.27,-0.025,383.3333333333333
-0.285,-0.035,386.1111111111111
-0.29,-0.015,388.8888888888889
-0.285,-0.015,391.6666666666667
-0.265,-0.01,394.44444444444446
-0.27,-0.015,397.22222222222223
-0.27,-0.02,400.0
-0.285,-0.03,402.77777777777777
-0.285,-0.04,405.55555555555554
-0.275,-0.03,408.3333333333333
-0.265,-0.02,411.1111111111111
-0.27,-0.02,413.8888888888889
-0.29,-0.03,416.6666666666667
-0.285,-0.04,419.44444444444446
-0.3,-0.03,422.22222222222223
-0.285,-0.025,425.0
-0.275,-0.02,427.77777777777777
-0.265,-0.03,430.55555555555554
-0.275,-0.035,433.3333333333333
-0.295,-0.035,436.1111111111111
-0.29,-0.035,438.8888888888889
-0.275,-0.03,441.6666666666667
-0.27,-0.015,444.44444444444446
-0.27,-0.025,447.22222222222223
-0.285,-0.04,450.0
-0.295,-0.055,452.77777777777777
-0.295,-0.03,455.55555555555554
-0.285,-0.03,458.3333333333333
-0.285,-0.015,461.1111111111111
-0.28,-0.03,463.8888888888889
-0.285,-0.045,466.6666666666667
-0.295,-0.045,469.44444444444446
-0.31,-0.04,472.22222222222223
-0.29,-0.04,475.0
-0.275,-0.015,477.77777777777777
-0.265,-0.03,480.55555555555554
-0.285,-0.04,483.3333333333333
-0.3,-0.045,486.1111111111111
-0.29,-0.03,488.8888888888889
-0.29,-0.02,491.6666666666667
-0.28,-0.015,494.44444444444446
-0.275,-0.03,497.22222222222223
-0.285,-0.045,500.0
-0.295,-0.045,502.77777777777777
-0.285,-0.03,505.55555555555554
-0.285,-0.035,508.3333333333333
-0.285,-0.025,511.1111111111111
-0.285,-0.035,513.8888888888889
-0.285,-0.03,516.6666666666666
-0.29,-0.055,519.4444444444445
-0.295,-0.04,522.2222222222222
-0.295,-0.025,525.0
-0.27,-0.015,527.7777777777778
-0.265,-0.015,530.5555555555555
-0.275,-0.03,533.3333333333334
-0.285,-0.045,536.1111111111111
-0.295,-0.04,538.8888888888889
-0.28,-0.03,541.6666666666666
-0.27,-0.025,544.4444444444445
-0.265,-0.03,547.2222222222222
-0.27,-0.035,550.0
-0.285,-0.05,552.7777777777778
-0.285,-0.055,555.5555555555555
-0.27,-0.04,558.3333333333334
-0.26,-0.02,561.1111111111111
-0.265,-0.025,563.8888888888889
-0.265,-0.04,566.6666666666666
-0.305,-0.05,569.4444444444445
-0.295,-0.03,572.2222222222222
-0.27,-0.02,575.0
-0.27,-0.015,577.7777777777778
-0.265,-0.015,580.5555555555555
-0.275,-0.05,583.3333333333334
-0.29,-0.05,586.1111111111111
-0.295,-0.025,588.8888888888889
-0.28,-0.015,591.6666666666666
-0.265,-0.01,594.4444444444445
-0.26,-0.02,597.2222222222222
-0.265,-0.03,600.0
-0.295,-0.03,602.7777777777778
-0.29,-0.03,605.5555555555555
-0.285,-0.02,608.3333333333334
-0.28,0.0,611.1111111111111
-0.245,-0.01,613.8888888888889
-0.27,-0.025,616.6666666666666
-0.265,-0.04,619.4444444444445
-0.27,-0.015,622.2222222222222
-0.255,-0.01,625.0
-0.24,0.005,627.7777777777778
-0.225,0.01,630.5555555555555
-0.235,0.005,633.3333333333334
-0.245,0.0,636.1111111111111
-0.24,0.01,638.8888888888889
-0.225,0.035,641.6666666666666
-0.195,0.035,644.4444444444445
-0.195,0.02,647.2222222222222
-0.195,0.025,650.0
-0.205,0.01,652.7777777777778
-0.205,0.035,655.5555555555555
-0.2,0.045,658.3333333333334
-0.18,0.055,661.1111111111111
-0.2,0.05,663.8888888888889
-0.22,0.025,666.6666666666666
-0.23,0.02,669.4444444444445
-0.23,0.02,672.2222222222222
-0.23,0.015,675.0
-0.235,0.025,677.7777777777778
-0.24,0.015,680.5555555555555
-0.245,0.005,683.3333333333334
-0.255,-0.005,686.1111111111111
-0.26,0.015,688.8888888888889
-0.245,0.03,691.6666666666666
-0.23,0.03,694.4444444444445
-0.24,0.035,697.2222222222222
-0.245,0.03,700.0
-0.265,0.025,702.7777777777778
-0.24,0.035,705.5555555555555
-0.225,0.055,708.3333333333334
-0.225,0.06,711.1111111111111
-0.22,0.03,713.8888888888889
-0.225,0.005,716.6666666666666
-0.26,-0.005,719.4444444444445
-0.265,-0.005,722.2222222222222
-0.28,0.005,725.0
-0.275,0.02,727.7777777777778
-0.285,0.005,730.5555555555555
-0.3,-0.005,733.3333333333334
-0.29,-0.005,736.1111111111111
-0.29,-0.015,738.8888888888889
-0.28,-0.005,741.6666666666666
-0.26,0.005,744.4444444444445
-0.26,-0.005,747.2222222222222
-0.3,-0.02,750.0
-0.295,-0.02,752.7777777777778
-0.305,-0.015,755.5555555555555
-0.295,-0.005,758.3333333333334
-0.285,0.0,761.1111111111111
-0.275,-0.015,763.8888888888889
-0.295,-0.025,766.6666666666666
-0.31,-0.03,769.4444444444445
-0.305,-0.015,772.2222222222222
-0.285,-0.005,775.0
-0.275,0.005,777.7777777777778
-0.285,-0.005,780.5555555555555
-0.29,-0.025,783.3333333333334
-0.29,-0.03,786.1111111111111
-0.315,-0.015,788.8888888888889
-0.29,-0.01,791.6666666666666
-0.28,0.005,794.4444444444445
-0.27,0.0,797.2222222222222
-0.29,-0.005,800.0
-0.295,-0.02,802.7777777777778
-0.3,-0.005,805.5555555555555
-0.295,0.015,808.3333333333334
-0.28,0.025,811.1111111111111
-0.28,0.025,813.8888888888889
-0.275,0.02,816.6666666666666
-0.295,0.03,819.4444444444445
-0.29,0.065,822.2222222222222
-0.255,0.11,825.0
-0.24,0.14,827.7777777777778
-0.215,0.19,830.5555555555555
-0.195,0.235,833.3333333333334
-0.175,0.285,836.1111111111111
-0.165,0.355,838.8888888888889
-0.175,0.485,841.6666666666666
-0.235,0.635,844.4444444444445
-0.305,0.8,847.2222222222222
-0.35,0.965,850.0
-0.405,1.125,852.7777777777778
-0.485,1.325,855.5555555555555
-0.54,1.535,858.3333333333334
-0.545,1.76,861.1111111111111
-0.47,1.98,863.8888888888889
-0.34,2.05,866.6666666666666
-0.18,1.88,869.4444444444445
-0.06,1.4,872.2222222222222
-0.045,0.77,875.0
-0.215,0.28,877.7777777777778
-0.515,0.01,880.5555555555555
-0.725,-0.07,883.3333333333334
-0.77,-0.055,886.1111111111111
-0.69,-0.025,888.8888888888889
-0.53,-0.005,891.6666666666666
-0.385,0.0,894.4444444444445
-0.305,-0.005,897.2222222222222
-0.29,-0.04,900.0
-0.285,-0.065,902.7777777777778
-0.275,-0.075,905.5555555555555
-0.27,-0.06,908.3333333333334
-0.245,-0.07,911.1111111111111
-0.25,-0.07,913.8888888888889
-0.25,-0.09,916.6666666666666
-0.245,-0.11,919.4444444444445
-0.235,-0.095,922.2222222222222
-0.225,-0.09,925.0
-0.2,-0.075,927.7777777777778
-0.21,-0.08,930.5555555555555
-0.2,-0.095,933.3333333333334
-0.22,-0.105,936.1111111111111
-0.215,-0.08,938.8888888888889
-0.21,-0.09,941.6666666666666
-0.19,-0.085,944.4444444444445
-0.19,-0.09,947.2222222222222
-0.19,-0.105,950.0
-0.205,-0.105,952.7777777777778
-0.205,-0.105,955.5555555555555
-0.2,-0.09,958.3333333333334
-0.175,-0.085,961.1111111111111
-0.175,-0.1,963.8888888888889
-0.185,-0.125,966.6666666666666
-0.205,-0.135,969.4444444444445
-0.2,-0.115,972.2222222222222
-0.19,-0.11,975.0
-0.165,-0.095,977.7777777777778
-0.17,-0.12,980.5555555555555
-0.18,-0.145,983.3333333333334
-0.195,-0.125,986.1111111111111
-0.195,-0.12,988.8888888888889
-0.18,-0.125,991.6666666666666
-0.18,-0.105,994.4444444444445
-0.17,-0.115,997.2222222222222
-0.175,-0.135,1000.0
-0.185,-0.145,1002.7777777777778
-0.18,-0.125,1005.5555555555555
-0.17,-0.125,1008.3333333333334
-0.16,-0.115,1011.1111111111111
-0.16,-0.115,1013.8888888888889
-0.185,-0.13,1016.6666666666666
-0.17,-0.13,1019.4444444444445
-0.18,-0.12,1022.2222222222222
-0.165,-0.125,1025.0
-0.14,-0.11,1027.7777777777778
-0.13,-0.115,1030.5555555555557
-0.125,-0.125,1033.3333333333333
-0.14,-0.125,1036.111111111111
-0.145,-0.105,1038.888888888889
-0.135,-0.105,1041.6666666666667
-0.13,-0.095,1044.4444444444443
-0.115,-0.105,1047.2222222222222
-0.125,-0.125,1050.0
-0.12,-0.115,1052.7777777777778
-0.12,-0.11,1055.5555555555557
-0.12,-0.095,1058.3333333333333
-0.11,-0.085,1061.111111111111
-0.095,-0.085,1063.888888888889
-0.1,-0.105,1066.6666666666667
-0.105,-0.1,1069.4444444444443
-0.11,-0.095,1072.2222222222222
-0.1,-0.06,1075.0
-0.075,-0.06,1077.7777777777778
-0.075,-0.055,1080.5555555555557
-0.085,-0.06,1083.3333333333333
-0.07,-0.07,1086.111111111111
-0.08,-0.04,1088.888888888889
-0.06,-0.025,1091.6666666666667
-0.04,-0.005,1094.4444444444443
-0.03,0.0,1097.2222222222222
-0.035,-0.005,1100.0
-0.04,0.005,1102.7777777777778
-0.03,0.03,1105.5555555555557
-0.01,0.055,1108.3333333333333
-0.005,0.095,1111.111111111111
0.005,0.09,1113.888888888889
0.005,0.095,1116.6666666666667
-0.005,0.1,1119.4444444444443
-0.005,0.13,1122.2222222222222
0.01,0.16,1125.0
0.025,0.19,1127.7777777777778
0.025,0.19,1130.5555555555557
0.0,0.18,1133.3333333333333
-0.01,0.185,1136.111111111111
-0.01,0.205,1138.888888888889
-0.02,0.23,1141.6666666666667
0.01,0.24,1144.4444444444443
0.01,0.235,1147.2222222222222
-0.01,0.22,1150.0
-0.03,0.215,1152.7777777777778
-0.035,0.215,1155.5555555555557
-0.04,0.215,1158.3333333333333
-0.035,0.225,1161.111111111111
-0.055,0.21,1163.888888888889
-0.065,0.18,1166.6666666666667
-0.08,0.155,1169.4444444444443
-0.1,0.16,1172.2222222222222
-0.095,0.16,1175.0
-0.095,0.155,1177.7777777777778
-0.115,0.135,1180.5555555555557
-0.13,0.11,1183.3333333333333
-0.15,0.095,1186.111111111111
-0.165,0.09,1188.888888888889
-0.165,0.1,1191.6666666666667
-0.165,0.09,1194.4444444444443
-0.18,0.075,1197.2222222222222
-0.18,0.065,1200.0
-0.21,0.04,1202.7777777777778
-0.2,0.055,1205.5555555555557
-0.2,0.06,1208.3333333333333
-0.19,0.07,1211.111111111111
-0.195,0.05,1213.888888888889
-0.215,0.035,1216.6666666666667
-0.22,0.025,1219.4444444444443
-0.22,0.04,1222.2222222222222
-0.215,0.045,1225.0
-0.21,0.045,1227.7777777777778
-0.215,0.035,1230.5555555555557
-0.225,0.02,1233.3333333333333
-0.23,0.015,1236.111111111111
-0.25,0.015,1238.888888888889
-0.235,0.03,1241.6666666666667
-0.22,0.05,1244.4444444444443
-0.225,0.03,1247.2222222222222
-0.235,0.02,1250.0
-0.245,0.01,1252.7777777777778
-0.245,0.025,1255.5555555555557
-0.24,0.035,1258.3333333333333
-0.225,0.025,1261.111111111111
-0.22,0.015,1263.888888888889
-0.245,0.015,1266.6666666666667
-0.265,0.0,1269.4444444444443
-0.245,0.015,1272.2222222222222
-0.245,0.015,1275.0
-0.235,0.02,1277.7777777777778
-0.235,0.01,1280.5555555555557
-0.24,-0.005,1283.3333333333333
-0.265,-0.005,1286.111111111111
-0.265,-0.005,1288.888888888889
-0.255,0.01,1291.6666666666667
-0.235,0.03,1294.4444444444443
-0.225,0.005,1297.2222222222222
-0.245,-0.01,1300.0
-0.26,-0.005,1302.7777777777778
-0.26,-0.015,1305.5555555555557
-0.255,0.0,1308.3333333333333
-0.24,0.005,1311.111111111111
-0.245,0.0,1313.888888888889
-0.25,-0.02,1316.6666666666667
-0.265,-0.02,1319.4444444444443
-0.255,-0.01,1322.2222222222222
-0.255,0.015,1325.0
-0.245,0.015,1327.7777777777778
-0.235,-0.005,1330.5555555555557
-0.25,-0.005,1333.3333333333333
-0.265,-0.01,1336.111111111111
-0.26,-0.01,1338.888888888889
-0.25,0.01,1341.6666666666667
-0.235,0.02,1344.4444444444443
-0.23,0.01,1347.2222222222222
-0.24,0.0,1350.0
-0.255,-0.01,1352.7777777777778
-0.25,0.0,1355.5555555555557
-0.24,0.015,1358.3333333333333
-0.22,0.015,1361.111111111111
-0.22,0.005,1363.888888888889
-0.24,0.0,1366.6666666666667
-0.24,0.0,1369.4444444444443
-0.24,0.015,1372.2222222222222
-0.24,0.025,1375.0
-0.225,0.02,1377.7777777777778
-0.225,0.01,1380.5555555555557
-0.235,-0.005,1383.3333333333333
-0.235,0.0,1386.111111111111
-0.245,0.01,1388.888888888889
-0.23,0.03,1391.6666666666667
-0.22,0.03,1394.4444444444443
-0.215,0.02,1397.2222222222222
-0.23,0.015,1400.0
-0.24,0.01,1402.7777777777778
-0.255,0.01,1405.5555555555557
-0.245,0.035,1408.3333333333333
-0.22,0.035,1411.111111111111
-0.23,0.03,1413.888888888889
-0.24,0.02,1416.6666666666667
-0.255,0.005,1419.4444444444443
-0.26,0.015,1422.2222222222222
-0.245,0.025,1425.0
-0.24,0.03,1427.7777777777778
-0.235,0.02,1430.5555555555557
-0.255,0.005,1433.3333333333333
-0.265,-0.005,1436.111111111111
-0.27,0.005,1438.888888888889
-0.25,0.01,1441.6666666666667
-0.235,0.02,1444.4444444444443
-0.24,0.015,1447.2222222222222
-0.25,0.0,1450.0
-0.26,-0.01,1452.7777777777778
-0.26,-0.005,1455.5555555555557
-0.25,0.01,1458.3333333333333
-0.24,0.03,1461.111111111111
-0.24,0.0,1463.888888888889
-0.255,0.005,1466.6666666666667
-0.265,-0.015,1469.4444444444443
-0.27,-0.005,1472.2222222222222
-0.265,0.015,1475.0
-0.25,0.03,1477.7777777777778
-0.255,0.01,1480.5555555555557
-0.28,-0.005,1483.3333333333333
-0.29,-0.02,1486.111111111111
-0.28,-0.005,1488.888888888889
-0.28,0.0,1491.6666666666667
-0.26,0.015,1494.4444444444443
-0.265,0.005,1497.2222222222222
-0.275,-0.01,1500.0
-0.285,-0.015,1502.7777777777778
-0.285,-0.01,1505.5555555555557
-0.265,0.0,1508.3333333333333
-0.25,0.015,1511.111111111111
-0.255,-0.005,1513.888888888889
-0.27,-0.02,1516.6666666666667
-0.28,-0.03,1519.4444444444443
-0.28,-0.005,1522.2222222222222
-0.265,0.0,1525.0
-0.245,-0.005,1527.7777777777778
-0.26,0.0,1530.5555555555557
-0.265,-0.005,1533.3333333333333
-0.27,-0.015,1536.111111111111
-0.27,-0.01,1538.888888888889
-0.26,-0.01,1541.6666666666667
-0.255,0.005,1544.4444444444443
-0.25,-0.005,1547.2222222222222
-0.27,-0.01,1550.0
-0.27,-0.01,1552.7777777777778
-0.28,-0.005,1555.5555555555557
-0.27,-0.005,1558.3333333333333
-0.265,-0.005,1561.111111111111
-0.26,-0.01,1563.888888888889
-0.285,-0.025,1566.6666666666667
-0.285,-0.02,1569.4444444444443
-0.285,-0.02,1572.2222222222222
-0.285,-0.01,1575.0
-0.26,-0.005,1577.7777777777778
-0.275,-0.005,1580.5555555555557
-0.275,-0.02,1583.3333333333333
-0.28,-0.03,1586.111111111111
-0.275,-0.015,1588.888888888889
-0.275,-0.01,1591.6666666666667
-0.265,0.005,1594.4444444444443
-0.25,0.0,1597.2222222222222
-0.27,-0.02,1600.0
-0.275,-0.01,1602.7777777777778
-0.29,-0.02,1605.5555555555557
-0.27,0.0,1608.3333333333333
-0.265,0.0,1611.111111111111
-0.265,-0.005,1613.888888888889
-0.27,-0.02,1616.6666666666667
-0.295,-0.03,1619.4444444444443
-0.295,-0.015,1622.2222222222222
-0.285,0.0,1625.0
-0.265,0.0,1627.7777777777778
-0.26,-0.005,1630.5555555555557
-0.27,-0.01,1633.3333333333333
-0.285,-0.025,1636.111111111111
-0.31,-0.025,1638.888888888889
-0.29,-0.015,1641.6666666666667
-0.27,-0.005,1644.4444444444443
-0.27,-0.005,1647.2222222222222
-0.28,-0.025,1650.0
-0.295,-0.03,1652.7777777777778
-0.295,-0.01,1655.5555555555557
-0.285,0.005,1658.3333333333333
-0.275,-0.005,1661.111111111111
-0.27,-0.01,1663.888888888889
-0.28,-0.025,1666.6666666666667
-0.285,-0.035,1669.4444444444443
-0.3,-0.01,1672.2222222222222
-0.27,0.0,1675.0
-0.275,0.0,1677.7777777777778
-0.28,-0.005,1680.5555555555557
-0.275,-0.025,1683.3333333333333
-0.28,-0.03,1686.111111111111
-0.285,-0.025,1688.888888888889
-0.27,-0.01,1691.6666666666667
-0.255,0.0,1694.4444444444443
-0.255,-0.005,1697.2222222222222
-0.265,-0.02,1700.0
-0.27,-0.02,1702.7777777777778
-0.29,-0.02,1705.5555555555557
-0.26,0.0,1708.3333333333333
-0.245,0.0,1711.111111111111
-0.255,-0.005,1713.888888888889
-0.265,-0.025,1716.6666666666667
-0.285,-0.03,1719.4444444444443
-0.285,-0.02,1722.2222222222222
-0.265,-0.005,1725.0
-0.245,0.01,1727.7777777777778
-0.255,-0.005,1730.5555555555557
-0.27,-0.015,1733.3333333333333
-0.275,-0.03,1736.111111111111
-0.285,-0.005,1738.888888888889
-0.27,-0.01,1741.6666666666667
-0.255,0.0,1744.4444444444443
-0.25,0.0,1747.2222222222222
-0.26,-0.015,1750.0
-0.27,-0.02,1752.7777777777778
-0.27,0.005,1755.5555555555557
-0.26,0.005,1758.3333333333333
-0.23,0.0,1761.111111111111
-0.24,0.0,1763.888888888889
-0.245,-0.01,1766.6666666666667
-0.245,-0.01,1769.4444444444443
-0.24,0.025,1772.2222222222222
-0.215,0.025,1775.0
-0.195,0.04,1777.7777777777778
-0.2,0.04,1780.5555555555557
-0.21,0.02,1783.3333333333333
-0.21,0.015,1786.111111111111
-0.205,0.03,1788.888888888889
-0.195,0.045,1791.6666666666667
-0.18,0.05,1794.4444444444443
-0.175,0.06,1797.2222222222222
-0.175,0.045,1800.0
-0.19,0.03,1802.7777777777778
-0.2,0.05,1805.5555555555557
-0.195,0.055,1808.3333333333333
-0.185,0.07,1811.111111111111
-0.185,0.045,1813.888888888889
-0.215,0.015,1816.6666666666667
-0.22,0.0,1819.4444444444443
-0.235,0.025,1822.2222222222222
-0.23,0.025,1825.0
-0.22,0.025,1827.7777777777778
-0.225,0.04,1830.5555555555557
-0.24,0.03,1833.3333333333333
-0.245,0.02,1836.111111111111
-0.235,0.03,1838.888888888889
-0.245,0.05,1841.6666666666667
-0.21,0.055,1844.4444444444443
-0.22,0.055,1847.2222222222222
-0.23,0.03,1850.0
-0.24,0.025,1852.7777777777778
-0.235,0.04,1855.5555555555557
-0.225,0.045,1858.3333333333333
-0.21,0.035,1861.111111111111
-0.21,0.01,1863.888888888889
-0.225,-0.015,1866.6666666666667
-0.245,-0.01,1869.4444444444443
-0.28,-0.005,1872.2222222222222
-0.27,0.01,1875.0
-0.26,0.01,1877.7777777777778
-0.275,0.0,1880.5555555555557
-0.28,-0.005,1883.3333333333333
-0.285,-0.01,1886.111111111111
-0.28,0.005,1888.888888888889
-0.265,0.01,1891.6666666666667
-0.26,0.0,1894.4444444444443
-0.255,0.0,1897.2222222222222
-0.28,-0.015,1900.0
-0.275,-0.025,1902.7777777777778
-0.28,-0.015,1905.5555555555557
-0.265,0.0,1908.3333333333333
-0.255,0.0,1911.111111111111
-0.26,-0.015,1913.888888888889
-0.275,-0.01,1916.6666666666667
-0.28,-0.01,1919.4444444444443
-0.28,-0.005,1922.2222222222222
-0.27,0.0,1925.0
-0.25,0.01,1927.7777777777778
-0.255,-0.01,1930.5555555555557
-0.27,-0.025,1933.3333333333333
-0.285,-0.02,1936.111111111111
-0.285,-0.01,1938.888888888889
-0.27,0.01,1941.6666666666667
-0.25,0.005,1944.4444444444443
-0.25,0.0,1947.2222222222222
-0.265,0.0,1950.0
-0.27,-0.015,1952.7777777777778
-0.275,-0.015,1955.5555555555557
-0.26,0.015,1958.3333333333333
-0.255,0.025,1961.111111111111
-0.245,0.02,1963.888888888889
-0.245,0.015,1966.6666666666667
-0.245,0.035,1969.4444444444443
-0.24,0.08,1972.2222222222222
-0.225,0.125,1975.0
-0.2,0.155,1977.7777777777778
-0.18,0.21,1980.5555555555557
-0.17,0.24,1983.3333333333333
-0.15,0.3,1986.111111111111
-0.14,0.385,1988.888888888889
-0.165,0.49,1991.6666666666667
-0.215,0.625,1994.4444444444443
-0.25,0.765,1997.2222222222222
-0.305,0.895,2000.0
-0.355,1.035,2002.7777777777778
-0.405,1.2,2005.5555555555557
-0.46,1.35,2008.3333333333333
-0.505,1.515,2011.111111111111
-0.505,1.685,2013.888888888889
-0.46,1.865,2016.6666666666667
-0.405,2.015,2019.4444444444443
-0.295,2.03,2022.2222222222222
-0.15,1.915,2025.0
-0.025,1.625,2027.7777777777778
0.025,1.15,2030.5555555555557
-0.035,0.695,2033.3333333333333
-0.205,0.335,2036.111111111111
-0.43,0.11,2038.888888888889
-0.6,0.005,2041.6666666666667
-0.67,-0.045,2044.4444444444443
-0.675,-0.065,2047.2222222222222
-0.63,-0.07,2050.0
-0.585,-0.045,2052.777777777778
-0.5,-0.03,2055.5555555555557
-0.365,-0.015,2058.3333333333335
-0.275,-0.015,2061.1111111111113
-0.26,-0.03,2063.8888888888887
-0.25,-0.065,2066.6666666666665
-0.25,-0.08,2069.4444444444443
-0.24,-0.085,2072.222222222222
-0.23,-0.09,2075.0
-0.205,-0.09,2077.777777777778
-0.21,-0.09,2080.5555555555557
-0.21,-0.11,2083.3333333333335
-0.23,-0.12,2086.1111111111113
-0.215,-0.1,2088.8888888888887
-0.195,-0.11,2091.6666666666665
-0.18,-0.1,2094.4444444444443
-0.18,-0.115,2097.222222222222
-0.175,-0.115,2100.0
-0.185,-0.12,2102.777777777778
-0.185,-0.11,2105.5555555555557
-0.165,-0.095,2108.3333333333335
-0.155,-0.105,2111.1111111111113
-0.155,-0.115,2113.8888888888887
-0.165,-0.135,2116.6666666666665
-0.17,-0.135,2119.4444444444443
-0.17,-0.125,2122.222222222222
-0.155,-0.11,2125.0
-0.155,-0.115,2127.777777777778
-0.13,-0.12,2130.5555555555557
-0.155,-0.125,2133.3333333333335
-0.165,-0.135,2136.1111111111113
-0.17,-0.14,2138.8888888888887
-0.15,-0.12,2141.6666666666665
-0.13,-0.125,2144.4444444444443
-0.14,-0.14,2147.222222222222
-0.15,-0.15,2150.0
-0.165,-0.16,2152.777777777778
-0.165,-0.145,2155.5555555555557
-0.155,-0.13,2158.3333333333335
-0.14,-0.135,2161.1111111111113
-0.14,-0.14,2163.8888888888887
-0.145,-0.17,2166.6666666666665
-0.15,-0.165,2169.4444444444443
-0.155,-0.16,2172.222222222222
-0.14,-0.15,2175.0
-0.12,-0.14,2177.777777777778
-0.13,-0.15,2180.5555555555557
-0.135,-0.165,2183.3333333333335
-0.135,-0.165,2186.1111111111113
-0.155,-0.16,2188.8888888888887
-0.14,-0.15,2191.6666666666665
-0.11,-0.15,2194.4444444444443
-0.13,-0.155,2197.222222222222
-0.135,-0.165,2200.0
-0.125,-0.16,2202.777777777778
-0.125,-0.15,2205.5555555555557
-0.115,-0.14,2208.3333333333335
-0.1,-0.14,2211.1111111111113
-0.105,-0.15,2213.8888888888887
-0.105,-0.165,2216.6666666666665
-0.12,-0.17,2219.4444444444443
-0.115,-0.155,2222.222222222222
-0.115,-0.13,2225.0
-0.095,-0.12,2227.777777777778
-0.08,-0.135,2230.5555555555557
-0.11,-0.145,2233.3333333333335
-0.105,-0.155,2236.1111111111113
-0.11,-0.14,2238.8888888888887
-0.09,-0.12,2241.6666666666665
-0.07,-0.13,2244.4444444444443
-0.065,-0.135,2247.222222222222
-0.075,-0.14,2250.0
-0.08,-0.135,2252.777777777778
-0.085,-0.13,2255.5555555555557
-0.055,-0.105,2258.3333333333335
-0.045,-0.105,2261.1111111111113
-0.04,-0.105,2263.8888888888887
-0.04,-0.11,2266.6666666666665
-0.04,-0.11,2269.4444444444443
-0.05,-0.105,2272.222222222222
-0.02,-0.07,2275.0
-0.005,-0.06,2277.777777777778
0.0,-0.06,2280.5555555555557
-0.005,-0.065,2283.3333333333335
-0.015,-0.05,2286.1111111111113
-0.01,-0.03,2288.8888888888887
0.0,0.0,2291.6666666666665
0.025,0.01,2294.4444444444443
0.025,0.015,2297.222222222222
0.02,0.01,2300.0
0.01,0.02,2302.777777777778
0.01,0.05,2305.5555555555557
0.03,0.065,2308.3333333333335
0.05,0.085,2311.1111111111113
0.04,0.1,2313.8888888888887
0.03,0.1,2316.6666666666665
0.025,0.115,2319.4444444444443
0.04,0.135,2322.222222222222
0.06,0.165,2325.0
0.08,0.17,2327.777777777778
0.07,0.185,2330.5555555555557
0.055,0.18,2333.3333333333335
0.035,0.175,2336.1111111111113
0.05,0.2,2338.8888888888887
0.045,0.2,2341.6666666666665
0.045,0.22,2344.4444444444443
0.035,0.21,2347.222222222222
0.02,0.195,2350.0
-0.005,0.18,2352.777777777778
-0.015,0.18,2355.5555555555557
-0.005,0.185,2358.3333333333335
-0.005,0.165,2361.1111111111113
-0.02,0.15,2363.8888888888887
-0.035,0.135,2366.6666666666665
-0.065,0.105,2369.4444444444443
-0.085,0.11,2372.222222222222
-0.08,0.115,2375.0
-0.07,0.095,2377.777777777778
-0.095,0.085,2380.5555555555557
-0.11,0.06,2383.3333333333335
-0.14,0.05,2386.1111111111113
-0.135,0.04,2388.8888888888887
-0.13,0.055,2391.6666666666665
-0.125,0.055,2394.4444444444443
-0.14,0.045,2397.222222222222
-0.15,0.03,2400.0
-0.15,0.015,2402.777777777778
-0.155,0.03,2405.5555555555557
-0.145,0.035,2408.3333333333335
-0.15,0.03,2411.1111111111113
-0.145,0.025,2413.8888888888887
-0.175,0.005,2416.6666666666665
-0.17,0.01,2419.4444444444443
-0.175,0.015,2422.222222222222
-0.155,0.025,2425.0
-0.15,0.015,2427.777777777778
-0.16,0.005,2430.5555555555557
-0.165,-0.005,2433.3333333333335
-0.175,-0.005,2436.1111111111113
-0.185,0.0,2438.8888888888887
-0.18,0.015,2441.6666666666665
-0.17,0.015,2444.4444444444443
-0.16,0.015,2447.222222222222
-0.185,-0.01,2450.0
-0.19,-0.015,2452.777777777778
-0.2,-0.01,2455.5555555555557
-0.2,-0.015,2458.3333333333335
-0.175,0.0,2461.1111111111113
-0.185,-0.01,2463.8888888888887
-0.195,-0.02,2466.6666666666665
-0.2,-0.015,2469.4444444444443
-0.2,-0.02,2472.222222222222
-0.175,0.005,2475.0
-0.17,-0.005,2477.777777777778
-0.195,-0.015,2480.5555555555557
-0.185,-0.04,2483.3333333333335
-0.19,-0.03,2486.1111111111113
-0.195,-0.025,2488.8888888888887
-0.195,-0.01,2491.6666666666665
-0.17,-0.01,2494.4444444444443
-0.175,-0.025,2497.222222222222
-0.18,-0.035,2500.0
-0.19,-0.03,2502.777777777778
-0.195,-0.035,2505.5555555555557
-0.195,-0.02,2508.3333333333335
-0.19,-0.02,2511.1111111111113
-0.185,-0.025,2513.8888888888887
-0.195,-0.04,2516.6666666666665
-0.215,-0.055,2519.4444444444443
-0.215,-0.035,2522.222222222222
-0.205,-0.015,2525.0
-0.19,-0.03,2527.777777777778
-0.205,-0.035,2530.5555555555557
-0.215,-0.055,2533.3333333333335
-0.22,-0.04,2536.1111111111113
-0.215,-0.03,2538.8888888888887
-0.205,-0.02,2541.6666666666665
-0.185,-0.01,2544.4444444444443
-0.19,-0.015,2547.222222222222
-0.195,-0.03,2550.0
-0.2,-0.035,2552.777777777778
-0.215,-0.03,2555.5555555555557
-0.205,-0.02,2558.3333333333335
-0.19,-0.005,2561.1111111111113
-0.185,-0.02,2563.8888888888887
-0.195,-0.04,2566.6666666666665
-0.2,-0.03,2569.4444444444443
-0.21,-0.025,2572.222222222222
-0.19,0.0,2575.0
-0.17,-0.01,2577.777777777778
-0.18,-0.015,2580.5555555555557
-0.2,-0.025,2583.3333333333335
-0.2,-0.025,2586.1111111111113
-0.21,-0.01,2588.8888888888887
-0.215,-0.005,2591.6666666666665
-0.185,0.0,2594.4444444444443
-0.195,-0.005,2597.222222222222
-0.2,-0.025,2600.0
-0.225,-0.02,2602.777777777778
-0.225,-0.01,2605.5555555555557
-0.215,-0.01,2608.3333333333335
-0.205,-0.005,2611.1111111111113
-0.21,0.0,2613.8888888888887
-0.23,-0.015,2616.6666666666665
-0.235,-0.025,2619.4444444444443
-0.23,-0.015,2622.222222222222
-0.21,0.0,2625.0
-0.205,-0.01,2627.777777777778
-0.21,-0.015,2630.5555555555557
-0.23,-0.02,2633.3333333333335
-0.24,-0.025,2636.1111111111113
-0.235,-0.015,2638.8888888888887
-0.22,0.0,2641.6666666666665
-0.205,0.0,2644.4444444444443
-0.215,-0.02,2647.222222222222
-0.22,-0.03,2650.0
-0.23,-0.035,2652.777777777778
-0.245,-0.02,2655.5555555555557
-0.225,-0.01,2658.3333333333335
-0.225,-0.005,2661.1111111111113
-0.23,-0.01,2663.8888888888887
-0.235,-0.04,2666.6666666666665
-0.245,-0.04,2669.4444444444443
-0.255,-0.04,2672.222222222222
-0.255,-0.025,2675.0
-0.245,-0.015,2677.777777777778
-0.25,-0.025,2680.5555555555557
-0.255,-0.04,2683.3333333333335
-0.27,-0.035,2686.1111111111113
-0.265,-0.025,2688.8888888888887
-0.255,-0.015,2691.6666666666665
-0.235,-0.025,2694.4444444444443
-0.245,-0.03,2697.222222222222
-0.25,-0.05,2700.0
-0.265,-0.045,2702.777777777778
-0.26,-0.035,2705.5555555555557
-0.25,-0.025,2708.3333333333335
-0.25,-0.03,2711.1111111111113
-0.26,-0.02,2713.8888888888887
-0.27,-0.055,2716.6666666666665
-0.27,-0.055,2719.4444444444443
-0.275,-0.04,2722.222222222222
-0.255,-0.03,2725.0
-0.245,-0.035,2727.777777777778
-0.255,-0.05,2730.5555555555557
-0.265,-0.04,2733.3333333333335
-0.29,-0.05,2736.1111111111113
-0.28,-0.035,2738.8888888888887
-0.27,-0.015,2741.6666666666665
-0.26,-0.025,2744.4444444444443
-0.27,-0.035,2747.222222222222
-0.28,-0.05,2750.0
-0.285,-0.045,2752.777777777778
-0.295,-0.04,2755.5555555555557
-0.27,-0.015,2758.3333333333335
-0.255,-0.02,2761.1111111111113
-0.27,-0.025,2763.8888888888887
-0.275,-0.04,2766.6666666666665
-0.29,-0.055,2769.4444444444443
-0.28,-0.04,2772.222222222222
-0.245,-0.04,2775.0
-0.27,-0.04,2777.777777777778
-0.285,-0.045,2780.5555555555557
-0.28,-0.05,2783.3333333333335
-0.29,-0.04,2786.1111111111113
-0.265,-0.025,2788.8888888888887
-0.255,-0.03,2791.6666666666665
-0.26,-0.025,2794.4444444444443
-0.275,-0.04,2797.222222222222
-0.29,-0.04,2800.0
-0.275,-0.04,2802.777777777778
-0.28,-0.01,2805.5555555555557
-0.275,-0.015,2808.3333333333335
-0.265,-0.03,2811.1111111111113
-0.275,-0.045,2813.8888888888887
-0.29,-0.04,2816.6666666666665
-0.29,-0.03,2819.4444444444443
-0.29,-0.02,2822.222222222222
-0.27,-0.025,2825.0
-0.265,-0.03,2827.777777777778
-0.29,-0.035,2830.5555555555557
-0.295,-0.045,2833.3333333333335
-0.29,-0.025,2836.1111111111113
-0.28,-0.005,2838.8888888888887
-0.26,-0.01,2841.6666666666665
-0.265,-0.025,2844.4444444444443
-0.275,-0.035,2847.222222222222
-0.3,-0.03,2850.0
-0.29,-0.03,2852.777777777778
-0.27,-0.02,2855.5555555555557
-0.27,-0.015,2858.3333333333335
-0.275,-0.035,2861.1111111111113
-0.28,-0.04,2863.8888888888887
-0.285,-0.04,2866.6666666666665
-0.305,-0.025,2869.4444444444443
-0.27,-0.005,2872.222222222222
-0.25,-0.015,2875.0
-0.265,-0.02,2877.777777777778
-0.28,-0.04,2880.5555555555557
-0.295,-0.05,2883.3333333333335
-0.29,-0.04,2886.1111111111113
-0.285,-0.015,2888.8888888888887
-0.27,-0.01,2891.6666666666665
-0.26,-0.02,2894.4444444444443
-0.28,-0.025,2897.222222222222
-0.295,-0.045,2900.0
-0.29,-0.03,2902.777777777778
-0.28,-0.01,2905.5555555555557
-0.25,0.0,2908.3333333333335
-0.265,-0.015,2911.1111111111113
-0.27,-0.03,2913.8888888888887
-0.28,-0.02,2916.6666666666665
-0.28,-0.015,2919.4444444444443
-0.25,-0.005,2922.222222222222
-0.235,-0.005,2925.0
-0.25,0.0,2927.777777777778
-0.255,-0.01,2930.5555555555557
-0.25,-0.005,2933.3333333333335
-0.24,0.015,2936.1111111111113
-0.22,0.02,2938.8888888888887
-0.2,0.025,2941.6666666666665
-0.235,0.03,2944.4444444444443
-0.225,0.01,2947.222222222222
-0.245,0.005,2950.0
-0.235,0.03,2952.777777777778
-0.215,0.04,2955.5555555555557
-0.195,0.045,2958.3333333333335
-0.19,0.04,2961.1111111111113
-0.2,0.035,2963.8888888888887
-0.225,0.03,2966.6666666666665
-0.225,0.035,2969.4444444444443
-0.23,0.045,2972.222222222222
-0.215,0.035,2975.0
-0.235,0.015,2977.777777777778
-0.24,0.015,2980.5555555555557
-0.255,0.005,2983.3333333333335
-0.265,0.02,2986.1111111111113
-0.25,0.035,2988.8888888888887
-0.245,0.04,2991.6666666666665
-0.23,0.015,2994.4444444444443
-0.24,0.02,2997.222222222222
-0.255,0.015,3000.0
-0.24,0.04,3002.777777777778
-0.245,0.05,3005.5555555555557
-0.22,0.04,3008.3333333333335
-0.225,0.04,3011.1111111111113
-0.225,0.025,3013.8888888888887
-0.23,0.005,3016.6666666666665
-0.235,0.0,3019.4444444444443
-0.235,0.005,3022.222222222222
-0.245,0.005,3025.0
-0.27,-0.02,3027.777777777778
-0.285,-0.02,3030.5555555555557
-0.305,-0.02,3033.3333333333335
-0.305,-0.015,3036.1111111111113
-0.28,0.0,3038.8888888888887
-0.27,-0.005,3041.6666666666665
-0.28,-0.005,3044.4444444444443
-0.28,-0.015,3047.222222222222
-0.295,-0.03,3050.0
-0.29,-0.015,3052.777777777778
-0.28,0.0,3055.5555555555557
-0.27,0.0,3058.3333333333335
-0.285,-0.01,3061.1111111111113
-0.29,-0.025,3063.8888888888887
-0.29,-0.03,3066.6666666666665
-0.285,-0.015,3069.4444444444443
-0.285,-0.005,3072.222222222222
-0.27,-0.005,3075.0
-0.26,-0.005,3077.777777777778
-0.27,-0.02,3080.5555555555557
-0.29,-0.015,3083.3333333333335
-0.29,-0.015,3086.1111111111113
-0.28,-0.01,3088.8888888888887
-0.26,0.005,3091.6666666666665
-0.27,-0.025,3094.4444444444443
-0.28,-0.025,3097.222222222222
-0.295,-0.03,3100.0
-0.285,-0.015,3102.777777777778
-0.28,0.0,3105.5555555555557
-0.26,-0.005,3108.3333333333335
-0.285,-0.005,3111.1111111111113
-0.28,-0.025,3113.8888888888887
-0.28,-0.02,3116.6666666666665
-0.275,-0.015,3119.4444444444443
-0.26,0.025,3122.222222222222
-0.245,0.03,3125.0
-0.25,0.04,3127.777777777778
-0.255,0.05,3130.5555555555557
-0.245,0.075,3133.3333333333335
-0.23,0.12,3136.1111111111113
-0.2,0.19,3138.8888888888887
-0.17,0.23,3141.6666666666665
-0.14,0.275,3144.4444444444443
-0.15,0.31,3147.222222222222
-0.165,0.38,3150.0
-0.235,0.515,3152.777777777778
-0.29,0.675,3155.5555555555557
-0.31,0.815,3158.3333333333335
-0.365,0.95,3161.1111111111113
-0.425,1.075,3163.8888888888887
-0.525,1.205,3166.6666666666665
-0.59,1.365,3169.4444444444443
-0.595,1.56,3172.222222222222
-0.545,1.775,3175.0
-0.445,1.925,3177.777777777778
-0.335,1.94,3180.5555555555557
-0.215,1.825,3183.3333333333335
-0.095,1.545,3186.1111111111113
-0.025,1.155,3188.8888888888887
-0.035,0.73,3191.6666666666665
-0.17,0.375,3194.4444444444443
-0.375,0.13,3197.222222222222
-0.59,0.0,3200.0
-0.68,-0.05,3202.777777777778
-0.685,-0.06,3205.5555555555557
-0.645,-0.05,3208.3333333333335
-0.6,-0.035,3211.1111111111113
-0.535,-0.045,3213.8888888888887
-0.445,-0.05,3216.6666666666665
-0.36,-0.045,3219.4444444444443
-0.3,-0.045,3222.222222222222
-0.27,-0.025,3225.0
-0.27,-0.055,3227.777777777778
-0.27,-0.075,3230.5555555555557
-0.265,-0.09,3233.3333333333335
-0.26,-0.105,3236.1111111111113
-0.245,-0.085,3238.8888888888887
-0.235,-0.09,3241.6666666666665
-0.235,-0.11,3244.4444444444443
-0.25,-0.11,3247.222222222222
-0.245,-0.115,3250.0
-0.23,-0.11,3252.777777777778
-0.24,-0.085,3255.5555555555557
-0.2,-0.085,3258.3333333333335
-0.2,-0.12,3261.1111111111113
-0.215,-0.12,3263.8888888888887
-0.215,-0.13,3266.6666666666665
-0.23,-0.11,3269.4444444444443
-0.195,-0.11,3272.222222222222
-0.19,-0.1,3275.0
-0.18,-0.11,3277.777777777778
-0.2,-0.125,3280.5555555555557
-0.215,-0.125,3283.3333333333335
-0.195,-0.12,3286.1111111111113
-0.185,-0.12,3288.8888888888887
-0.175,-0.12,3291.6666666666665
-0.165,-0.11,3294.4444444444443
-0.185,-0.13,3297.222222222222
-0.205,-0.145,3300.0
-0.185,-0.13,3302.777777777778
-0.18,-0.12,3305.5555555555557
-0.17,-0.115,3308.3333333333335
-0.165,-0.135,3311.1111111111113
-0.18,-0.145,3313.8888888888887
-0.195,-0.15,3316.6666666666665
-0.195,-0.13,3319.4444444444443
-0.175,-0.12,3322.222222222222
-0.16,-0.125,3325.0
-0.17,-0.14,3327.777777777778
-0.165,-0.145,3330.5555555555557
-0.19,-0.145,3333.3333333333335
-0.18,-0.145,3336.1111111111113
-0.17,-0.12,3338.8888888888887
-0.165,-0.135,3341.6666666666665
-0.145,-0.13,3344.4444444444443
-0.17,-0.15,3347.222222222222
-0.185,-0.145,3350.0
-0.175,-0.135,3352.777777777778
-0.17,-0.12,3355.5555555555557
-0.15,-0.13,3358.3333333333335
-0.15,-0.135,3361.1111111111113
-0.16,-0.15,3363.8888888888887
-0.17,-0.155,3366.6666666666665
-0.16,-0.145,3369.4444444444443
-0.155,-0.135,3372.222222222222
-0.13,-0.115,3375.0
-0.135,-0.125,3377.777777777778
-0.15,-0.145,3380.5555555555557
-0.145,-0.15,3383.3333333333335
-0.15,-0.145,3386.1111111111113
-0.13,-0.13,3388.8888888888887
-0.125,-0.12,3391.6666666666665
-0.12,-0.12,3394.4444444444443
-0.125,-0.135,3397.222222222222
-0.13,-0.13,3400.0
-0.13,-0.115,3402.777777777778
-0.125,-0.1,3405.5555555555557
-0.1,-0.105,3408.3333333333335
-0.1,-0.115,3411.1111111111113
-0.11,-0.12,3413.8888888888887
-0.12,-0.12,3416.6666666666665
-0.11,-0.1,3419.4444444444443
-0.095,-0.09,3422.222222222222
-0.085,-0.08,3425.0
-0.08,-0.085,3427.777777777778
-0.085,-0.08,3430.5555555555557
-0.09,-0.08,3433.3333333333335
-0.08,-0.07,3436.1111111111113
-0.065,-0.055,3438.8888888888887
-0.05,-0.05,3441.6666666666665
-0.04,-0.05,3444.4444444444443
-0.04,-0.045,3447.222222222222
-0.055,-0.03,3450.0
-0.04,-0.02,3452.777777777778
-0.025,0.005,3455.5555555555557
-0.02,0.015,3458.3333333333335
-0.02,0.02,3461.1111111111113
-0.015,0.03,3463.8888888888887
-0.015,0.035,3466.6666666666665
-0.01,0.06,3469.4444444444443
-0.005,0.09,3472.222222222222
0.02,0.105,3475.0
0.005,0.1,3477.777777777778
-0.015,0.12,3480.5555555555557
-0.02,0.12,3483.3333333333335
-0.01,0.15,3486.1111111111113
0.0,0.18,3488.8888888888887
0.005,0.195,3491.6666666666665
0.01,0.185,3494.4444444444443
0.005,0.19,3497.222222222222
-0.015,0.195,3500.0
-0.005,0.21,3502.777777777778
0.0,0.22,3505.5555555555557
-0.015,0.21,3508.3333333333335
-0.02,0.215,3511.1111111111113
-0.035,0.195,3513.8888888888887
-0.065,0.18,3516.6666666666665
-0.08,0.2,3519.4444444444443
-0.07,0.18,3522.222222222222
-0.07,0.175,3525.0
-0.08,0.16,3527.777777777778
-0.09,0.135,3530.5555555555557
-0.12,0.12,3533.3333333333335
-0.125,0.13,3536.1111111111113
-0.115,0.125,3538.8888888888887
-0.115,0.125,3541.6666666666665
-0.135,0.1,3544.4444444444443
-0.15,0.075,3547.222222222222
-0.18,0.065,3550.0
-0.185,0.07,3552.777777777778
-0.17,0.08,3555.5555555555557
-0.165,0.08,3558.3333333333335
-0.17,0.065,3561.1111111111113
-0.185,0.04,3563.8888888888887
-0.195,0.045,3566.6666666666665
-0.195,0.05,3569.4444444444443
-0.185,0.055,3572.222222222222
-0.185,0.055,3575.0
-0.18,0.04,3577.777777777778
-0.205,0.02,3580.5555555555557
-0.225,0.035,3583.3333333333335
-0.215,0.05,3586.1111111111113
-0.195,0.05,3588.8888888888887
-0.185,0.055,3591.6666666666665
-0.19,0.03,3594.4444444444443
-0.21,0.015,3597.222222222222
-0.23,0.015,3600.0
-0.22,0.025,3602.777777777778
-0.205,0.05,3605.5555555555557
-0.19,0.04,3608.3333333333335
-0.195,0.035,3611.1111111111113
-0.215,0.015,3613.8888888888887
-0.22,0.015,3616.6666666666665
-0.23,0.015,3619.4444444444443
-0.225,0.025,3622.222222222222
-0.21,0.025,3625.0
-0.215,0.015,3627.777777777778
-0.22,0.01,3630.5555555555557
-0.225,0.0,3633.3333333333335
-0.225,0.0,3636.1111111111113
-0.215,0.025,3638.8888888888887
-0.21,0.015,3641.6666666666665
-0.22,0.005,3644.4444444444443
-0.22,-0.015,3647.222222222222
-0.24,-0.025,3650.0
-0.235,0.005,3652.777777777778
-0.235,0.01,3655.5555555555557
-0.19,0.02,3658.3333333333335
-0.215,0.0,3661.1111111111113
-0.22,-0.01,3663.8888888888887
-0.235,-0.03,3666.6666666666665
-0.21,-0.02,3669.4444444444443
-0.225,-0.005,3672.222222222222
-0.22,0.0,3675.0
-0.2,-0.015,3677.777777777778
-0.22,-0.025,3680.5555555555557
-0.235,-0.01,3683.3333333333335
-0.225,-0.01,3686.1111111111113
-0.215,0.005,3688.8888888888887
-0.195,-0.005,3691.6666666666665
-0.185,-0.02,3694.4444444444443
-0.205,-0.015,3697.222222222222
-0.22,-0.02,3700.0
-0.21,-0.01,3702.777777777778
-0.205,0.01,3705.5555555555557
-0.185,0.02,3708.3333333333335
-0.195,0.01,3711.1111111111113
-0.21,-0.005,3713.8888888888887
-0.225,-0.005,3716.6666666666665
-0.22,0.0,3719.4444444444443
-0.22,0.01,3722.222222222222
-0.205,0.02,3725.0
-0.2,0.015,3727.777777777778
-0.21,0.0,3730.5555555555557
-0.21,-0.005,3733.3333333333335
-0.21,0.005,3736.1111111111113
-0.205,0.025,3738.8888888888887
-0.19,0.02,3741.6666666666665
-0.2,0.01,3744.4444444444443
-0.21,-0.005,3747.222222222222
-0.225,-0.005,3750.0
-0.22,0.01,3752.777777777778
-0.205,0.03,3755.5555555555557
-0.2,0.02,3758.3333333333335
-0.195,0.01,3761.1111111111113
-0.215,-0.01,3763.8888888888887
-0.22,0.005,3766.6666666666665
-0.24,-0.005,3769.4444444444443
-0.23,0.01,3772.222222222222
-0.215,0.015,3775.0
-0.215,0.0,3777.777777777778
-0.235,-0.01,3780.5555555555557
-0.245,-0.005,3783.3333333333335
-0.245,0.0,3786.1111111111113
-0.225,0.01,3788.8888888888887
-0.225,0.005,3791.6666666666665
-0.23,-0.005,3794.4444444444443
-0.235,-0.02,3797.222222222222
-0.245,-0.015,3800.0
-0.245,-0.015,3802.777777777778
-0.22,0.0,3805.5555555555557
-0.23,0.005,3808.3333333333335
-0.22,-0.01,3811.1111111111113
-0.24,-0.025,3813.8888888888887
-0.25,-0.02,3816.6666666666665
-0.25,-0.005,3819.4444444444443
-0.24,0.005,3822.222222222222
-0.235,-0.01,3825.0
-0.235,-0.01,3827.777777777778
-0.255,-0.035,3830.5555555555557
-0.245,-0.03,3833.3333333333335
-0.26,-0.035,3836.1111111111113
-0.245,-0.015,3838.8888888888887
-0.24,-0.015,3841.6666666666665
-0.245,-0.02,3844.4444444444443
-0.26,-0.045,3847.222222222222
-0.27,-0.04,3850.0
-0.28,-0.03,3852.777777777778
-0.255,-0.015,3855.5555555555557
-0.245,-0.015,3858.3333333333335
-0.245,-0.04,3861.1111111111113
-0.265,-0.04,3863.8888888888887
-0.29,-0.04,3866.6666666666665
-0.275,-0.025,3869.4444444444443
-0.27,-0.02,3872.222222222222
-0.25,-0.015,3875.0
-0.255,-0.025,3877.777777777778
-0.26,-0.035,3880.5555555555557
-0.27,-0.04,3883.3333333333335
-0.275,-0.03,3886.1111111111113
-0.27,-0.02,3888.8888888888887
-0.25,-0.025,3891.6666666666665
-0.25,-0.025,3894.4444444444443
-0.27,-0.04,3897.222222222222
-0.29,-0.035,3900.0
-0.275,-0.025,3902.777777777778
-0.26,-0.02,3905.5555555555557
-0.245,-0.015,3908.3333333333335
-0.25,-0.02,3911.1111111111113
-0.265,-0.045,3913.8888888888887
-0.295,-0.05,3916.6666666666665
-0.29,-0.03,3919.4444444444443
-0.265,-0.015,3922.222222222222
-0.255,-0.01,3925.0
-0.265,-0.03,3927.777777777778
-0.285,-0.055,3930.5555555555557
-0.3,-0.035,3933.3333333333335
-0.295,-0.035,3936.1111111111113
-0.265,-0.02,3938.8888888888887
-0.26,-0.025,3941.6666666666665
-0.255,-0.02,3944.4444444444443
-0.26,-0.035,3947.222222222222
-0.27,-0.05,3950.0
-0.27,-0.03,3952.777777777778
-0.26,-0.02,3955.5555555555557
-0.25,-0.025,3958.3333333333335
-0.255,-0.02,3961.1111111111113
-0.255,-0.035,3963.8888888888887
-0.265,-0.035,3966.6666666666665
-0.28,-0.025,3969.4444444444443
-0.26,-0.015,3972.222222222222
-0.24,-0.015,3975.0
-0.245,-0.025,3977.777777777778
-0.255,-0.04,3980.5555555555557
-0.28,-0.045,3983.3333333333335
-0.275,-0.03,3986.1111111111113
-0.27,-0.015,3988.8888888888887
-0.255,-0.01,3991.6666666666665
-0.24,-0.02,3994.4444444444443
-0.26,-0.035,3997.222222222222
-0.27,-0.045,4000.0
-0.275,-0.035,4002.777777777778
-0.265,-0.015,4005.5555555555557
-0.255,-0.01,4008.3333333333335
-0.26,-0.01,4011.1111111111113
-0.27,-0.03,4013.8888888888887
-0.27,-0.035,4016.6666666666665
-0.27,-0.025,4019.4444444444443
-0.27,-0.02,4022.222222222222
-0.245,-0.015,4025.0
-0.245,-0.02,4027.777777777778
-0.255,-0.05,4030.5555555555557
-0.265,-0.035,4033.3333333333335
-0.265,-0.025,4036.1111111111113
-0.255,-0.025,4038.8888888888887
-0.23,-0.015,4041.6666666666665
-0.25,-0.035,4044.4444444444443
-0.25,-0.04,4047.222222222222
-0.255,-0.045,4050.0
-0.27,-0.025,4052.777777777778
-0.255,-0.01,4055.5555555555557
-0.245,-0.01,4058.3333333333335
-0.245,-0.025,4061.1111111111113
-0.26,-0.04,4063.8888888888887
-0.275,-0.035,4066.6666666666665
-0.275,-0.02,4069.4444444444443
-0.255,-0.015,4072.222222222222
-0.24,-0.005,4075.0
-0.25,-0.02,4077.777777777778
-0.25,-0.02,4080.5555555555557
-0.26,-0.025,4083.3333333333335
-0.27,-0.01,4086.1111111111113
-0.24,-0.01,4088.8888888888887
-0.215,0.005,4091.6666666666665
-0.21,-0.005,4094.4444444444443
-0.215,-0.005,4097.222222222223
-0.215,0.01,4100.0
-0.22,0.015,4102.777777777777
-0.2,0.035,4105.555555555556
-0.185,0.025,4108.333333333333
-0.185,0.01,4111.111111111111
-0.195,0.025,4113.888888888889
-0.19,0.02,4116.666666666667
-0.195,0.02,4119.444444444444
-0.175,0.035,4122.222222222223
-0.175,0.035,4125.0
-0.18,0.035,4127.777777777777
-0.2,0.015,4130.555555555556
-0.205,0.0,4133.333333333333
-0.215,0.01,4136.111111111111
-0.225,0.01,4138.888888888889
-0.215,0.015,4141.666666666667
-0.235,0.01,4144.444444444444
-0.235,-0.01,4147.222222222223
-0.24,0.0,4150.0
-0.245,0.005,4152.777777777777
-0.225,0.035,4155.555555555556
-0.225,0.035,4158.333333333333
-0.215,0.025,4161.111111111111
-0.205,0.015,4163.888888888889
-0.215,0.0,4166.666666666667
-0.21,-0.005,4169.444444444444
-0.21,-0.005,4172.222222222223
-0.225,-0.03,4175.0
-0.245,-0.025,4177.777777777777
-0.27,-0.04,4180.555555555556
-0.29,-0.03,4183.333333333333
-0.275,-0.025,4186.111111111111
-0.27,-0.02,4188.888888888889
-0.245,-0.03,4191.666666666667
-0.255,-0.04,4194.444444444444
-0.265,-0.045,4197.222222222223
-0.28,-0.04,4200.0
-0.28,-0.035,4202.777777777777
-0.27,-0.015,4205.555555555556
-0.255,-0.02,4208.333333333333
-0.255,-0.025,4211.111111111111
-0.275,-0.05,4213.888888888889
-0.28,-0.045,4216.666666666667
-0.28,-0.035,4219.444444444444
-0.275,-0.02,4222.222222222223
-0.26,-0.025,4225.0
-0.265,-0.025,4227.777777777777
-0.275,-0.045,4230.555555555556
-0.28,-0.05,4233.333333333333
-0.28,-0.03,4236.111111111111
-0.26,-0.02,4238.888888888889
-0.25,-0.025,4241.666666666667
-0.25,-0.03,4244.444444444444
-0.275,-0.035,4247.222222222223
-0.275,-0.045,4250.0
-0.275,-0.03,4252.777777777777
-0.26,-0.015,4255.555555555556
-0.245,-0.01,4258.333333333333
-0.255,-0.005,4261.111111111111
-0.255,-0.02,4263.888888888889
-0.275,-0.005,4266.666666666667
-0.26,0.035,4269.444444444444
-0.235,0.065,4272.222222222223
-0.21,0.11,4275.0
-0.195,0.145,4277.777777777777
-0.195,0.2,4280.555555555556
-0.185,0.265,4283.333333333333
-0.145,0.335,4286.111111111111
-0.155,0.455,4288.888888888889
-0.19,0.61,4291.666666666667
-0.26,0.765,4294.444444444444
-0.315,0.905,4297.222222222223
-0.355,1.08,4300.0
-0.415,1.245,4302.777777777777
-0.465,1.415,4305.555555555556
-0.5,1.575,4308.333333333333
-0.49,1.78,4311.111111111111
-0.425,1.945,4313.888888888889
-0.335,2.035,4316.666666666667
-0.19,1.985,4319.444444444444
-0.065,1.735,4322.222222222223
0.015,1.3,4325.0
-0.01,0.78,4327.777777777777
-0.155,0.385,4330.555555555556
-0.375,0.13,4333.333333333333
-0.575,0.01,4336.111111111111
-0.665,-0.04,4338.888888888889
-0.655,-0.045,4341.666666666667
-0.63,-0.055,4344.444444444444
-0.575,-0.055,4347.222222222223
-0.51,-0.04,4350.0
-0.375,-0.045,4352.777777777777
-0.295,-0.035,4355.555555555556
-0.265,-0.05,4358.333333333333
-0.255,-0.06,4361.111111111111
-0.255,-0.11,4363.888888888889
-0.27,-0.12,4366.666666666667
-0.27,-0.125,4369.444444444444
-0.25,-0.11,4372.222222222223
-0.23,-0.11,4375.0
-0.22,-0.13,4377.777777777777
-0.225,-0.135,4380.555555555556
-0.235,-0.14,4383.333333333333
-0.235,-0.13,4386.111111111111
-0.205,-0.12,4388.888888888889
-0.195,-0.13,4391.666666666667
-0.195,-0.145,4394.444444444444
-0.2,-0.16,4397.222222222223
-0.205,-0.145,4400.0
-0.2,-0.145,4402.777777777777
-0.185,-0.13,4405.555555555556
-0.17,-0.13,4408.333333333333
-0.175,-0.14,4411.111111111111
-0.185,-0.15,4413.888888888889
-0.2,-0.15,4416.666666666667
-0.195,-0.145,4419.444444444444
-0.19,-0.13,4422.222222222223
-0.17,-0.14,4425.0
-0.18,-0.145,4427.777777777777
-0.2,-0.16,4430.555555555556
-0.2,-0.175,4433.333333333333
-0.185,-0.16,4436.111111111111
-0.18,-0.155,4438.888888888889
-0.16,-0.15,4441.666666666667
-0.165,-0.175,4444.444444444444
-0.18,-0.175,4447.222222222223
-0.185,-0.175,4450.0
-0.17,-0.165,4452.777777777777
-0.16,-0.155,4455.555555555556
-0.15,-0.15,4458.333333333333
-0.15,-0.17,4461.111111111111
-0.16,-0.19,4463.888888888889
-0.165,-0.185,4466.666666666667
-0.17,-0.175,4469.444444444444
-0.155,-0.17,4472.222222222223
-0.135,-0.16,4475.0
-0.145,-0.165,4477.777777777777
-0.155,-0.175,4480.555555555556
-0.16,-0.19,4483.333333333333
-0.15,-0.17,4486.111111111111
-0.145,-0.155,4488.888888888889
-0.135,-0.155,4491.666666666667
-0.135,-0.15,4494.444444444444
-0.155,-0.18,4497.222222222223
-0.14,-0.18,4500.0
-0.14,-0.17,4502.777777777777
-0.13,-0.155,4505.555555555556
-0.12,-0.16,4508.333333333333
-0.125,-0.165,4511.111111111111
-0.13,-0.175,4513.888888888889
-0.14,-0.16,4516.666666666667
-0.135,-0.155,4519.444444444444
-0.105,-0.145,4522.222222222223
-0.08,-0.135,4525.0
-0.085,-0.145,4527.777777777777
-0.105,-0.16,4530.555555555556
-0.105,-0.16,4533.333333333333
-0.1,-0.14,4536.111111111111
-0.1,-0.13,4538.888888888889
-0.065,-0.12,4541.666666666667
-0.06,-0.12,4544.444444444444
-0.075,-0.15,4547.222222222223
-0.08,-0.13,4550.0
-0.07,-0.115,4552.777777777777
-0.06,-0.105,4555.555555555556
-0.035,-0.105,4558.333333333333
-0.04,-0.11,4561.111111111111
-0.045,-0.11,4563.888888888889
-0.06,-0.085,4566.666666666667
-0.035,-0.08,4569.444444444444
-0.02,-0.045,4572.222222222223
-0.005,-0.045,4575.0
-0.01,-0.045,4577.777777777777
0.0,-0.05,4580.555555555556
0.0,-0.025,4583.333333333333
-0.005,0.0,4586.111111111111
0.025,0.035,4588.888888888889
0.035,0.045,4591.666666666667
0.04,0.045,4594.444444444444
0.035,0.05,4597.222222222223
0.025,0.065,4600.0
0.025,0.095,4602.777777777777
0.04,0.13,4605.555555555556
0.055,0.14,4608.333333333333
0.06,0.145,4611.111111111111
0.04,0.14,4613.888888888889
0.05,0.165,4616.666666666667
0.045,0.185,4619.444444444444
0.06,0.205,4622.222222222223
0.06,0.21,4625.0
0.05,0.21,4627.777777777777
0.03,0.18,4630.555555555556
0.01,0.19,4633.333333333333
0.005,0.195,4636.111111111111
0.015,0.195,4638.888888888889
0.005,0.19,4641.666666666667
0.0,0.18,4644.444444444444
-0.035,0.15,4647.222222222223
-0.05,0.14,4650.0
-0.06,0.135,4652.777777777777
-0.05,0.135,4655.555555555556
-0.05,0.125,4658.333333333333
-0.07,0.11,4661.111111111111
-0.09,0.085,4663.888888888889
-0.1,0.07,4666.666666666667
-0.125,0.08,4669.444444444444
-0.1,0.07,4672.222222222223
-0.105,0.07,4675.0
-0.12,0.04,4677.777777777777
-0.14,0.03,4680.555555555556
-0.15,0.03,4683.333333333333
-0.16,0.02,4686.111111111111
-0.135,0.04,4688.888888888889
-0.14,0.035,4691.666666666667
-0.15,0.01,4694.444444444444
-0.16,0.015,4697.222222222223
-0.17,0.0,4700.0
-0.175,0.01,4702.777777777777
-0.18,0.03,4705.555555555556
-0.15,0.025,4708.333333333333
-0.155,0.01,4711.111111111111
-0.165,-0.005,4713.888888888889
-0.185,0.0,4716.666666666667
-0.18,0.01,4719.444444444444
-0.17,0.015,4722.222222222223
-0.18,0.015,4725.0
-0.165,0.0,4727.777777777777
-0.185,-0.015,4730.555555555556
-0.195,-0.005,4733.333333333333
-0.19,0.01,4736.111111111111
-0.185,0.025,4738.888888888889
-0.16,0.015,4741.666666666667
-0.175,0.005,4744.444444444444
-0.185,-0.015,4747.222222222223
-0.205,-0.015,4750.0
-0.185,0.0,4752.777777777777
-0.165,-0.005,4755.555555555556
-0.17,-0.005,4758.333333333333
-0.175,-0.01,4761.111111111111
-0.18,-0.025,4763.888888888889
-0.195,-0.025,4766.666666666667
-0.18,-0.025,4769.444444444444
-0.18,-0.02,4772.222222222223
-0.17,-0.015,4775.0
-0.185,-0.03,4777.777777777777
-0.195,-0.03,4780.555555555556
-0.195,-0.035,4783.333333333333
-0.185,-0.035,4786.111111111111
-0.175,-0.01,4788.888888888889
-0.175,-0.02,4791.666666666667
-0.175,-0.035,4794.444444444444
-0.195,-0.04,4797.222222222223
-0.215,-0.04,4800.0
-0.195,-0.035,4802.777777777777
-0.175,-0.025,4805.555555555556
-0.17,-0.03,4808.333333333333
-0.185,-0.035,4811.111111111111
-0.195,-0.04,4813.888888888889
-0.2,-0.04,4816.666666666667
-0.195,-0.03,4819.444444444444
-0.17,-0.02,4822.222222222223
-0.17,-0.03,4825.0
-0.17,-0.035,4827.777777777777
-0.18,-0.04,4830.555555555556
-0.19,-0.045,4833.333333333333
-0.185,-0.02,4836.111111111111
-0.175,-0.015,4838.888888888889
-0.16,-0.025,4841.666666666667
-0.17,-0.03,4844.444444444444
-0.165,-0.04,4847.222222222223
-0.185,-0.035,4850.0
-0.19,-0.025,4852.777777777777
-0.165,-0.005,4855.555555555556
-0.16,-0.005,4858.333333333333
-0.165,-0.015,4861.111111111111
-0.175,-0.03,4863.888888888889
-0.19,-0.025,4866.666666666667
-0.185,-0.02,4869.444444444444
-0.18,0.0,4872.222222222223
-0.16,0.01,4875.0
-0.165,-0.005,4877.777777777777
-0.175,-0.02,4880.555555555556
-0.19,-0.015,4883.333333333333
-0.18,-0.01,4886.111111111111
-0.16,0.01,4888.888888888889
-0.15,0.005,4891.666666666667
-0.16,-0.005,4894.444444444444
-0.175,-0.02,4897.222222222223
-0.19,-0.02,4900.0
-0.19,-0.005,4902.777777777777
-0.185,0.01,4905.555555555556
-0.17,0.01,4908.333333333333
-0.17,0.01,4911.111111111111
-0.195,-0.01,4913.888888888889
-0.2,-0.015,4916.666666666667
-0.195,-0.01,4919.444444444444
-0.2,0.0,4922.222222222223
-0.18,0.0,4925.0
-0.185,0.005,4927.777777777777
-0.195,-0.015,4930.555555555556
-0.215,-0.02,4933.333333333333
-0.2,-0.01,4936.111111111111
-0.2,-0.005,4938.888888888889
-0.185,-0.005,4941.666666666667
-0.205,-0.005,4944.444444444444
-0.195,-0.01,4947.222222222223
-0.22,-0.025,4950.0
-0.23,-0.015,4952.777777777777
-0.21,0.0,4955.555555555556
-0.2,-0.005,4958.333333333333
-0.205,-0.01,4961.111111111111
-0.21,-0.025,4963.888888888889
-0.22,-0.01,4966.666666666667
-0.21,-0.02,4969.444444444444
-0.195,0.005,4972.222222222223
-0.185,-0.01,4975.0
-0.205,-0.01,4977.777777777777
-0.215,-0.025,4980.555555555556
-0.225,-0.03,4983.333333333333
-0.22,-0.02,4986.111111111111
-0.195,-0.01,4988.888888888889
-0.2,-0.01,4991.666666666667
-0.2,-0.015,4994.444444444444
-0.23,-0.025,4997.222222222223
-0.23,-0.045,5000.0
-0.225,-0.01,5002.777777777777
-0.225,-0.015,5005.555555555556
-0.225,-0.02,5008.333333333333
-0.205,-0.02,5011.111111111111
-0.22,-0.03,5013.888888888889
-0.245,-0.04,5016.666666666667
-0.23,-0.005,5019.444444444444
-0.23,0.0,5022.222222222223
-0.22,0.0,5025.0
-0.21,-0.01,5027.777777777777
-0.22,-0.035,5030.555555555556
-0.235,-0.025,5033.333333333333
-0.225,-0.02,5036.111111111111
-0.22,0.005,5038.888888888889
-0.205,-0.005,5041.666666666667
-0.205,-0.005,5044.444444444444
-0.22,-0.02,5047.222222222223
-0.225,-0.03,5050.0
-0.24,-0.005,5052.777777777777
-0.21,0.0,5055.555555555556
-0.205,0.0,5058.333333333333
-0.215,-0.005,5061.111111111111
-0.215,-0.03,5063.888888888889
-0.225,-0.025,5066.666666666667
-0.22,-0.01,5069.444444444444
-0.21,0.0,5072.222222222223
-0.215,0.005,5075.0
-0.205,-0.015,5077.777777777777
-0.23,-0.02,5080.555555555556
-0.235,-0.03,5083.333333333333
-0.235,-0.01,5086.111111111111
-0.22,0.005,5088.888888888889
-0.21,0.0,5091.666666666667
-0.215,0.005,5094.444444444444
-0.215,-0.02,5097.222222222223
-0.23,-0.02,5100.0
-0.235,-0.015,5102.777777777777
-0.225,0.005,5105.555555555556
-0.21,0.0,5108.333333333333
-0.21,-0.005,5111.111111111111
-0.22,-0.02,5113.888888888889
-0.235,-0.03,5116.666666666667
-0.235,-0.005,5119.444444444444
-0.235,0.01,5122.222222222223
-0.215,-0.01,5125.0
-0.215,-0.02,5127.777777777777
-0.24,-0.015,5130.555555555556
-0.245,-0.02,5133.333333333333
-0.24,0.0,5136.111111111111
-0.225,0.005,5138.888888888889
-0.21,0.005,5141.666666666667
-0.205,-0.01,5144.444444444444
-0.23,-0.025,5147.222222222223
-0.23,-0.015,5150.0
-0.235,-0.02,5152.777777777777
-0.205,0.005,5155.555555555556
-0.2,0.005,5158.333333333333
-0.22,-0.005,5161.111111111111
-0.22,-0.02,5163.888888888889
-0.24,-0.02,5166.666666666667
-0.225,0.0,5169.444444444444
-0.2,0.0,5172.222222222223
-0.21,0.0,5175.0
-0.205,-0.005,5177.777777777777
-0.22,-0.03,5180.555555555556
-0.235,-0.02,5183.333333333333
-0.225,-0.005,5186.111111111111
-0.23,-0.005,5188.888888888889
-0.22,-0.01,5191.666666666667
-0.205,-0.025,5194.444444444444
-0.22,-0.03,5197.222222222223
-0.22,-0.025,5200.0
-0.2,-0.005,5202.777777777777
-0.185,0.015,5205.555555555556
-0.17,0.015,5208.333333333333
-0.17,0.01,5211.111111111111
-0.175,0.01,5213.888888888889
-0.175,0.01,5216.666666666667
-0.17,0.02,5219.444444444444
-0.15,0.04,5222.222222222223
-0.13,0.05,5225.0
-0.145,0.03,5227.777777777777
-0.16,0.03,5230.555555555556
-0.16,0.04,5233.333333333333
-0.155,0.04,5236.111111111111
-0.145,0.06,5238.888888888889
-0.13,0.06,5241.666666666667
-0.135,0.045,5244.444444444444
-0.15,0.035,5247.222222222223
-0.16,0.03,5250.0
-0.165,0.05,5252.777777777777
-0.15,0.055,5255.555555555556
-0.15,0.045,5258.333333333333
-0.17,0.02,5261.111111111111
-0.185,-0.005,5263.888888888889
-0.21,0.0,5266.666666666667
-0.205,0.015,5269.444444444444
-0.19,0.015,5272.222222222223
-0.175,0.025,5275.0
-0.18,0.025,5277.777777777777
-0.205,0.01,5280.555555555556
-0.21,0.02,5283.333333333333
-0.21,0.03,5286.111111111111
-0.19,0.065,5288.888888888889
-0.17,0.045,5291.666666666667
-0.165,0.04,5294.444444444444
-0.18,0.025,5297.222222222223
-0.185,0.035,5300.0
-0.18,0.02,5302.777777777777
-0.165,0.015,5305.555555555556
-0.17,0.005,5308.333333333333
-0.2,-0.015,5311.111111111111
-0.23,-0.015,5313.888888888889
-0.235,-0.015,5316.666666666667
-0.23,-0.005,5319.444444444444
-0.215,0.015,5322.222222222223
-0.205,0.02,5325.0
-0.215,0.01,5327.777777777777
-0.23,-0.01,5330.555555555556
-0.255,-0.015,5333.333333333333
-0.255,-0.01,5336.111111111111
-0.245,0.005,5338.888888888889
-0.21,0.01,5341.666666666667
-0.21,0.0,5344.444444444444
-0.235,-0.015,5347.222222222223
-0.245,-0.02,5350.0
-0.24,-0.02,5352.777777777777
-0.24,-0.005,5355.555555555556
-0.21,0.0,5358.333333333333
-0.22,-0.01,5361.111111111111
-0.24,-0.025,5363.888888888889
-0.235,-0.02,5366.666666666667
-0.235,-0.015,5369.444444444444
-0.21,-0.01,5372.222222222223
-0.21,0.0,5375.0
-0.215,-0.005,5377.777777777777
-0.23,-0.03,5380.555555555556
-0.235,-0.02,5383.333333333333
-0.24,0.0,5386.111111111111
-0.225,0.01,5388.888888888889
-0.215,0.005,5391.666666666667
-0.22,0.005,5394.444444444444
-0.22,0.0,5397.222222222223
-0.23,-0.005,5400.0
-0.23,0.005,5402.777777777777
-0.205,0.035,5405.555555555556
-0.2,0.05,5408.333333333333
-0.195,0.065,5411.111111111111
-0.195,0.08,5413.888888888889
-0.2,0.11,5416.666666666667
-0.185,0.165,5419.444444444444
-0.145,0.235,5422.222222222223
-0.105,0.29,5425.0
-0.08,0.315,5427.777777777777
-0.09,0.375,5430.555555555556
-0.13,0.495,5433.333333333333
-0.185,0.65,5436.111111111111
-0.225,0.815,5438.888888888889
-0.235,0.97,5441.666666666667
-0.275,1.11,5444.444444444444
-0.34,1.245,5447.222222222223
-0.415,1.38,5450.0
-0.455,1.54,5452.777777777777
-0.45,1.755,5455.555555555556
-0.385,1.955,5458.333333333333
-0.295,2.065,5461.111111111111
-0.18,2.06,5463.888888888889
-0.085,1.895,5466.666666666667
0.025,1.55,5469.444444444444
0.075,1.1,5472.222222222223
0.01,0.635,5475.0
-0.19,0.275,5477.777777777777
-0.425,0.07,5480.555555555556
-0.595,-0.03,5483.333333333333
-0.645,-0.05,5486.111111111111
-0.615,-0.035,5488.888888888889
-0.56,-0.025,5491.666666666667
-0.5,-0.035,5494.444444444444
-0.425,-0.04,5497.222222222223
-0.33,-0.035,5500.0
-0.24,-0.035,5502.777777777777
-0.205,-0.035,5505.555555555556
-0.19,-0.04,5508.333333333333
-0.18,-0.075,5511.111111111111
-0.185,-0.085,5513.888888888889
-0.2,-0.1,5516.666666666667
-0.195,-0.105,5519.444444444444
-0.17,-0.095,5522.222222222223
-0.17,-0.11,5525.0
-0.145,-0.115,5527.777777777777
-0.165,-0.125,5530.555555555556
-0.16,-0.12,5533.333333333333
-0.155,-0.11,5536.111111111111
-0.135,-0.105,5538.888888888889
-0.115,-0.115,5541.666666666667
-0.12,-0.12,5544.444444444444
-0.13,-0.125,5547.222222222223
-0.15,-0.135,5550.0
-0.14,-0.11,5552.777777777777
-0.13,-0.1,5555.555555555556
-0.115,-0.105,5558.333333333333
-0.105,-0.115,5561.111111111111
-0.115,-0.135,5563.888888888889
-0.13,-0.13,5566.666666666667
-0.125,-0.125,5569.444444444444
-0.105,-0.11,5572.222222222223
-0.095,-0.115,5575.0
-0.1,-0.135,5577.777777777777
-0.12,-0.145,5580.555555555556
-0.12,-0.14,5583.333333333333
-0.125,-0.12,5586.111111111111
-0.1,-0.11,5588.888888888889
-0.095,-0.125,5591.666666666667
-0.1,-0.145,5594.444444444444
-0.1,-0.15,5597.222222222223
-0.12,-0.15,5600.0
-0.1,-0.13,5602.777777777777
-0.1,-0.13,5605.555555555556
-0.08,-0.115,5608.333333333333
-0.09,-0.145,5611.111111111111
-0.115,-0.15,5613.888888888889
-0.12,-0.135,5616.666666666667
-0.095,-0.135,5619.444444444444
-0.085,-0.12,5622.222222222223
-0.095,-0.13,5625.0
-0.09,-0.135,5627.777777777777
-0.105,-0.14,5630.555555555556
-0.1,-0.145,5633.333333333333
-0.095,-0.13,5636.111111111111
-0.075,-0.125,5638.888888888889
-0.075,-0.125,5641.666666666667
-0.07,-0.13,5644.444444444444
-0.095,-0.155,5647.222222222223
-0.095,-0.145,5650.0
-0.075,-0.12,5652.777777777777
-0.065,-0.12,5655.555555555556
-0.055,-0.12,5658.333333333333
-0.06,-0.12,5661.111111111111
-0.08,-0.14,5663.888888888889
-0.095,-0.135,5666.666666666667
-0.075,-0.12,5669.444444444444
-0.05,-0.1,5672.222222222223
-0.04,-0.115,5675.0
-0.03,-0.115,5677.777777777777
-0.035,-0.12,5680.555555555556
-0.06,-0.115,5683.333333333333
-0.045,-0.105,5686.111111111111
-0.045,-0.09,5688.888888888889
-0.025,-0.095,5691.666666666667
-0.01,-0.095,5694.444444444444
-0.02,-0.1,5697.222222222223
-0.03,-0.105,5700.0
-0.02,-0.085,5702.777777777777
-0.005,-0.07,5705.555555555556
0.025,-0.075,5708.333333333333
-0.005,-0.07,5711.111111111111
0.005,-0.07,5713.888888888889
0.01,-0.06,5716.666666666667
0.01,-0.04,5719.444444444444
0.035,-0.005,5722.222222222223
0.04,0.005,5725.0
0.045,0.0,5727.777777777777
0.035,0.0,5730.555555555556
0.045,0.02,5733.333333333333
0.06,0.045,5736.111111111111
0.075,0.08,5738.888888888889
0.09,0.075,5741.666666666667
0.09,0.095,5744.444444444444
0.08,0.095,5747.222222222223
0.075,0.125,5750.0
0.08,0.16,5752.777777777777
0.1,0.17,5755.555555555556
0.115,0.185,5758.333333333333
0.105,0.195,5761.111111111111
0.1,0.21,5763.888888888889
0.09,0.215,5766.666666666667
0.085,0.235,5769.444444444444
0.1,0.265,5772.222222222223
0.1,0.255,5775.0
0.095,0.25,5777.777777777777
0.07,0.235,5780.555555555556
0.05,0.235,5783.333333333333
0.055,0.235,5786.111111111111
0.06,0.24,5788.888888888889
0.065,0.23,5791.666666666667
0.035,0.21,5794.444444444444
0.02,0.18,5797.222222222223
-0.005,0.17,5800.0
-0.01,0.165,5802.777777777777
-0.01,0.18,5805.555555555556
-0.025,0.155,5808.333333333333
-0.035,0.13,5811.111111111111
-0.06,0.105,5813.888888888889
-0.08,0.095,5816.666666666667
-0.09,0.1,5819.444444444444
-0.085,0.095,5822.222222222223
-0.085,0.085,5825.0
-0.09,0.07,5827.777777777777
-0.115,0.055,5830.555555555556
-0.13,0.06,5833.333333333333
-0.12,0.065,5836.111111111111
-0.115,0.075,5838.888888888889
-0.105,0.06,5841.666666666667
-0.12,0.05,5844.444444444444
-0.135,0.035,5847.222222222223
-0.135,0.05,5850.0
-0.14,0.045,5852.777777777777
-0.14,0.065,5855.555555555556
-0.13,0.055,5858.333333333333
-0.12,0.055,5861.111111111111
-0.15,0.045,5863.888888888889
-0.155,0.03,5866.666666666667
-0.165,0.05,5869.444444444444
-0.15,0.05,5872.222222222223
-0.135,0.05,5875.0
-0.15,0.05,5877.777777777777
-0.165,0.025,5880.555555555556
-0.165,0.02,5883.333333333333
-0.175,0.035,5886.111111111111
-0.16,0.035,5888.888888888889
-0.155,0.035,5891.666666666667
-0.14,0.025,5894.444444444444
-0.17,0.005,5897.222222222223
-0.185,0.015,5900.0
-0.175,0.03,5902.777777777777
-0.155,0.04,5905.555555555556
-0.145,0.03,5908.333333333333
-0.155,0.015,5911.111111111111
-0.17,-0.005,5913.888888888889
-0.175,0.005,5916.666666666667
-0.165,0.01,5919.444444444444
-0.16,0.035,5922.222222222223
-0.14,0.03,5925.0
-0.16,0.015,5927.777777777777
-0.165,-0.005,5930.555555555556
-0.175,0.005,5933.333333333333
-0.18,0.01,5936.111111111111
-0.15,0.02,5938.888888888889
-0.145,0.025,5941.666666666667
-0.155,0.01,5944.444444444444
-0.17,-0.01,5947.222222222223
-0.185,0.0,5950.0
-0.175,0.005,5952.777777777777
-0.155,0.015,5955.555555555556
-0.15,0.02,5958.333333333333
-0.15,0.02,5961.111111111111
-0.17,0.01,5963.888888888889
-0.165,0.02,5966.666666666667
-0.16,0.025,5969.444444444444
-0.155,0.04,5972.222222222223
-0.15,0.03,5975.0
-0.145,0.025,5977.777777777777
-0.16,0.005,5980.555555555556
-0.175,0.015,5983.333333333333
-0.165,0.03,5986.111111111111
-0.15,0.05,5988.888888888889
-0.145,0.03,5991.666666666667
-0.14,0.03,5994.444444444444
-0.16,0.005,5997.222222222223
-0.16,0.02,6000.0
-0.165,0.03,6002.777777777777
-0.155,0.035,6005.555555555556
-0.135,0.025,6008.333333333333
-0.155,0.025,6011.111111111111
-0.16,0.015,6013.888888888889
-0.18,0.015,6016.666666666667
-0.175,0.015,6019.444444444444
-0.18,0.035,6022.222222222223
-0.16,0.03,6025.0
-0.17,0.02,6027.777777777777
-0.17,0.01,6030.555555555556
-0.18,0.015,6033.333333333333
-0.175,0.025,6036.111111111111
-0.16,0.025,6038.888888888889
-0.16,0.025,6041.666666666667
-0.175,0.02,6044.444444444444
-0.18,0.015,6047.222222222223
-0.205,0.01,6050.0
-0.2,0.015,6052.777777777777
-0.185,0.03,6055.555555555556
-0.17,0.035,6058.333333333333
-0.18,0.005,6061.111111111111
-0.19,0.0,6063.888888888889
-0.21,0.005,6066.666666666667
-0.205,0.015,6069.444444444444
-0.19,0.025,6072.222222222223
-0.18,0.02,6075.0
-0.17,0.015,6077.777777777777
-0.195,0.005,6080.555555555556
-0.205,0.0,6083.333333333333
-0.205,0.015,6086.111111111111
-0.205,0.02,6088.888888888889
-0.185,0.01,6091.666666666667
-0.19,0.015,6094.444444444444
-0.195,-0.005,6097.222222222223
-0.205,0.005,6100.0
-0.2,0.01,6102.777777777777
-0.195,0.025,6105.555555555556
-0.18,0.02,6108.333333333333
-0.19,0.005,6111.111111111111
-0.21,-0.01,6113.888888888889
-0.21,0.0,6116.666666666667
-0.205,0.0,6119.444444444444
-0.2,0.02,6122.222222222223
-0.185,0.015,6125.0
-0.185,0.01,6127.777777777777
-0.21,-0.015,6130.555555555556
-0.225,-0.015,6133.333333333333
-0.195,0.005,6136.111111111111
-0.19,0.015,6138.888888888889
-0.18,0.01,6141.666666666667
-0.195,0.015,6144.444444444444
-0.2,-0.01,6147.222222222223
-0.22,-0.005,6150.0
-0.21,0.005,6152.777777777777
-0.205,0.01,6155.555555555556
-0.19,0.0,6158.333333333333
-0.2,-0.005,6161.111111111111
-0.22,-0.01,6163.888888888889
-0.23,0.0,6166.666666666667
-0.22,0.0,6169.444444444444
-0.205,0.015,6172.222222222223
-0.19,0.025,6175.0
-0.2,-0.005,6177.777777777777
-0.21,-0.01,6180.555555555556
-0.22,-0.02,6183.333333333333
-0.225,0.0,6186.111111111111
-0.22,0.015,6188.888888888889
-0.21,0.01,6191.666666666667
-0.205,0.01,6194.444444444444
-0.215,-0.005,6197.222222222223
-0.225,-0.005,6200.0
-0.23,0.0,6202.777777777777
-0.205,0.015,6205.555555555556
-0.195,0.01,6208.333333333333
-0.21,-0.005,6211.111111111111
-0.21,-0.015,6213.888888888889
-0.235,-0.005,6216.666666666667
-0.22,0.01,6219.444444444444
-0.205,0.015,6222.222222222223
-0.215,0.025,6225.0
-0.23,0.015,6227.777777777777
-0.225,-0.01,6230.555555555556
-0.245,-0.01,6233.333333333333
-0.235,0.005,6236.111111111111
-0.215,0.015,6238.888888888889
-0.205,0.02,6241.666666666667
-0.215,0.0,6244.444444444444
-0.225,-0.005,6247.222222222223
-0.235,-0.005,6250.0
-0.24,0.01,6252.777777777777
-0.22,0.02,6255.555555555556
-0.2,0.01,6258.333333333333
-0.215,0.01,6261.111111111111
-0.23,0.0,6263.888888888889
-0.225,0.005,6266.666666666667
-0.225,0.005,6269.444444444444
-0.215,0.02,6272.222222222223
-0.2,0.02,6275.0
-0.21,0.01,6277.777777777777
-0.215,-0.01,6280.555555555556
-0.22,0.0,6283.333333333333
-0.225,0.015,6286.111111111111
-0.205,0.02,6288.888888888889
-0.2,0.025,6291.666666666667
-0.205,0.01,6294.444444444444
-0.205,0.0,6297.222222222223
-0.24,0.005,6300.0
-0.21,0.02,6302.777777777777
-0.205,0.045,6305.555555555556
-0.18,0.03,6308.333333333333
-0.175,0.02,6311.111111111111
-0.18,0.01,6313.888888888889
-0.185,0.035,6316.666666666667
-0.18,0.055,6319.444444444444
-0.165,0.065,6322.222222222223
-0.14,0.065,6325.0
-0.15,0.055,6327.777777777777
-0.165,0.045,6330.555555555556
-0.17,0.055,6333.333333333333
-0.16,0.07,6336.111111111111
-0.125,0.085,6338.888888888889
-0.12,0.085,6341.666666666667
-0.12,0.075,6344.444444444444
-0.14,0.07,6347.222222222223
-0.145,0.075,6350.0
-0.15,0.09,6352.777777777777
-0.145,0.095,6355.555555555556
-0.145,0.08,6358.333333333333
-0.15,0.055,6361.111111111111
-0.175,0.05,6363.888888888889
-0.195,0.045,6366.666666666667
-0.2,0.05,6369.444444444444
-0.195,0.075,6372.222222222223
-0.18,0.08,6375.0
-0.19,0.085,6377.777777777777
-0.205,0.05,6380.555555555556
-0.215,0.07,6383.333333333333
-0.2,0.06,6386.111111111111
-0.19,0.08,6388.888888888889
-0.16,0.075,6391.666666666667
-0.155,0.07,6394.444444444444
-0.175,0.06,6397.222222222223
-0.175,0.06,6400.0
-0.185,0.055,6402.777777777777
-0.16,0.055,6405.555555555556
-0.16,0.045,6408.333333333333
-0.19,0.02,6411.111111111111
-0.22,0.005,6413.888888888889
-0.225,0.01,6416.666666666667
-0.23,0.025,6419.444444444444
-0.215,0.035,6422.222222222223
-0.2,0.025,6425.0
-0.21,0.02,6427.777777777777
-0.21,0.005,6430.555555555556
-0.23,0.005,6433.333333333333
-0.24,0.015,6436.111111111111
-0.22,0.025,6438.888888888889
-0.215,0.02,6441.666666666667
-0.23,0.005,6444.444444444444
-0.255,-0.005,6447.222222222223
-0.25,0.0,6450.0
-0.24,0.015,6452.777777777777
-0.215,0.03,6455.555555555556
-0.21,0.015,6458.333333333333
-0.22,0.0,6461.111111111111
-0.235,-0.005,6463.888888888889
-0.245,-0.005,6466.666666666667
-0.235,0.025,6469.444444444444
-0.22,0.03,6472.222222222223
-0.21,0.015,6475.0
-0.215,0.005,6477.777777777777
-0.24,-0.005,6480.555555555556
-0.24,0.005,6483.333333333333
-0.245,0.02,6486.111111111111
-0.22,0.04,6488.888888888889
-0.21,0.03,6491.666666666667
-0.215,0.03,6494.444444444444
-0.24,0.035,6497.222222222223
-0.235,0.035,6500.0
-0.22,0.05,6502.777777777777
-0.21,0.08,6505.555555555556
-0.19,0.105,6508.333333333333
-0.19,0.14,6511.111111111111
-0.195,0.18,6513.888888888889
-0.175,0.245,6516.666666666667
-0.12,0.31,6519.444444444444
-0.075,0.38,6522.222222222223
-0.075,0.46,6525.0
-0.14,0.58,6527.777777777777
-0.215,0.74,6530.555555555556
-0.28,0.9,6533.333333333333
-0.32,1.09,6536.111111111111
-0.345,1.25,6538.888888888889
-0.415,1.39,6541.666666666667
-0.48,1.545,6544.444444444444
-0.5,1.74,6547.222222222223
-0.455,1.96,6550.0
-0.355,2.095,6552.777777777777
-0.205,2.065,6555.555555555556
-0.065,1.82,6558.333333333333
0.015,1.38,6561.111111111111
0.0,0.845,6563.888888888889
-0.14,0.41,6566.666666666667
-0.37,0.155,6569.444444444444
-0.575,0.035,6572.222222222223
-0.655,-0.02,6575.0
-0.645,-0.045,6577.777777777777
-0.615,-0.04,6580.555555555556
-0.55,-0.005,6583.333333333333
-0.435,0.0,6586.111111111111
-0.325,-0.005,6588.888888888889
-0.25,-0.01,6591.666666666667
-0.235,-0.02,6594.444444444444
-0.235,-0.04,6597.222222222223
-0.235,-0.05,6600.0
-0.23,-0.055,6602.777777777777
-0.21,-0.05,6605.555555555556
-0.21,-0.065,6608.333333333333
-0.185,-0.075,6611.111111111111
-0.2,-0.1,6613.888888888889
-0.205,-0.095,6616.666666666667
-0.19,-0.08,6619.444444444444
-0.18,-0.055,6622.222222222223
-0.165,-0.065,6625.0
-0.165,-0.08,6627.777777777777
-0.16,-0.1,6630.555555555556
-0.175,-0.09,6633.333333333333
-0.155,-0.085,6636.111111111111
-0.14,-0.08,6638.888888888889
-0.13,-0.075,6641.666666666667
-0.14,-0.085,6644.444444444444
-0.15,-0.09,6647.222222222223
-0.155,-0.1,6650.0
-0.14,-0.09,6652.777777777777
-0.125,-0.085,6655.555555555556
-0.12,-0.085,6658.333333333333
-0.14,-0.095,6661.111111111111
-0.145,-0.1,6663.888888888889
-0.14,-0.1,6666.666666666667
-0.14,-0.1,6669.444444444444
-0.12,-0.085,6672.222222222223
-0.115,-0.095,6675.0
-0.125,-0.11,6677.777777777777
-0.13,-0.125,6680.555555555556
-0.155,-0.115,6683.333333333333
-0.13,-0.095,6686.111111111111
-0.115,-0.075,6688.888888888889
-0.115,-0.085,6691.666666666667
-0.11,-0.105,6694.444444444444
-0.12,-0.12,6697.222222222223
-0.125,-0.12,6700.0
-0.115,-0.105,6702.777777777777
-0.115,-0.09,6705.555555555556
-0.095,-0.09,6708.333333333333
-0.1,-0.105,6711.111111111111
-0.11,-0.1,6713.888888888889
-0.12,-0.095,6716.666666666667
-0.11,-0.09,6719.444444444444
-0.105,-0.09,6722.222222222223
-0.085,-0.085,6725.0
-0.08,-0.1,6727.777777777777
-0.11,-0.11,6730.555555555556
-0.115,-0.095,6733.333333333333
-0.09,-0.09,6736.111111111111
-0.07,-0.065,6738.888888888889
-0.06,-0.08,6741.666666666667
-0.065,-0.085,6744.444444444444
-0.08,-0.1,6747.222222222223
-0.075,-0.085,6750.0
-0.07,-0.075,6752.777777777777
-0.04,-0.06,6755.555555555556
-0.035,-0.055,6758.333333333333
-0.045,-0.065,6761.111111111111
-0.06,-0.065,6763.888888888889
-0.07,-0.075,6766.666666666667
-0.045,-0.055,6769.444444444444
-0.035,-0.025,6772.222222222223
-0.03,-0.03,6775.0
-0.03,-0.03,6777.777777777777
-0.035,-0.03,6780.555555555556
-0.035,-0.02,6783.333333333333
-0.025,-0.005,6786.111111111111
-0.005,0.005,6788.888888888889
0.02,0.01,6791.666666666667
0.02,0.015,6794.444444444444
0.0,0.03,6797.222222222223
0.005,0.05,6800.0
0.015,0.06,6802.777777777777
0.03,0.095,6805.555555555556
0.06,0.095,6808.333333333333
0.055,0.105,6811.111111111111
0.045,0.115,6813.888888888889
0.05,0.14,6816.666666666667
0.055,0.17,6819.444444444444
0.075,0.2,6822.222222222223
0.09,0.2,6825.0
0.08,0.215,6827.777777777777
0.07,0.215,6830.555555555556
0.055,0.235,6833.333333333333
0.055,0.265,6836.111111111111
0.07,0.29,6838.888888888889
0.075,0.28,6841.666666666667
0.06,0.275,6844.444444444444
0.03,0.255,6847.222222222223
0.025,0.245,6850.0
0.005,0.255,6852.777777777777
0.015,0.25,6855.555555555556
0.015,0.245,6858.333333333333
-0.005,0.22,6861.111111111111
-0.025,0.185,6863.888888888889
-0.05,0.175,6866.666666666667
-0.065,0.165,6869.444444444444
-0.06,0.15,6872.222222222223
-0.07,0.14,6875.0
-0.09,0.12,6877.777777777777
-0.12,0.1,6880.555555555556
-0.135,0.1,6883.333333333333
-0.14,0.1,6886.111111111111
-0.145,0.095,6888.888888888889
-0.135,0.085,6891.666666666667
-0.15,0.075,6894.444444444444
-0.16,0.06,6897.222222222223
-0.165,0.065,6900.0
-0.17,0.065,6902.777777777777
-0.17,0.07,6905.555555555556
-0.16,0.07,6908.333333333333
-0.17,0.05,6911.111111111111
-0.185,0.035,6913.888888888889
-0.19,0.04,6916.666666666667
-0.19,0.06,6919.444444444444
-0.19,0.065,6922.222222222223
-0.185,0.055,6925.0
-0.18,0.04,6927.777777777777
-0.19,0.02,6930.555555555556
-0.195,0.04,6933.333333333333
-0.2,0.03,6936.111111111111
-0.185,0.04,6938.888888888889
-0.175,0.035,6941.666666666667
-0.185,0.015,6944.444444444444
-0.19,0.015,6947.222222222223
-0.21,0.02,6950.0
-0.21,0.02,6952.777777777777
-0.2,0.025,6955.555555555556
-0.2,0.015,6958.333333333333
-0.2,0.0,6961.111111111111
-0.205,0.0,6963.888888888889
-0.225,-0.005,6966.666666666667
-0.225,0.005,6969.444444444444
-0.2,0.025,6972.222222222223
-0.19,0.01,6975.0
-0.2,-0.005,6977.777777777777
-0.205,-0.03,6980.555555555556
-0.23,-0.025,6983.333333333333
-0.215,-0.005,6986.111111111111
-0.22,0.005,6988.888888888889
-0.195,0.0,6991.666666666667
-0.19,0.0,6994.444444444444
-0.215,-0.01,6997.222222222223
-0.23,-0.01,7000.0
-0.22,-0.005,7002.777777777777
-0.21,0.005,7005.555555555556
-0.19,0.01,7008.333333333333
-0.195,-0.005,7011.111111111111
-0.225,-0.015,7013.888888888889
-0.225,-0.005,7016.666666666667
-0.23,0.015,7019.444444444444
-0.2,0.015,7022.222222222223
-0.2,0.01,7025.0
-0.21,-0.005,7027.777777777777
-0.235,-0.005,7030.555555555556
-0.23,0.0,7033.333333333333
-0.22,0.01,7036.111111111111
-0.22,0.015,7038.888888888889
-0.2,0.025,7041.666666666667
-0.215,0.0,7044.444444444444
-0.225,-0.005,7047.222222222223
-0.25,-0.01,7050.0
-0.235,0.015,7052.777777777777
-0.225,0.03,7055.555555555556
-0.21,0.01,7058.333333333333
-0.195,-0.005,7061.111111111111
-0.225,0.0,7063.888888888889
-0.235,0.0,7066.666666666667
-0.225,0.0,7069.444444444444
-0.22,0.005,7072.222222222223
-0.225,0.005,7075.0
-0.21,-0.01,7077.777777777777
-0.23,-0.01,7080.555555555556
-0.24,-0.02,7083.333333333333
-0.23,0.0,7086.111111111111
-0.225,-0.005,7088.888888888889
-0.23,-0.01,7091.666666666667
-0.25,-0.015,7094.444444444444
-0.26,-0.015,7097.222222222223
-0.26,-0.02,7100.0
-0.25,0.0,7102.777777777777
-0.245,0.0,7105.555555555556
-0.23,-0.015,7108.333333333333
-0.245,-0.025,7111.111111111111
-0.255,-0.04,7113.888888888889
-0.27,-0.03,7116.666666666667
-0.27,-0.02,7119.444444444444
-0.25,0.0,7122.222222222223
-0.24,0.0,7125.0
-0.255,-0.015,7127.777777777777
-0.26,-0.025,7130.555555555556
-0.255,-0.01,7133.333333333333
-0.26,-0.015,7136.111111111111
-0.25,0.0,7138.888888888889
-0.24,-0.005,7141.666666666667
-0.26,-0.01,7144.444444444444
-0.265,-0.03,7147.222222222223
-0.28,-0.01,7150.0
-0.255,-0.015,7152.777777777777
-0.255,-0.005,7155.555555555556
-0.25,-0.01,7158.333333333333
-0.25,-0.025,7161.111111111111
-0.26,-0.05,7163.888888888889
-0.28,-0.025,7166.666666666667
-0.275,-0.03,7169.444444444444
-0.26,0.0,7172.222222222223
-0.25,-0.005,7175.0
-0.255,-0.03,7177.777777777777
-0.29,-0.035,7180.555555555556
-0.28,-0.03,7183.333333333333
-0.28,-0.025,7186.111111111111
-0.26,-0.005,7188.888888888889
-0.25,-0.015,7191.666666666667
-0.25,-0.015,7194.444444444444
-0.27,-0.04,7197.222222222223
-0.275,-0.02,7200.0
-0.27,-0.025,7202.777777777777
-0.255,-0.02,7205.555555555556
-0.255,-0.02,7208.333333333333
-0.25,-0.015,7211.111111111111
-0.28,-0.02,7213.888888888889
-0.285,-0.025,7216.666666666667
-0.27,-0.01,7219.444444444444
-0.265,0.0,7222.222222222223
-0.255,-0.015,7225.0
-0.265,-0.035,7227.777777777777
-0.28,-0.04,7230.555555555556
-0.28,-0.035,7233.333333333333
-0.29,-0.02,7236.111111111111
-0.26,-0.015,7238.888888888889
-0.26,-0.015,7241.666666666667
-0.265,-0.03,7244.444444444444
-0.275,-0.03,7247.222222222223
-0.29,-0.03,7250.0
-0.275,-0.015,7252.777777777777
-0.27,-0.02,7255.555555555556
-0.265,-0.015,7258.333333333333
-0.27,-0.025,7261.111111111111
-0.285,-0.035,7263.888888888889
-0.29,-0.03,7266.666666666667
-0.29,-0.03,7269.444444444444
-0.265,-0.005,7272.222222222223
-0.255,-0.01,7275.0
-0.265,-0.02,7277.777777777777
-0.285,-0.04,7280.555555555556
-0.285,-0.025,7283.333333333333
-0.28,-0.02,7286.111111111111
-0.27,-0.005,7288.888888888889
-0.265,-0.005,7291.666666666667
-0.26,-0.025,7294.444444444444
-0.28,-0.03,7297.222222222223
-0.285,-0.025,7300.0
-0.28,-0.025,7302.777777777777
-0.265,-0.01,7305.555555555556
-0.265,-0.02,7308.333333333333
-0.265,-0.025,7311.111111111111
-0.285,-0.035,7313.888888888889
-0.29,-0.025,7316.666666666667
-0.27,-0.02,7319.444444444444
-0.27,0.0,7322.222222222223
-0.26,-0.005,7325.0
-0.26,-0.03,7327.777777777777
-0.285,-0.03,7330.555555555556
-0.29,-0.025,7333.333333333333
-0.275,-0.01,7336.111111111111
-0.265,0.0,7338.888888888889
-0.26,-0.015,7341.666666666667
-0.255,-0.025,7344.444444444444
-0.275,-0.04,7347.222222222223
-0.285,-0.025,7350.0
-0.26,-0.015,7352.777777777777
-0.245,0.005,7355.555555555556
-0.23,0.005,7358.333333333333
-0.22,0.005,7361.111111111111
-0.23,0.005,7363.888888888889
-0.24,0.005,7366.666666666667
-0.235,0.025,7369.444444444444
-0.22,0.03,7372.222222222223
-0.21,0.03,7375.0
-0.215,0.02,7377.777777777777
-0.225,0.02,7380.555555555556
-0.22,0.025,7383.333333333333
-0.205,0.035,7386.111111111111
-0.195,0.04,7388.888888888889
-0.195,0.04,7391.666666666667
-0.195,0.025,7394.444444444444
-0.205,0.015,7397.222222222223
-0.215,0.02,7400.0
-0.21,0.02,7402.777777777777
-0.2,0.025,7405.555555555556
-0.195,0.015,7408.333333333333
-0.225,0.01,7411.111111111111
-0.25,0.0,7413.888888888889
-0.27,0.005,7416.666666666667
-0.26,0.015,7419.444444444444
-0.25,0.035,7422.222222222223
-0.235,0.025,7425.0
-0.235,0.02,7427.777777777777
-0.26,0.01,7430.555555555556
-0.265,0.03,7433.333333333333
-0.255,0.035,7436.111111111111
-0.24,0.04,7438.888888888889
-0.22,0.03,7441.666666666667
-0.235,0.015,7444.444444444444
-0.235,-0.01,7447.222222222223
-0.235,-0.02,7450.0
-0.235,-0.005,7452.777777777777
-0.23,-0.005,7455.555555555556
-0.24,-0.015,7458.333333333333
-0.25,-0.025,7461.111111111111
-0.29,-0.035,7463.888888888889
-0.31,-0.015,7466.666666666667
-0.295,-0.01,7469.444444444444
-0.275,-0.005,7472.222222222223
-0.275,-0.005,7475.0
-0.275,-0.015,7477.777777777777
-0.29,-0.03,7480.555555555556
-0.295,-0.02,7483.333333333333
-0.285,-0.015,7486.111111111111
-0.275,-0.015,7488.888888888889
-0.265,-0.025,7491.666666666667
-0.28,-0.02,7494.444444444444
-0.295,-0.035,7497.222222222223
-0.31,-0.035,7500.0
-0.3,-0.025,7502.777777777777
-0.285,-0.005,7505.555555555556
-0.285,-0.015,7508.333333333333
-0.285,-0.035,7511.111111111111
-0.295,-0.03,7513.888888888889
-0.315,-0.035,7516.666666666667
-0.3,-0.015,7519.444444444444
-0.29,-0.015,7522.222222222223
-0.275,-0.015,7525.0
-0.29,-0.025,7527.777777777777
-0.31,-0.045,7530.555555555556
-0.3,-0.02,7533.333333333333
-0.29,-0.015,7536.111111111111
-0.28,0.01,7538.888888888889
-0.27,0.01,7541.666666666667
-0.275,0.0,7544.444444444444
-0.285,-0.02,7547.222222222223
-0.285,-0.015,7550.0
-0.285,0.015,7552.777777777777
-0.28,0.025,7555.555555555556
-0.255,0.02,7558.333333333333
-0.27,0.025,7561.111111111111
-0.275,0.035,7563.888888888889
-0.28,0.06,7566.666666666667
-0.265,0.115,7569.444444444444
-0.225,0.145,7572.222222222223
-0.215,0.175,7575.0
-0.18,0.235,7577.777777777777
-0.17,0.265,7580.555555555556
-0.17,0.29,7583.333333333333
-0.165,0.37,7586.111111111111
-0.19,0.465,7588.888888888889
-0.25,0.585,7591.666666666667
-0.31,0.7,7594.444444444444
-0.355,0.82,7597.222222222223
-0.41,0.96,7600.0
-0.46,1.11,7602.777777777777
-0.54,1.26,7605.555555555556
-0.61,1.385,7608.333333333333
-0.64,1.52,7611.111111111111
-0.63,1.695,7613.888888888889
-0.57,1.875,7616.666666666667
-0.48,2.0,7619.444444444444
-0.345,2.025,7622.222222222223
-0.21,1.86,7625.0
-0.095,1.52,7627.777777777777
-0.065,1.06,7630.555555555556
-0.11,0.615,7633.333333333333
-0.265,0.315,7636.111111111111
-0.46,0.135,7638.888888888889
-0.605,0.02,7641.666666666667
-0.655,-0.04,7644.444444444444
-0.655,-0.04,7647.222222222223
-0.63,-0.03,7650.0
-0.53,-0.01,7652.777777777777
-0.425,-0.005,7655.555555555556
-0.345,-0.02,7658.333333333333
-0.3,-0.03,7661.111111111111
-0.29,-0.05,7663.888888888889
-0.285,-0.06,7666.666666666667
-0.28,-0.06,7669.444444444444
-0.26,-0.065,7672.222222222223
-0.245,-0.095,7675.0
-0.26,-0.105,7677.777777777777
-0.265,-0.12,7680.555555555556
-0.26,-0.12,7683.333333333333
-0.255,-0.105,7686.111111111111
-0.235,-0.09,7688.888888888889
-0.22,-0.1,7691.666666666667
-0.205,-0.12,7694.444444444444
-0.235,-0.14,7697.222222222223
-0.235,-0.125,7700.0
-0.215,-0.115,7702.777777777777
-0.205,-0.1,7705.555555555556
-0.2,-0.1,7708.333333333333
-0.19,-0.12,7711.111111111111
-0.205,-0.14,7713.888888888889
-0.195,-0.135,7716.666666666667
-0.2,-0.11,7719.444444444444
-0.205,-0.095,7722.222222222223
-0.19,-0.11,7725.0
-0.195,-0.115,7727.777777777777
-0.195,-0.125,7730.555555555556
-0.2,-0.125,7733.333333333333
-0.19,-0.12,7736.111111111111
-0.195,-0.1,7738.888888888889
-0.17,-0.115,7741.666666666667
-0.18,-0.135,7744.444444444444
-0.185,-0.14,7747.222222222223
-0.215,-0.145,7750.0
-0.205,-0.12,7752.777777777777
-0.185,-0.105,7755.555555555556
-0.175,-0.13,7758.333333333333
-0.185,-0.15,7761.111111111111
-0.195,-0.15,7763.888888888889
-0.19,-0.145,7766.666666666667
-0.205,-0.13,7769.444444444444
-0.18,-0.105,7772.222222222223
-0.165,-0.12,7775.0
-0.185,-0.145,7777.777777777777
-0.19,-0.15,7780.555555555556
-0.19,-0.135,7783.333333333333
-0.205,-0.13,7786.111111111111
-0.175,-0.12,7788.888888888889
-0.165,-0.135,7791.666666666667
-0.18,-0.13,7794.444444444444
-0.175,-0.145,7797.222222222223
-0.185,-0.14,7800.0
-0.17,-0.135,7802.777777777777
-0.16,-0.12,7805.555555555556
-0.15,-0.115,7808.333333333333
-0.16,-0.13,7811.111111111111
-0.16,-0.14,7813.888888888889
-0.165,-0.13,7816.666666666667
-0.15,-0.135,7819.444444444444
-0.145,-0.125,7822.222222222223
-0.14,-0.13,7825.0
-0.165,-0.14,7827.777777777777
-0.16,-0.125,7830.555555555556
-0.17,-0.12,7833.333333333333
-0.16,-0.115,7836.111111111111
-0.135,-0.1,7838.888888888889
-0.135,-0.12,7841.666666666667
-0.13,-0.125,7844.444444444444
-0.14,-0.135,7847.222222222223
-0.135,-0.135,7850.0
-0.13,-0.115,7852.777777777777
-0.13,-0.095,7855.555555555556
-0.105,-0.09,7858.333333333333
-0.11,-0.105,7861.111111111111
-0.12,-0.11,7863.888888888889
-0.125,-0.11,7866.666666666667
-0.11,-0.095,7869.444444444444
-0.09,-0.085,7872.222222222223
-0.09,-0.08,7875.0
-0.095,-0.09,7877.777777777777
-0.105,-0.1,7880.555555555556
-0.1,-0.075,7883.333333333333
-0.085,-0.065,7886.111111111111
-0.07,-0.035,7888.888888888889
-0.065,-0.055,7891.666666666667
-0.06,-0.055,7894.444444444444
-0.075,-0.05,7897.222222222223
-0.075,-0.04,7900.0
-0.065,-0.02,7902.777777777777
-0.045,0.015,7905.555555555556
-0.03,0.015,7908.333333333333
-0.035,0.02,7911.111111111111
-0.04,0.025,7913.888888888889
-0.045,0.04,7916.666666666667
-0.035,0.06,7919.444444444444
-0.02,0.1,7922.222222222223
0.0,0.1,7925.0
-0.01,0.11,7927.777777777777
-0.01,0.125,7930.555555555556
-0.02,0.135,7933.333333333333
-0.01,0.17,7936.111111111111
0.005,0.19,7938.888888888889
0.015,0.2,7941.666666666667
0.0,0.195,7944.444444444444
0.0,0.195,7947.222222222223
-0.01,0.205,7950.0
-0.005,0.23,7952.777777777777
0.0,0.25,7955.555555555556
0.0,0.245,7958.333333333333
-0.005,0.23,7961.111111111111
-0.015,0.235,7963.888888888889
-0.04,0.235,7966.666666666667
-0.04,0.22,7969.444444444444
-0.05,0.24,7972.222222222223
-0.05,0.205,7975.0
-0.065,0.195,7977.777777777777
-0.09,0.17,7980.555555555556
-0.1,0.175,7983.333333333333
-0.115,0.175,7986.111111111111
-0.105,0.17,7988.888888888889
-0.11,0.16,7991.666666666667
-0.125,0.14,7994.444444444444
-0.135,0.115,7997.222222222223
-0.155,0.11,8000.0
-0.15,0.1,8002.777777777777
-0.145,0.125,8005.555555555556
-0.14,0.11,8008.333333333333
-0.16,0.09,8011.111111111111
-0.18,0.07,8013.888888888889
-0.185,0.075,8016.666666666667
-0.2,0.095,8019.444444444444
-0.17,0.1,8022.222222222223
-0.165,0.085,8025.0
-0.17,0.065,8027.777777777777
-0.195,0.07,8030.555555555556
-0.2,0.055,8033.333333333333
-0.195,0.085,8036.111111111111
-0.185,0.085,8038.888888888889
-0.18,0.065,8041.666666666667
-0.185,0.06,8044.444444444444
-0.225,0.05,8047.222222222223
-0.22,0.055,8050.0
-0.215,0.075,8052.777777777777
-0.2,0.07,8055.555555555556
-0.19,0.075,8058.333333333333
-0.21,0.07,8061.111111111111
-0.215,0.05,8063.888888888889
-0.225,0.055,8066.666666666667
-0.225,0.07,8069.444444444444
-0.21,0.065,8072.222222222223
-0.195,0.06,8075.0
-0.21,0.055,8077.777777777777
-0.22,0.045,8080.555555555556
-0.225,0.035,8083.333333333333
-0.22,0.065,8086.111111111111
-0.205,0.075,8088.888888888889
-0.2,0.055,8091.666666666667
-0.21,0.055,8094.444444444444
-0.22,0.025,8097.222222222223
-0.24,0.035,8100.0
-0.23,0.035,8102.777777777777
-0.2,0.045,8105.555555555556
-0.2,0.04,8108.333333333333
-0.215,0.025,8111.111111111111
-0.22,0.015,8113.888888888889
-0.225,0.02,8116.666666666667
-0.215,0.025,8119.444444444444
-0.19,0.03,8122.222222222223
-0.205,0.025,8125.0
-0.2,0.02,8127.777777777777
-0.21,0.015,8130.555555555556
-0.225,0.025,8133.333333333333
-0.21,0.03,8136.111111111111
-0.195,0.035,8138.888888888889
-0.195,0.03,8141.666666666667
-0.2,0.02,8144.444444444444
-0.21,0.01,8147.222222222223
-0.235,0.005,8150.0
-0.23,0.015,8152.777777777777
-0.2,0.04,8155.555555555556
-0.185,0.035,8158.333333333333
-0.205,0.035,8161.111111111111
-0.21,0.025,8163.888888888889
-0.215,0.025,8166.666666666667
-0.21,0.04,8169.444444444444
-0.2,0.04,8172.222222222223
-0.19,0.035,8175.0
-0.19,0.02,8177.777777777777
-0.205,0.01,8180.555555555556
-0.22,0.025,8183.333333333333
-0.205,0.04,8186.111111111111
-0.185,0.05,8188.888888888889
-0.185,0.05,8191.666666666667
-0.19,0.04,8194.444444444445
-0.215,0.025,8197.222222222223
-0.225,0.025,8200.0
-0.2,0.035,8202.777777777777
-0.185,0.045,8205.555555555555
-0.185,0.025,8208.333333333334
-0.19,0.02,8211.111111111111
-0.2,0.01,8213.888888888889
-0.21,0.03,8216.666666666666
-0.205,0.03,8219.444444444445
-0.185,0.035,8222.222222222223
-0.19,0.035,8225.0
-0.195,0.03,8227.777777777777
-0.205,0.02,8230.555555555555
-0.21,0.03,8233.333333333334
-0.2,0.035,8236.111111111111
-0.205,0.045,8238.888888888889
-0.2,0.045,8241.666666666666
-0.195,0.03,8244.444444444445
-0.22,0.03,8247.222222222223
-0.225,0.01,8250.0
-0.235,0.025,8252.777777777777
-0.225,0.045,8255.555555555555
-0.215,0.045,8258.333333333334
-0.22,0.025,8261.111111111111
-0.22,0.015,8263.888888888889
-0.225,0.015,8266.666666666666
-0.225,0.02,8269.444444444445
-0.205,0.025,8272.222222222223
-0.21,0.03,8275.0
-0.21,0.025,8277.777777777777
-0.24,0.005,8280.555555555555
-0.24,0.02,8283.333333333334
-0.235,0.03,8286.111111111111
-0.21,0.04,8288.888888888889
-0.21,0.03,8291.666666666666
-0.21,0.02,8294.444444444445
-0.225,-0.005,8297.222222222223
-0.24,-0.005,8300.0
-0.225,0.02,8302.777777777777
-0.21,0.025,8305.555555555555
-0.215,0.02,8308.333333333334
-0.22,0.015,8311.111111111111
-0.23,-0.005,8313.888888888889
-0.24,0.0,8316.666666666666
-0.225,0.02,8319.444444444445
-0.23,0.03,8322.222222222223
-0.205,0.025,8325.0
-0.22,0.01,8327.777777777777
-0.25,0.015,8330.555555555555
-0.245,0.01,8333.333333333334
-0.23,0.015,8336.111111111111
-0.22,0.035,8338.888888888889
-0.2,0.02,8341.666666666666
-0.215,0.0,8344.444444444445
-0.23,0.005,8347.222222222223
-0.245,0.0,8350.0
-0.235,0.015,8352.777777777777
-0.215,0.03,8355.555555555555
-0.21,0.035,8358.333333333334
-0.225,0.025,8361.111111111111
-0.225,0.005,8363.888888888889
-0.23,0.005,8366.666666666666
-0.235,0.015,8369.444444444445
-0.205,0.02,8372.222222222223
-0.22,0.025,8375.0
-0.22,0.01,8377.777777777777
-0.24,0.01,8380.555555555555
-0.235,0.01,8383.333333333334
-0.245,0.015,8386.111111111111
-0.215,0.03,8388.888888888889
-0.205,0.02,8391.666666666666
-0.22,0.01,8394.444444444445
-0.255,0.0,8397.222222222223
-0.25,0.015,8400.0
-0.235,0.015,8402.777777777777
-0.215,0.035,8405.555555555555
-0.22,0.01,8408.333333333334
-0.225,0.02,8411.111111111111
-0.23,-0.01,8413.888888888889
-0.235,0.01,8416.666666666666
-0.23,0.03,8419.444444444445
-0.215,0.03,8422.222222222223
-0.22,0.025,8425.0
-0.22,0.01,8427.777777777777
-0.235,0.005,8430.555555555555
-0.24,0.005,8433.333333333334
-0.225,0.02,8436.111111111111
-0.215,0.015,8438.888888888889
-0.215,0.03,8441.666666666666
-0.21,0.025,8444.444444444445
-0.225,0.02,8447.222222222223
-0.215,0.02,8450.0
-0.23,0.04,8452.777777777777
-0.205,0.035,8455.555555555555
-0.195,0.04,8458.333333333334
-0.205,0.01,8461.111111111111
-0.23,0.015,8463.888888888889
-0.245,0.025,8466.666666666666
-0.21,0.04,8469.444444444445
-0.21,0.05,8472.222222222223
-0.2,0.03,8475.0
-0.2,0.01,8477.777777777777
-0.225,0.005,8480.555555555555
-0.22,0.02,8483.333333333334
-0.22,0.015,8486.111111111111
-0.195,0.035,8488.888888888889
-0.195,0.035,8491.666666666666
-0.2,0.025,8494.444444444445
-0.21,0.005,8497.222222222223
-0.215,0.025,8500.0
-0.21,0.035,8502.777777777777
-0.195,0.04,8505.555555555555
-0.19,0.03,8508.333333333334
-0.205,0.02,8511.111111111111
-0.22,0.015,8513.888888888889
-0.225,0.025,8516.666666666666
-0.21,0.035,8519.444444444445
-0.195,0.06,8522.222222222223
-0.185,0.045,8525.0
-0.19,0.035,8527.777777777777
-0.2,0.03,8530.555555555555
-0.19,0.03,8533.333333333334
-0.19,0.045,8536.111111111111
-0.17,0.06,8538.888888888889
-0.16,0.07,8541.666666666666
-0.17,0.055,8544.444444444445
-0.16,0.06,8547.222222222223
-0.165,0.065,8550.0
-0.185,0.08,8552.777777777777
-0.15,0.085,8555.555555555555
-0.14,0.09,8558.333333333334
-0.14,0.085,8561.111111111111
-0.145,0.065,8563.888888888889
-0.13,0.08,8566.666666666666
-0.13,0.095,8569.444444444445
-0.13,0.095,8572.222222222223
-0.125,0.095,8575.0
-0.135,0.08,8577.777777777777
-0.145,0.075,8580.555555555555
-0.17,0.07,8583.333333333334
-0.165,0.065,8586.111111111111
-0.165,0.08,8588.888888888889
-0.175,0.08,8591.666666666666
-0.18,0.055,8594.444444444445
-0.195,0.04,8597.222222222223
-0.2,0.055,8600.0
-0.195,0.07,8602.777777777777
-0.175,0.08,8605.555555555555
-0.17,0.07,8608.333333333334
-0.19,0.065,8611.111111111111
-0.195,0.075,8613.888888888889
-0.19,0.07,8616.666666666666
-0.18,0.07,8619.444444444445
-0.155,0.095,8622.222222222223
-0.15,0.08,8625.0
-0.155,0.065,8627.777777777777
-0.16,0.035,8630.555555555555
-0.18,0.045,8633.333333333334
-0.175,0.045,8636.111111111111
-0.165,0.055,8638.888888888889
-0.195,0.04,8641.666666666666
-0.205,0.04,8644.444444444445
-0.21,0.015,8647.222222222223
-0.23,0.015,8650.0
-0.21,0.03,8652.777777777777
-0.21,0.04,8655.555555555555
-0.2,0.035,8658.333333333334
-0.2,0.03,8661.111111111111
-0.215,0.01,8663.888888888889
-0.215,0.02,8666.666666666666
-0.225,0.03,8669.444444444445
-0.19,0.04,8672.222222222223
-0.195,0.035,8675.0
-0.2,0.02,8677.777777777777
-0.225,0.01,8680.555555555555
-0.23,0.015,8683.333333333334
-0.215,0.03,8686.111111111111
-0.205,0.04,8688.888888888889
-0.2,0.02,8691.666666666666
-0.205,0.025,8694.444444444445
-0.22,-0.01,8697.222222222223
-0.23,0.015,8700.0
-0.225,0.015,8702.777777777777
-0.205,0.03,8705.555555555555
-0.22,0.035,8708.333333333334
-0.225,0.025,8711.111111111111
-0.235,0.0,8713.888888888889
-0.25,0.0,8716.666666666666
-0.22,0.015,8719.444444444445
-0.2,0.03,8722.222222222223
-0.195,0.02,8725.0
-0.2,0.015,8727.777777777777
-0.22,0.015,8730.555555555555
-0.215,0.02,8733.333333333334
-0.215,0.045,8736.111111111111
-0.185,0.065,8738.888888888889
-0.175,0.07,8741.666666666666
-0.185,0.075,8744.444444444445
-0.195,0.095,8747.222222222223
-0.18,0.13,8750.0
-0.16,0.185,8752.777777777777
-0.13,0.255,8755.555555555555
-0.115,0.31,8758.333333333334
-0.085,0.35,8761.111111111111
-0.11,0.4,8763.888888888889
-0.165,0.52,8766.666666666666
-0.235,0.66,8769.444444444445
-0.28,0.83,8772.222222222223
-0.325,0.995,8775.0
-0.355,1.14,8777.777777777777
-0.435,1.29,8780.555555555555
-0.505,1.455,8783.333333333334
-0.55,1.64,8786.111111111111
-0.54,1.835,8788.888888888889
-0.49,2.045,8791.666666666666
-0.415,2.205,8794.444444444445
-0.31,2.24,8797.222222222223
-0.2,2.175,8800.0
-0.075,1.965,8802.777777777777
0.005,1.635,8805.555555555555
0.03,1.225,8808.333333333334
-0.045,0.8,8811.111111111111
-0.205,0.475,8813.888888888889
-0.39,0.245,8816.666666666666
-0.525,0.095,8819.444444444445
-0.575,0.025,8822.222222222223
-0.575,-0.005,8825.0
-0.56,0.0,8827.777777777777
-0.52,-0.01,8830.555555555555
-0.425,0.0,8833.333333333334
-0.32,0.01,8836.111111111111
-0.23,0.005,8838.888888888889
-0.21,0.0,8841.666666666666
-0.2,-0.04,8844.444444444445
-0.2,-0.05,8847.222222222223
-0.19,-0.075,8850.0
-0.18,-0.07,8852.777777777777
-0.155,-0.065,8855.555555555555
-0.145,-0.08,8858.333333333334
-0.15,-0.085,8861.111111111111
-0.15,-0.105,8863.888888888889
-0.155,-0.095,8866.666666666666
-0.145,-0.085,8869.444444444445
-0.12,-0.08,8872.222222222223
-0.125,-0.085,8875.0
-0.12,-0.1,8877.777777777777
-0.13,-0.11,8880.555555555555
-0.14,-0.12,8883.333333333334
-0.13,-0.09,8886.111111111111
-0.1,-0.085,8888.888888888889
-0.09,-0.09,8891.666666666666
-0.11,-0.105,8894.444444444445
-0.11,-0.11,8897.222222222223
-0.12,-0.12,8900.0
-0.115,-0.11,8902.777777777777
-0.1,-0.09,8905.555555555555
-0.09,-0.105,8908.333333333334
-0.11,-0.11,8911.111111111111
-0.11,-0.125,8913.888888888889
-0.115,-0.125,8916.666666666666
-0.115,-0.125,8919.444444444445
-0.11,-0.12,8922.222222222223
-0.09,-0.125,8925.0
-0.095,-0.135,8927.777777777777
-0.105,-0.145,8930.555555555555
-0.105,-0.15,8933.333333333334
-0.08,-0.125,8936.111111111111
-0.08,-0.12,8938.888888888889
-0.065,-0.125,8941.666666666666
-0.07,-0.135,8944.444444444445
-0.095,-0.165,8947.222222222223
-0.105,-0.15,8950.0
-0.075,-0.135,8952.777777777777
-0.065,-0.12,8955.555555555555
-0.055,-0.13,8958.333333333334
-0.075,-0.145,8961.111111111111
-0.08,-0.145,8963.888888888889
-0.08,-0.145,8966.666666666666
-0.075,-0.13,8969.444444444445
-0.06,-0.13,8972.222222222223
-0.045,-0.135,8975.0
-0.06,-0.14,8977.777777777777
-0.07,-0.15,8980.555555555555
-0.075,-0.13,8983.333333333334
-0.07,-0.125,8986.111111111111
-0.045,-0.125,8988.888888888889
-0.05,-0.125,8991.666666666666
-0.05,-0.15,8994.444444444445
-0.05,-0.155,8997.222222222223
-0.05,-0.14,9000.0
-0.04,-0.13,9002.777777777777
-0.015,-0.115,9005.555555555555
-0.01,-0.12,9008.333333333334
-0.005,-0.13,9011.111111111111
-0.025,-0.14,9013.888888888889
-0.04,-0.135,9016.666666666666
-0.02,-0.115,9019.444444444445
0.005,-0.105,9022.222222222223
0.015,-0.095,9025.0
0.015,-0.105,9027.777777777777
0.005,-0.115,9030.555555555555
0.005,-0.11,9033.333333333334
0.025,-0.085,9036.111111111111
0.04,-0.08,9038.888888888889
0.05,-0.085,9041.666666666666
0.045,-0.095,9044.444444444445
0.03,-0.095,9047.222222222223
0.03,-0.07,9050.0
0.05,-0.05,9052.777777777777
0.05,-0.035,9055.555555555555
0.07,-0.025,9058.333333333334
0.065,-0.025,9061.111111111111
0.08,-0.03,9063.888888888889
0.08,-0.005,9066.666666666666
0.1,0.03,9069.444444444445
0.12,0.055,9072.222222222223
0.12,0.06,9075.0
0.105,0.065,9077.777777777777
0.11,0.075,9080.555555555555
0.105,0.1,9083.333333333334
0.12,0.13,9086.111111111111
0.145,0.17,9088.888888888889
0.14,0.17,9091.666666666666
0.13,0.17,9094.444444444445
0.135,0.185,9097.222222222223
0.14,0.195,9100.0
0.135,0.235,9102.777777777777
0.145,0.245,9105.555555555555
0.155,0.26,9108.333333333334
0.14,0.25,9111.111111111111
0.12,0.235,9113.888888888889
0.1,0.235,9116.666666666666
0.09,0.255,9119.444444444445
0.1,0.26,9122.222222222223
0.09,0.255,9125.0
0.08,0.215,9127.777777777777
0.06,0.19,9130.555555555555
0.03,0.195,9133.333333333334
0.03,0.19,9136.111111111111
0.04,0.185,9138.888888888889
0.025,0.19,9141.666666666666
0.005,0.16,9144.444444444445
-0.015,0.135,9147.222222222223
-0.025,0.125,9150.0
-0.035,0.125,9152.777777777777
-0.02,0.125,9155.555555555555
-0.035,0.11,9158.333333333334
-0.04,0.09,9161.111111111111
-0.065,0.085,9163.888888888889
-0.08,0.08,9166.666666666666
-0.07,0.085,9169.444444444445
-0.07,0.09,9172.222222222223
-0.05,0.065,9175.0
-0.07,0.07,9177.777777777777
-0.09,0.05,9180.555555555555
-0.095,0.05,9183.333333333334
-0.11,0.065,9186.111111111111
-0.08,0.075,9188.888888888889
-0.065,0.07,9191.666666666666
-0.085,0.07,9194.444444444445
-0.095,0.05,9197.222222222223
-0.11,0.06,9200.0
-0.1,0.06,9202.777777777777
-0.09,0.065,9205.555555555555
-0.08,0.065,9208.333333333334
-0.095,0.06,9211.111111111111
-0.115,0.035,9213.888888888889
-0.135,0.05,9216.666666666666
-0.125,0.06,9219.444444444445
-0.1,0.075,9222.222222222223
-0.1,0.06,9225.0
-0.1,0.055,9227.777777777777
-0.115,0.04,9230.555555555555
-0.115,0.05,9233.333333333334
-0.125,0.065,9236.111111111111
-0.115,0.065,9238.888888888889
-0.1,0.05,9241.666666666666
-0.11,0.045,9244.444444444445
-0.115,0.03,9247.222222222223
-0.12,0.03,9250.0
-0.12,0.05,9252.777777777777
-0.1,0.05,9255.555555555555
-0.095,0.04,9258.333333333334
-0.105,0.025,9261.111111111111
-0.13,0.02,9263.888888888889
-0.13,0.02,9266.666666666666
-0.135,0.04,9269.444444444445
-0.11,0.045,9272.222222222223
-0.1,0.04,9275.0
-0.12,0.03,9277.777777777777
-0.13,0.015,9280.555555555555
-0.125,0.03,9283.333333333334
-0.115,0.03,9286.111111111111
-0.105,0.04,9288.888888888889
-0.105,0.025,9291.666666666666
-0.125,0.015,9294.444444444445
-0.135,0.02,9297.222222222223
-0.13,0.01,9300.0
-0.13,0.035,9302.777777777777
-0.1,0.05,9305.555555555555
-0.105,0.045,9308.333333333334
-0.125,0.025,9311.111111111111
-0.125,0.015,9313.888888888889
-0.13,0.03,9316.666666666666
-0.13,0.045,9319.444444444445
-0.11,0.07,9322.222222222223
-0.105,0.065,9325.0
-0.11,0.05,9327.777777777777
-0.115,0.045,9330.555555555555
-0.12,0.04,9333.333333333334
-0.12,0.045,9336.111111111111
-0.105,0.065,9338.888888888889
-0.1,0.065,9341.666666666666
-0.11,0.055,9344.444444444445
-0.12,0.045,9347.222222222223
-0.125,0.055,9350.0
-0.115,0.07,9352.777777777777
-0.115,0.075,9355.555555555555
-0.11,0.055,9358.333333333334
-0.11,0.05,9361.111111111111
-0.14,0.05,9363.888888888889
-0.14,0.055,9366.666666666666
-0.135,0.07,9369.444444444445
-0.12,0.075,9372.222222222223
-0.12,0.065,9375.0
-0.13,0.055,9377.777777777777
-0.145,0.045,9380.555555555555
-0.155,0.045,9383.333333333334
-0.145,0.055,9386.111111111111
-0.115,0.07,9388.888888888889
-0.12,0.065,9391.666666666666
-0.125,0.05,9394.444444444445
-0.15,0.04,9397.222222222223
-0.155,0.035,9400.0
-0.14,0.055,9402.777777777777
-0.13,0.055,9405.555555555555
-0.125,0.055,9408.333333333334
-0.14,0.04,9411.111111111111
-0.155,0.035,9413.888888888889
-0.15,0.035,9416.666666666666
-0.15,0.05,9419.444444444445
-0.125,0.055,9422.222222222223
-0.135,0.04,9425.0
-0.16,0.035,9427.777777777777
-0.18,0.025,9430.555555555555
-0.175,0.035,9433.333333333334
-0.165,0.03,9436.111111111111
-0.155,0.04,9438.888888888889
-0.15,0.05,9441.666666666666
-0.165,0.03,9444.444444444445
-0.17,0.02,9447.222222222223
-0.175,0.025,9450.0
-0.17,0.035,9452.777777777777
-0.15,0.055,9455.555555555555
-0.155,0.035,9458.333333333334
-0.165,0.025,9461.111111111111
-0.18,0.025,9463.888888888889
-0.175,0.025,9466.666666666666
-0.165,0.04,9469.444444444445
-0.15,0.05,9472.222222222223
-0.16,0.035,9475.0
-0.155,0.03,9477.777777777777
-0.17,0.015,9480.555555555555
-0.17,0.025,9483.333333333334
-0.17,0.04,9486.111111111111
-0.16,0.04,9488.888888888889
-0.155,0.04,9491.666666666666
-0.165,0.025,9494.444444444445
-0.185,0.01,9497.222222222223
-0.17,0.02,9500.0
-0.165,0.035,9502.777777777777
-0.145,0.045,9505.555555555555
-0.16,0.04,9508.333333333334
-0.165,0.03,9511.111111111111
-0.175,0.01,9513.888888888889
-0.18,0.02,9516.666666666666
-0.19,0.035,9519.444444444445
-0.15,0.03,9522.222222222223
-0.155,0.03,9525.0
-0.16,0.015,9527.777777777777
-0.17,0.01,9530.555555555555
-0.185,0.015,9533.333333333334
-0.165,0.035,9536.111111111111
-0.16,0.055,9538.888888888889
-0.155,0.04,9541.666666666666
-0.16,0.035,9544.444444444445
-0.175,0.025,9547.222222222223
-0.18,0.03,9550.0
-0.175,0.035,9552.777777777777
-0.155,0.04,9555.555555555555
-0.16,0.035,9558.333333333334
-0.16,0.025,9561.111111111111
-0.175,0.02,9563.888888888889
-0.185,0.03,9566.666666666666
-0.175,0.045,9569.444444444445
-0.165,0.045,9572.222222222223
-0.17,0.05,9575.0
-0.18,0.03,9577.777777777777
-0.2,0.025,9580.555555555555
-0.19,0.02,9583.333333333334
-0.19,0.035,9586.111111111111
-0.17,0.06,9588.888888888889
-0.165,0.05,9591.666666666666
-0.165,0.03,9594.444444444445
-0.185,0.02,9597.222222222223
-0.195,0.035,9600.0
-0.175,0.045,9602.777777777777
-0.17,0.055,9605.555555555555
-0.16,0.055,9608.333333333334
-0.155,0.04,9611.111111111111
-0.17,0.035,9613.888888888889
-0.165,0.025,9616.666666666666
-0.175,0.035,9619.444444444445
-0.16,0.055,9622.222222222223
-0.14,0.05,9625.0
-0.16,0.035,9627.777777777777
-0.16,0.03,9630.555555555555
-0.155,0.045,9633.333333333334
-0.15,0.045,9636.111111111111
-0.155,0.07,9638.888888888889
-0.155,0.065,9641.666666666666
-0.155,0.04,9644.444444444445
-0.16,0.025,9647.222222222223
-0.17,0.045,9650.0
-0.16,0.06,9652.777777777777
-0.145,0.065,9655.555555555555
-0.14,0.065,9658.333333333334
-0.145,0.045,9661.111111111111
-0.165,0.035,9663.888888888889
-0.155,0.05,9666.666666666666
-0.13,0.055,9669.444444444445
-0.12,0.07,9672.222222222223
-0.115,0.08,9675.0
-0.11,0.07,9677.777777777777
-0.11,0.065,9680.555555555555
-0.12,0.085,9683.333333333334
-0.105,0.095,9686.111111111111
-0.085,0.09,9688.888888888889
-0.08,0.09,9691.666666666666
-0.075,0.085,9694.444444444445
-0.09,0.07,9697.222222222223
-0.09,0.09,9700.0
-0.085,0.12,9702.777777777777
-0.07,0.12,9705.555555555555
-0.08,0.12,9708.333333333334
-0.095,0.1,9711.111111111111
-0.11,0.075,9713.888888888889
-0.125,0.08,9716.666666666666
-0.125,0.085,9719.444444444445
-0.12,0.1,9722.222222222223
-0.13,0.08,9725.0
-0.155,0.075,9727.777777777777
-0.165,0.075,9730.555555555555
-0.175,0.075,9733.333333333334
-0.17,0.09,9736.111111111111
-0.135,0.1,9738.888888888889
-0.12,0.095,9741.666666666666
-0.15,0.09,9744.444444444445
-0.145,0.07,9747.222222222223
-0.14,0.085,9750.0
-0.14,0.1,9752.777777777777
-0.125,0.105,9755.555555555555
-0.1,0.1,9758.333333333334
-0.11,0.09,9761.111111111111
-0.125,0.08,9763.888888888889
-0.135,0.055,9766.666666666666
-0.14,0.07,9769.444444444445
-0.14,0.075,9772.222222222223
-0.155,0.075,9775.0
-0.17,0.05,9777.777777777777
-0.185,0.04,9780.555555555555
-0.195,0.045,9783.333333333334
-0.18,0.05,9786.111111111111
-0.18,0.055,9788.888888888889
-0.17,0.04,9791.666666666666
-0.175,0.04,9794.444444444445
-0.195,0.03,9797.222222222223
-0.185,0.04,9800.0
-0.18,0.05,9802.777777777777
-0.175,0.07,9805.555555555555
-0.165,0.065,9808.333333333334
-0.165,0.045,9811.111111111111
-0.18,0.035,9813.888888888889
-0.19,0.04,9816.666666666666
-0.18,0.05,9819.444444444445
-0.16,0.06,9822.222222222223
-0.165,0.05,9825.0
-0.165,0.03,9827.777777777777
-0.185,0.025,9830.555555555555
-0.185,0.035,9833.333333333334
-0.185,0.04,9836.111111111111
-0.17,0.06,9838.888888888889
-0.175,0.05,9841.666666666666
-0.185,0.035,9844.444444444445
-0.185,0.025,9847.222222222223
-0.19,0.04,9850.0
-0.19,0.065,9852.777777777777
-0.16,0.08,9855.555555555555
-0.145,0.07,9858.333333333334
-0.165,0.07,9861.111111111111
-0.175,0.07,9863.888888888889
-0.18,0.095,9866.666666666666
-0.17,0.13,9869.444444444445
-0.13,0.17,9872.222222222223
-0.13,0.22,9875.0
-0.095,0.265,9877.777777777777
-0.09,0.32,9880.555555555555
-0.065,0.39,9883.333333333334
-0.045,0.485,9886.111111111111
-0.08,0.6,9888.888888888889
-0.15,0.74,9891.666666666666
-0.215,0.915,9894.444444444445
-0.275,1.055,9897.222222222223
-0.315,1.225,9900.0
-0.39,1.395,9902.777777777777
-0.45,1.545,9905.555555555555
-0.475,1.73,9908.333333333334
-0.455,1.92,9911.111111111111
-0.38,2.11,9913.888888888889
-0.255,2.165,9916.666666666666
-0.12,2.075,9919.444444444445
0.02,1.78,9922.222222222223
0.105,1.295,9925.0
0.05,0.76,9927.777777777777
-0.135,0.355,9930.555555555555
-0.38,0.145,9933.333333333334
-0.545,0.05,9936.111111111111
-0.59,0.015,9938.888888888889
-0.565,0.015,9941.666666666666
-0.51,0.01,9944.444444444445
-0.435,0.025,9947.222222222223
-0.35,0.02,9950.0
-0.225,0.03,9952.777777777777
-0.16,0.02,9955.555555555555
-0.14,0.005,9958.333333333334
-0.145,-0.015,9961.111111111111
-0.145,-0.04,9963.888888888889
-0.145,-0.04,9966.666666666666
-0.14,-0.04,9969.444444444445
-0.125,-0.025,9972.222222222223
-0.125,-0.045,9975.0
-0.11,-0.055,9977.777777777777
-0.13,-0.055,9980.555555555555
-0.11,-0.055,9983.333333333334
-0.12,-0.045,9986.111111111111
-0.095,-0.045,9988.888888888889
-0.095,-0.05,9991.666666666666
-0.095,-0.065,9994.444444444445
-0.1,-0.08,9997.222222222223
-0.105,-0.05,10000.0
-0.08,-0.04,10002.777777777777
-0.065,-0.035,10005.555555555555
-0.065,-0.045,10008.333333333334
-0.08,-0.075,10011.111111111111
-0.09,-0.08,10013.888888888889
-0.095,-0.075,10016.666666666666
-0.08,-0.06,10019.444444444445
-0.08,-0.05,10022.222222222223
-0.075,-0.075,10025.0
-0.07,-0.075,10027.777777777777
-0.085,-0.1,10030.555555555555
-0.09,-0.085,10033.333333333334
-0.085,-0.07,10036.111111111111
-0.07,-0.055,10038.888888888889
-0.055,-0.08,10041.666666666666
-0.065,-0.085,10044.444444444445
-0.07,-0.095,10047.222222222223
-0.075,-0.08,10050.0
-0.06,-0.065,10052.777777777777
-0.045,-0.07,10055.555555555555
-0.06,-0.075,10058.333333333334
-0.07,-0.095,10061.111111111111
-0.08,-0.105,10063.888888888889
-0.075,-0.085,10066.666666666666
-0.06,-0.08,10069.444444444445
-0.05,-0.065,10072.222222222223
-0.045,-0.075,10075.0
-0.055,-0.095,10077.777777777777
-0.07,-0.1,10080.555555555555
-0.075,-0.095,10083.333333333334
-0.035,-0.09,10086.111111111111
-0.025,-0.08,10088.888888888889
-0.03,-0.08,10091.666666666666
-0.05,-0.09,10094.444444444445
-0.055,-0.095,10097.222222222223
-0.05,-0.085,10100.0
-0.025,-0.075,10102.777777777777
-0.025,-0.065,10105.555555555555
-0.02,-0.07,10108.333333333334
-0.03,-0.09,10111.111111111111
-0.04,-0.085,10113.888888888889
-0.03,-0.085,10116.666666666666
-0.03,-0.07,10119.444444444445
-0.01,-0.05,10122.222222222223
-0.01,-0.06,10125.0
0.005,-0.075,10127.777777777777
-0.005,-0.08,10130.555555555555
-0.005,-0.055,10133.333333333334
0.01,-0.04,10136.111111111111
0.025,-0.03,10138.888888888889
0.035,-0.025,10141.666666666666
0.03,-0.045,10144.444444444445
0.035,-0.05,10147.222222222223
0.015,-0.02,10150.0
0.04,0.015,10152.777777777777
0.07,0.015,10155.555555555555
0.085,0.04,10158.333333333334
0.075,0.035,10161.111111111111
0.065,0.045,10163.888888888889
0.065,0.055,10166.666666666666
0.09,0.1,10169.444444444445
0.125,0.115,10172.222222222223
0.115,0.13,10175.0
0.125,0.125,10177.777777777777
0.12,0.135,10180.555555555555
0.115,0.165,10183.333333333334
0.125,0.195,10186.111111111111
0.14,0.225,10188.888888888889
0.165,0.23,10191.666666666666
0.15,0.24,10194.444444444445
0.15,0.245,10197.222222222223
0.15,0.255,10200.0
0.15,0.28,10202.777777777777
0.155,0.28,10205.555555555555
0.155,0.275,10208.333333333334
0.13,0.25,10211.111111111111
0.11,0.255,10213.888888888889
0.105,0.25,10216.666666666666
0.105,0.255,10219.444444444445
0.1,0.27,10222.222222222223
0.105,0.245,10225.0
0.08,0.225,10227.777777777777
0.045,0.22,10230.555555555555
0.035,0.195,10233.333333333334
0.035,0.195,10236.111111111111
0.045,0.195,10238.888888888889
0.04,0.17,10241.666666666666
0.025,0.15,10244.444444444445
-0.005,0.13,10247.222222222223
-0.015,0.13,10250.0
-0.01,0.13,10252.777777777777
-0.01,0.135,10255.555555555555
-0.015,0.105,10258.333333333334
-0.03,0.095,10261.111111111111
-0.06,0.07,10263.888888888889
-0.07,0.065,10266.666666666666
-0.07,0.085,10269.444444444445
-0.045,0.11,10272.222222222223
-0.055,0.085,10275.0
-0.065,0.065,10277.777777777777
-0.085,0.05,10280.555555555555
-0.09,0.06,10283.333333333334
-0.075,0.065,10286.111111111111
-0.07,0.07,10288.888888888889
-0.075,0.075,10291.666666666666
-0.085,0.05,10294.444444444445
-0.105,0.04,10297.222222222223
-0.115,0.045,10300.0
-0.095,0.06,10302.777777777777
-0.09,0.07,10305.555555555555
-0.095,0.07,10308.333333333334
-0.11,0.045,10311.111111111111
-0.12,0.03,10313.888888888889
-0.115,0.04,10316.666666666666
-0.105,0.045,10319.444444444445
-0.085,0.055,10322.222222222223
-0.08,0.055,10325.0
-0.09,0.045,10327.777777777777
-0.105,0.04,10330.555555555555
-0.11,0.04,10333.333333333334
-0.095,0.045,10336.111111111111
-0.1,0.045,10338.888888888889
-0.095,0.05,10341.666666666666
-0.1,0.03,10344.444444444445
-0.13,0.015,10347.222222222223
-0.15,0.03,10350.0
-0.125,0.035,10352.777777777777
-0.115,0.055,10355.555555555555
-0.1,0.035,10358.333333333334
-0.125,0.01,10361.111111111111
-0.13,0.015,10363.888888888889
-0.13,0.025,10366.666666666666
-0.12,0.025,10369.444444444445
-0.115,0.025,10372.222222222223
-0.1,0.02,10375.0
-0.12,0.0,10377.777777777777
-0.135,-0.005,10380.555555555555
-0.13,-0.005,10383.333333333334
-0.125,0.005,10386.111111111111
-0.12,0.02,10388.888888888889
-0.11,0.005,10391.666666666666
-0.12,-0.005,10394.444444444445
-0.135,-0.01,10397.222222222223
-0.145,0.005,10400.0
-0.13,0.01,10402.777777777777
-0.12,0.02,10405.555555555555
-0.105,0.005,10408.333333333334
-0.125,-0.005,10411.111111111111
-0.135,0.0,10413.888888888889
-0.14,0.0,10416.666666666666
-0.125,0.02,10419.444444444445
-0.12,0.035,10422.222222222223
-0.11,0.02,10425.0
-0.115,0.005,10427.777777777777
-0.135,0.0,10430.555555555555
-0.14,0.01,10433.333333333334
-0.13,0.015,10436.111111111111
-0.11,0.025,10438.888888888889
-0.12,0.01,10441.666666666666
-0.12,0.01,10444.444444444445
-0.14,0.015,10447.222222222223
-0.135,0.015,10450.0
-0.12,0.025,10452.777777777777
-0.11,0.03,10455.555555555555
-0.105,0.025,10458.333333333334
-0.12,0.01,10461.111111111111
-0.13,0.005,10463.888888888889
-0.16,0.015,10466.666666666666
-0.135,0.025,10469.444444444445
-0.125,0.035,10472.222222222223
-0.12,0.01,10475.0
-0.135,0.01,10477.777777777777
-0.155,-0.01,10480.555555555555
-0.16,0.015,10483.333333333334
-0.16,0.035,10486.111111111111
-0.13,0.035,10488.888888888889
-0.14,0.03,10491.666666666666
-0.14,0.02,10494.444444444445
-0.155,0.0,10497.222222222223
-0.175,0.0,10500.0
-0.16,0.02,10502.777777777777
-0.135,0.015,10505.555555555555
-0.135,0.015,10508.333333333334
-0.15,0.005,10511.111111111111
-0.155,-0.005,10513.888888888889
-0.16,0.0,10516.666666666666
-0.16,0.015,10519.444444444445
-0.15,0.02,10522.222222222223
-0.145,0.015,10525.0
-0.15,0.01,10527.777777777777
-0.155,0.0,10530.555555555555
-0.16,0.0,10533.333333333334
-0.155,0.02,10536.111111111111
-0.145,0.02,10538.888888888889
-0.14,0.005,10541.666666666666
-0.155,-0.01,10544.444444444445
-0.17,-0.005,10547.222222222223
-0.185,-0.01,10550.0
-0.175,-0.005,10552.777777777777
-0.16,0.015,10555.555555555555
-0.15,0.005,10558.333333333334
-0.155,-0.01,10561.111111111111
-0.185,-0.025,10563.888888888889
-0.19,-0.01,10566.666666666666
-0.175,-0.005,10569.444444444445
-0.155,0.005,10572.222222222223
-0.15,-0.005,10575.0
-0.16,-0.015,10577.777777777777
-0.175,-0.02,10580.555555555555
-0.2,-0.005,10583.333333333334
-0.175,0.005,10586.111111111111
-0.16,0.0,10588.888888888889
-0.155,-0.015,10591.666666666666
-0.17,-0.025,10594.444444444445
-0.18,-0.025,10597.222222222223
-0.195,-0.015,10600.0
-0.19,0.005,10602.777777777777
-0.165,0.01,10605.555555555555
-0.155,0.0,10608.333333333334
-0.17,-0.005,10611.111111111111
-0.18,-0.025,10613.888888888889
-0.19,-0.02,10616.666666666666
-0.175,-0.01,10619.444444444445
-0.155,0.0,10622.222222222223
-0.165,0.005,10625.0
-0.185,-0.015,10627.777777777777
-0.18,-0.025,10630.555555555555
-0.18,-0.025,10633.333333333334
-0.175,-0.005,10636.111111111111
-0.17,-0.005,10638.888888888889
-0.16,-0.005,10641.666666666666
-0.18,-0.01,10644.444444444445
-0.18,-0.02,10647.222222222223
-0.205,-0.005,10650.0
-0.18,0.005,10652.777777777777
-0.165,0.01,10655.555555555555
-0.16,-0.015,10658.333333333334
-0.18,-0.025,10661.111111111111
-0.205,-0.015,10663.888888888889
-0.195,-0.02,10666.666666666666
-0.19,-0.015,10669.444444444445
-0.19,0.01,10672.222222222223
-0.175,-0.005,10675.0
-0.185,-0.035,10677.777777777777
-0.195,-0.03,10680.555555555555
-0.185,-0.025,10683.333333333334
-0.18,-0.01,10686.111111111111
-0.165,-0.01,10688.888888888889
-0.165,-0.02,10691.666666666666
-0.185,-0.045,10694.444444444445
-0.19,-0.05,10697.222222222223
-0.21,-0.035,10700.0
-0.195,-0.015,10702.777777777777
-0.175,-0.01,10705.555555555555
-0.165,-0.01,10708.333333333334
-0.175,-0.035,10711.111111111111
-0.185,-0.035,10713.888888888889
-0.19,-0.025,10716.666666666666
-0.175,-0.02,10719.444444444445
-0.19,-0.005,10722.222222222223
-0.185,-0.015,10725.0
-0.195,-0.025,10727.777777777777
-0.205,-0.04,10730.555555555555
-0.2,-0.035,10733.333333333334
-0.19,-0.01,10736.111111111111
-0.175,0.005,10738.888888888889
-0.165,0.005,10741.666666666666
-0.18,-0.025,10744.444444444445
-0.19,-0.03,10747.222222222223
-0.18,-0.03,10750.0
-0.18,-0.015,10752.777777777777
-0.145,-0.005,10755.555555555555
-0.135,0.0,10758.333333333334
-0.14,0.005,10761.111111111111
-0.145,0.005,10763.888888888889
-0.14,0.0,10766.666666666666
-0.135,0.02,10769.444444444445
-0.125,0.025,10772.222222222223
-0.115,0.025,10775.0
-0.125,0.025,10777.777777777777
-0.135,0.015,10780.555555555555
-0.135,0.035,10783.333333333334
-0.125,0.065,10786.111111111111
-0.105,0.065,10788.888888888889
-0.105,0.055,10791.666666666666
-0.125,0.04,10794.444444444445
-0.13,0.025,10797.222222222223
-0.13,0.035,10800.0
-0.14,0.03,10802.777777777777
-0.13,0.035,10805.555555555555
-0.145,0.045,10808.333333333334
-0.15,0.025,10811.111111111111
-0.17,0.03,10813.888888888889
-0.175,0.035,10816.666666666666
-0.155,0.035,10819.444444444445
-0.15,0.03,10822.222222222223
-0.145,0.03,10825.0
-0.15,0.03,10827.777777777777
-0.165,0.02,10830.555555555555
-0.165,0.035,10833.333333333334
-0.145,0.045,10836.111111111111
-0.145,0.055,10838.888888888889
-0.135,0.04,10841.666666666666
-0.13,0.03,10844.444444444445
-0.14,0.01,10847.222222222223
-0.15,0.01,10850.0
-0.145,-0.005,10852.777777777777
-0.165,-0.005,10855.555555555555
-0.175,-0.005,10858.333333333334
-0.195,-0.005,10861.111111111111
-0.22,-0.015,10863.888888888889
-0.235,-0.005,10866.666666666666
-0.2,0.005,10869.444444444445
-0.195,0.005,10872.222222222223
-0.18,0.005,10875.0
-0.2,-0.005,10877.777777777777
-0.205,-0.01,10880.555555555555
-0.21,0.0,10883.333333333334
-0.195,0.01,10886.111111111111
-0.19,0.005,10888.888888888889
-0.19,0.0,10891.666666666666
-0.19,-0.01,10894.444444444445
-0.215,-0.015,10897.222222222223
-0.215,-0.025,10900.0
-0.195,-0.005,10902.777777777777
-0.19,-0.005,10905.555555555555
-0.185,-0.01,10908.333333333334
-0.205,-0.025,10911.111111111111
-0.21,-0.035,10913.888888888889
-0.225,-0.025,10916.666666666666
-0.215,0.005,10919.444444444445
-0.19,0.015,10922.222222222223
-0.19,0.0,10925.0
-0.195,-0.015,10927.777777777777
-0.22,-0.025,10930.555555555555
-0.23,-0.02,10933.333333333334
-0.21,-0.005,10936.111111111111
-0.225,0.005,10938.888888888889
-0.22,-0.005,10941.666666666666
-0.225,-0.01,10944.444444444445
-0.225,-0.015,10947.222222222223
-0.205,0.01,10950.0
-0.19,0.04,10952.777777777777
-0.18,0.055,10955.555555555555
-0.17,0.075,10958.333333333334
-0.165,0.08,10961.111111111111
-0.16,0.115,10963.888888888889
-0.145,0.185,10966.666666666666
-0.115,0.245,10969.444444444445
-0.08,0.295,10972.222222222223
-0.075,0.345,10975.0
-0.115,0.415,10977.777777777777
-0.19,0.525,10980.555555555555
-0.24,0.675,10983.333333333334
-0.29,0.84,10986.111111111111
-0.335,0.985,10988.888888888889
-0.395,1.115,10991.666666666666
-0.5,1.235,10994.444444444445
-0.58,1.375,10997.222222222223
-0.6,1.55,11000.0
-0.555,1.755,11002.777777777777
-0.44,1.925,11005.555555555555
-0.32,1.965,11008.333333333334
-0.215,1.875,11011.111111111111
-0.09,1.605,11013.888888888889
-0.025,1.165,11016.666666666666
-0.01,0.685,11019.444444444445
-0.125,0.345,11022.222222222223
-0.34,0.14,11025.0
-0.53,0.005,11027.777777777777
-0.61,-0.05,11030.555555555555
-0.605,-0.065,11033.333333333334
-0.56,-0.03,11036.111111111111
-0.475,-0.015,11038.888888888889
-0.39,-0.02,11041.666666666666
-0.325,-0.02,11044.444444444445
-0.26,-0.06,11047.222222222223
-0.235,-0.04,11050.0
-0.21,-0.045,11052.777777777777
-0.18,-0.04,11055.555555555555
-0.185,-0.075,11058.333333333334
-0.175,-0.1,11061.111111111111
-0.195,-0.11,11063.888888888889
-0.195,-0.115,11066.666666666666
-0.175,-0.11,11069.444444444445
-0.15,-0.1,11072.222222222223
-0.155,-0.11,11075.0
-0.18,-0.13,11077.777777777777
-0.165,-0.135,11080.555555555555
-0.16,-0.135,11083.333333333334
-0.14,-0.115,11086.111111111111
-0.125,-0.12,11088.888888888889
-0.12,-0.11,11091.666666666666
-0.135,-0.12,11094.444444444445
-0.14,-0.13,11097.222222222223
-0.165,-0.13,11100.0
-0.15,-0.12,11102.777777777777
-0.145,-0.115,11105.555555555555
-0.13,-0.12,11108.333333333334
-0.12,-0.145,11111.111111111111
-0.135,-0.145,11113.888888888889
-0.145,-0.14,11116.666666666666
-0.135,-0.135,11119.444444444445
-0.13,-0.13,11122.222222222223
-0.11,-0.13,11125.0
-0.125,-0.15,11127.777777777777
-0.13,-0.165,11130.555555555555
-0.125,-0.15,11133.333333333334
-0.125,-0.14,11136.111111111111
-0.12,-0.145,11138.888888888889
-0.105,-0.15,11141.666666666666
-0.125,-0.17,11144.444444444445
-0.15,-0.18,11147.222222222223
-0.14,-0.165,11150.0
-0.13,-0.145,11152.777777777777
-0.115,-0.14,11155.555555555555
-0.11,-0.145,11158.333333333334
-0.115,-0.15,11161.111111111111
-0.125,-0.16,11163.888888888889
-0.13,-0.165,11166.666666666666
-0.11,-0.16,11169.444444444445
-0.11,-0.145,11172.222222222223
-0.105,-0.175,11175.0
-0.12,-0.175,11177.777777777777
-0.145,-0.18,11180.555555555555
-0.13,-0.17,11183.333333333334
-0.115,-0.145,11186.111111111111
-0.095,-0.15,11188.888888888889
-0.095,-0.16,11191.666666666666
-0.095,-0.175,11194.444444444445
-0.115,-0.185,11197.222222222223
-0.13,-0.18,11200.0
-0.1,-0.18,11202.777777777777
-0.09,-0.17,11205.555555555555
-0.09,-0.165,11208.333333333334
-0.105,-0.165,11211.111111111111
-0.115,-0.17,11213.888888888889
-0.105,-0.17,11216.666666666666
-0.095,-0.15,11219.444444444445
-0.07,-0.14,11222.222222222223
-0.07,-0.14,11225.0
-0.075,-0.17,11227.777777777777
-0.065,-0.16,11230.555555555555
-0.07,-0.155,11233.333333333334
-0.065,-0.13,11236.111111111111
-0.035,-0.13,11238.888888888889
-0.03,-0.13,11241.666666666666
-0.02,-0.135,11244.444444444445
-0.055,-0.145,11247.222222222223
-0.05,-0.14,11250.0
-0.025,-0.125,11252.777777777777
-0.025,-0.11,11255.555555555555
-0.035,-0.09,11258.333333333334
-0.02,-0.1,11261.111111111111
-0.03,-0.095,11263.888888888889
-0.035,-0.08,11266.666666666666
-0.01,-0.07,11269.444444444445
0.005,-0.045,11272.222222222223
0.0,-0.045,11275.0
0.005,-0.035,11277.777777777777
0.0,-0.03,11280.555555555555
0.005,-0.015,11283.333333333334
0.025,0.01,11286.111111111111
0.04,0.035,11288.888888888889
0.045,0.05,11291.666666666666
0.025,0.075,11294.444444444445
0.025,0.08,11297.222222222223
0.03,0.105,11300.0
0.02,0.13,11302.777777777777
0.045,0.145,11305.555555555555
0.045,0.16,11308.333333333334
0.045,0.17,11311.111111111111
0.015,0.175,11313.888888888889
0.01,0.185,11316.666666666666
0.025,0.19,11319.444444444445
0.03,0.18,11322.222222222223
0.025,0.17,11325.0
0.005,0.155,11327.777777777777
-0.04,0.145,11330.555555555555
-0.03,0.15,11333.333333333334
-0.035,0.155,11336.111111111111
