MLII,V1,time_ms
-0.58,-0.335,0.0
-0.58,-0.335,2.7777777777777777
-0.58,-0.335,5.555555555555555
-0.58,-0.335,8.333333333333334
-0.58,-0.335,11.11111111111111
-0.58,-0.335,13.88888888888889
-0.58,-0.335,16.666666666666668
-0.58,-0.335,19.444444444444443
-0.585,-0.33,22.22222222222222
-0.59,-0.32,25.0
-0.58,-0.32,27.77777777777778
-0.58,-0.315,30.555555555555557
-0.575,-0.3,33.333333333333336
-0.555,-0.315,36.111111111111114
-0.57,-0.31,38.888888888888886
-0.575,-0.32,41.666666666666664
-0.585,-0.33,44.44444444444444
-0.585,-0.33,47.22222222222222
-0.595,-0.34,50.0
-0.595,-0.34,52.77777777777778
-0.61,-0.335,55.55555555555556
-0.605,-0.32,58.333333333333336
-0.59,-0.33,61.111111111111114
-0.585,-0.32,63.888888888888886
-0.58,-0.305,66.66666666666667
-0.58,-0.31,69.44444444444444
-0.585,-0.32,72.22222222222223
-0.59,-0.33,75.0
-0.595,-0.335,77.77777777777777
-0.605,-0.345,80.55555555555556
-0.6,-0.35,83.33333333333333
-0.6,-0.345,86.11111111111111
-0.605,-0.335,88.88888888888889
-0.605,-0.325,91.66666666666667
-0.59,-0.33,94.44444444444444
-0.585,-0.32,97.22222222222223
-0.59,-0.31,100.0
-0.575,-0.33,102.77777777777777
-0.58,-0.325,105.55555555555556
-0.585,-0.32,108.33333333333333
-0.585,-0.33,111.11111111111111
-0.575,-0.34,113.88888888888889
-0.595,-0.34,116.66666666666667
-0.6,-0.335,119.44444444444444
-0.605,-0.345,122.22222222222223
-0.595,-0.33,125.0
-0.59,-0.315,127.77777777777777
-0.6,-0.32,130.55555555555554
-0.59,-0.315,133.33333333333334
-0.585,-0.32,136.11111111111111
-0.58,-0.32,138.88888888888889
-0.58,-0.33,141.66666666666666
-0.585,-0.345,144.44444444444446
-0.6,-0.34,147.22222222222223
-0.605,-0.345,150.0
-0.605,-0.34,152.77777777777777
-0.62,-0.345,155.55555555555554
-0.61,-0.335,158.33333333333334
-0.61,-0.325,161.11111111111111
-0.6,-0.315,163.88888888888889
-0.6,-0.31,166.66666666666666
-0.585,-0.31,169.44444444444446
-0.595,-0.33,172.22222222222223
-0.59,-0.33,175.0
-0.61,-0.33,177.77777777777777
-0.61,-0.345,180.55555555555554
-0.61,-0.35,183.33333333333334
-0.605,-0.345,186.11111111111111
-0.605,-0.34,188.88888888888889
-0.595,-0.335,191.66666666666666
-0.595,-0.32,194.44444444444446
-0.59,-0.31,197.22222222222223
-0.565,-0.3,200.0
-0.585,-0.315,202.77777777777777
-0.57,-0.315,205.55555555555554
-0.575,-0.315,208.33333333333334
-0.58,-0.315,211.11111111111111
-0.585,-0.31,213.88888888888889
-0.59,-0.325,216.66666666666666
-0.595,-0.31,219.44444444444446
-0.59,-0.295,222.22222222222223
-0.575,-0.275,225.0
-0.56,-0.275,227.77777777777777
-0.55,-0.25,230.55555555555554
-0.535,-0.24,233.33333333333334
-0.525,-0.255,236.11111111111111
-0.515,-0.26,238.88888888888889
-0.51,-0.265,241.66666666666666
-0.49,-0.29,244.44444444444446
-0.495,-0.31,247.22222222222223
-0.49,-0.32,250.0
-0.495,-0.325,252.77777777777777
-0.48,-0.34,255.55555555555554
-0.465,-0.34,258.3333333333333
-0.455,-0.335,261.1111111111111
-0.445,-0.315,263.8888888888889
-0.43,-0.3,266.6666666666667
-0.435,-0.32,269.44444444444446
-0.44,-0.305,272.22222222222223
-0.445,-0.33,275.0
-0.475,-0.315,277.77777777777777
-0.48,-0.33,280.55555555555554
-0.485,-0.34,283.3333333333333
-0.49,-0.325,286.1111111111111
-0.495,-0.33,288.8888888888889
-0.485,-0.32,291.6666666666667
-0.48,-0.31,294.44444444444446
-0.48,-0.32,297.22222222222223
-0.47,-0.315,300.0
-0.47,-0.325,302.77777777777777
-0.485,-0.335,305.55555555555554
-0.5,-0.345,308.3333333333333
-0.535,-0.35,311.1111111111111
-0.545,-0.365,313.8888888888889
-0.565,-0.37,316.6666666666667
-0.575,-0.365,319.44444444444446
-0.585,-0.36,322.22222222222223
-0.585,-0.345,325.0
-0.58,-0.345,327.77777777777777
-0.565,-0.34,330.55555555555554
-0.57,-0.335,333.3333333333333
-0.565,-0.345,336.1111111111111
-0.56,-0.345,338.8888888888889
-0.575,-0.355,341.6666666666667
-0.58,-0.355,344.44444444444446
-0.585,-0.355,347.22222222222223
-0.605,-0.36,350.0
-0.61,-0.365,352.77777777777777
-0.6,-0.365,355.55555555555554
-0.59,-0.34,358.3333333333333
-0.6,-0.345,361.1111111111111
-0.595,-0.345,363.8888888888889
-0.575,-0.335,366.6666666666667
-0.555,-0.345,369.44444444444446
-0.565,-0.35,372.22222222222223
-0.575,-0.35,375.0
-0.575,-0.35,377.77777777777777
-0.59,-0.345,380.55555555555554
-0.59,-0.365,383.3333333333333
-0.59,-0.35,386.1111111111111
-0.575,-0.35,388.8888888888889
-0.585,-0.345,391.6666666666667
-0.575,-0.345,394.44444444444446
-0.565,-0.335,397.22222222222223
-0.54,-0.315,400.0
-0.53,-0.31,402.77777777777777
-0.525,-0.3,405.55555555555554
-0.525,-0.3,408.3333333333333
-0.52,-0.295,411.1111111111111
-0.515,-0.315,413.8888888888889
-0.515,-0.35,416.6666666666667
-0.51,-0.39,419.44444444444446
-0.495,-0.44,422.22222222222223
-0.45,-0.505,425.0
-0.375,-0.585,427.77777777777777
-0.26,-0.66,430.55555555555554
-0.1,-0.74,433.3333333333333
0.125,-0.795,436.1111111111111
0.425,-0.835,438.8888888888889
0.775,-0.815,441.6666666666667
1.155,-0.775,444.44444444444446
1.47,-0.7,447.22222222222223
1.665,-0.605,450.0
1.67,-0.525,452.77777777777777
1.455,-0.45,455.55555555555554
0.995,-0.395,458.3333333333333
0.36,-0.375,461.1111111111111
-0.28,-0.385,463.8888888888889
-0.905,-0.395,466.6666666666667
-1.26,-0.425,469.44444444444446
-1.36,-0.43,472.22222222222223
-1.255,-0.43,475.0
-1.035,-0.39,477.77777777777777
-0.8,-0.36,480.55555555555554
-0.605,-0.325,483.3333333333333
-0.49,-0.295,486.1111111111111
-0.43,-0.275,488.8888888888889
-0.415,-0.28,491.6666666666667
-0.43,-0.265,494.44444444444446
-0.47,-0.275,497.22222222222223
-0.49,-0.265,500.0
-0.505,-0.275,502.77777777777777
-0.52,-0.285,505.55555555555554
-0.51,-0.28,508.3333333333333
-0.515,-0.285,511.1111111111111
-0.5,-0.295,513.8888888888889
-0.5,-0.3,516.6666666666666
-0.5,-0.295,519.4444444444445
-0.5,-0.29,522.2222222222222
-0.49,-0.285,525.0
-0.49,-0.285,527.7777777777778
-0.49,-0.27,530.5555555555555
-0.485,-0.255,533.3333333333334
-0.48,-0.27,536.1111111111111
-0.475,-0.265,538.8888888888889
-0.485,-0.285,541.6666666666666
-0.475,-0.285,544.4444444444445
-0.48,-0.295,547.2222222222222
-0.495,-0.3,550.0
-0.49,-0.295,552.7777777777778
-0.51,-0.31,555.5555555555555
-0.505,-0.285,558.3333333333334
-0.48,-0.27,561.1111111111111
-0.47,-0.28,563.8888888888889
-0.48,-0.27,566.6666666666666
-0.465,-0.275,569.4444444444445
-0.47,-0.285,572.2222222222222
-0.465,-0.29,575.0
-0.47,-0.285,577.7777777777778
-0.485,-0.3,580.5555555555555
-0.495,-0.305,583.3333333333334
-0.49,-0.305,586.1111111111111
-0.475,-0.3,588.8888888888889
-0.475,-0.295,591.6666666666666
-0.475,-0.285,594.4444444444445
-0.47,-0.28,597.2222222222222
-0.47,-0.285,600.0
-0.46,-0.285,602.7777777777778
-0.465,-0.28,605.5555555555555
-0.465,-0.29,608.3333333333334
-0.47,-0.295,611.1111111111111
-0.485,-0.305,613.8888888888889
-0.49,-0.31,616.6666666666666
-0.485,-0.31,619.4444444444445
-0.485,-0.31,622.2222222222222
-0.495,-0.305,625.0
-0.49,-0.3,627.7777777777778
-0.49,-0.295,630.5555555555555
-0.47,-0.285,633.3333333333334
-0.465,-0.29,636.1111111111111
-0.465,-0.275,638.8888888888889
-0.455,-0.305,641.6666666666666
-0.475,-0.315,644.4444444444445
-0.465,-0.31,647.2222222222222
-0.48,-0.32,650.0
-0.485,-0.32,652.7777777777778
-0.48,-0.31,655.5555555555555
-0.47,-0.31,658.3333333333334
-0.465,-0.3,661.1111111111111
-0.47,-0.295,663.8888888888889
-0.465,-0.285,666.6666666666666
-0.445,-0.29,669.4444444444445
-0.44,-0.3,672.2222222222222
-0.44,-0.305,675.0
-0.44,-0.31,677.7777777777778
-0.445,-0.32,680.5555555555555
-0.44,-0.315,683.3333333333334
-0.46,-0.325,686.1111111111111
-0.455,-0.32,688.8888888888889
-0.455,-0.325,691.6666666666666
-0.44,-0.305,694.4444444444445
-0.43,-0.3,697.2222222222222
-0.435,-0.305,700.0
-0.425,-0.31,702.7777777777778
-0.415,-0.305,705.5555555555555
-0.415,-0.31,708.3333333333334
-0.42,-0.33,711.1111111111111
-0.42,-0.33,713.8888888888889
-0.43,-0.325,716.6666666666666
-0.425,-0.335,719.4444444444445
-0.415,-0.32,722.2222222222222
-0.43,-0.31,725.0
-0.41,-0.305,727.7777777777778
-0.41,-0.295,730.5555555555555
-0.4,-0.29,733.3333333333334
-0.385,-0.295,736.1111111111111
-0.37,-0.295,738.8888888888889
-0.375,-0.31,741.6666666666666
-0.38,-0.33,744.4444444444445
-0.39,-0.33,747.2222222222222
-0.395,-0.34,750.0
-0.395,-0.33,752.7777777777778
-0.39,-0.335,755.5555555555555
-0.395,-0.325,758.3333333333334
-0.385,-0.315,761.1111111111111
-0.37,-0.315,763.8888888888889
-0.36,-0.31,766.6666666666666
-0.365,-0.315,769.4444444444445
-0.365,-0.315,772.2222222222222
-0.365,-0.325,775.0
-0.375,-0.32,777.7777777777778
-0.38,-0.335,780.5555555555555
-0.385,-0.34,783.3333333333334
-0.385,-0.335,786.1111111111111
-0.385,-0.335,788.8888888888889
-0.38,-0.335,791.6666666666666
-0.375,-0.325,794.4444444444445
-0.375,-0.31,797.2222222222222
-0.365,-0.305,800.0
-0.345,-0.315,802.7777777777778
-0.355,-0.325,805.5555555555555
-0.36,-0.32,808.3333333333334
-0.365,-0.335,811.1111111111111
-0.355,-0.345,813.8888888888889
-0.365,-0.34,816.6666666666666
-0.37,-0.335,819.4444444444445
-0.365,-0.34,822.2222222222222
-0.38,-0.325,825.0
-0.365,-0.32,827.7777777777778
-0.38,-0.305,830.5555555555555
-0.38,-0.305,833.3333333333334
-0.365,-0.315,836.1111111111111
-0.39,-0.295,838.8888888888889
-0.395,-0.315,841.6666666666666
-0.395,-0.305,844.4444444444445
-0.425,-0.315,847.2222222222222
-0.445,-0.32,850.0
-0.465,-0.32,852.7777777777778
-0.475,-0.32,855.5555555555555
-0.49,-0.305,858.3333333333334
-0.495,-0.3,861.1111111111111
-0.495,-0.29,863.8888888888889
-0.505,-0.29,866.6666666666666
-0.5,-0.285,869.4444444444445
-0.53,-0.295,872.2222222222222
-0.535,-0.295,875.0
-0.545,-0.31,877.7777777777778
-0.55,-0.31,880.5555555555555
-0.565,-0.32,883.3333333333334
-0.57,-0.31,886.1111111111111
-0.57,-0.295,888.8888888888889
-0.58,-0.3,891.6666666666666
-0.565,-0.285,894.4444444444445
-0.575,-0.28,897.2222222222222
-0.56,-0.27,900.0
-0.555,-0.275,902.7777777777778
-0.56,-0.28,905.5555555555555
-0.585,-0.28,908.3333333333334
-0.575,-0.29,911.1111111111111
-0.585,-0.295,913.8888888888889
-0.585,-0.3,916.6666666666666
-0.595,-0.295,919.4444444444445
-0.59,-0.295,922.2222222222222
-0.59,-0.285,925.0
-0.58,-0.28,927.7777777777778
-0.58,-0.28,930.5555555555555
-0.565,-0.275,933.3333333333334
-0.555,-0.265,936.1111111111111
-0.55,-0.265,938.8888888888889
-0.555,-0.275,941.6666666666666
-0.565,-0.29,944.4444444444445
-0.58,-0.29,947.2222222222222
-0.58,-0.3,950.0
-0.585,-0.29,952.7777777777778
-0.575,-0.285,955.5555555555555
-0.57,-0.275,958.3333333333334
-0.565,-0.275,961.1111111111111
-0.55,-0.27,963.8888888888889
-0.545,-0.265,966.6666666666666
-0.54,-0.26,969.4444444444445
-0.54,-0.27,972.2222222222222
-0.54,-0.28,975.0
-0.55,-0.295,977.7777777777778
-0.55,-0.295,980.5555555555555
-0.565,-0.3,983.3333333333334
-0.565,-0.29,986.1111111111111
-0.55,-0.28,988.8888888888889
-0.55,-0.28,991.6666666666666
-0.545,-0.27,994.4444444444445
-0.53,-0.27,997.2222222222222
-0.525,-0.245,1000.0
-0.525,-0.26,1002.7777777777778
-0.525,-0.27,1005.5555555555555
-0.525,-0.28,1008.3333333333334
-0.525,-0.29,1011.1111111111111
-0.54,-0.295,1013.8888888888889
-0.56,-0.295,1016.6666666666666
-0.555,-0.29,1019.4444444444445
-0.555,-0.3,1022.2222222222222
-0.55,-0.295,1025.0
-0.555,-0.29,1027.7777777777778
-0.55,-0.285,1030.5555555555557
-0.55,-0.255,1033.3333333333333
-0.54,-0.275,1036.111111111111
-0.54,-0.285,1038.888888888889
-0.545,-0.29,1041.6666666666667
-0.565,-0.295,1044.4444444444443
-0.565,-0.3,1047.2222222222222
-0.57,-0.315,1050.0
-0.575,-0.315,1052.7777777777778
-0.58,-0.305,1055.5555555555557
-0.575,-0.295,1058.3333333333333
-0.58,-0.29,1061.111111111111
-0.57,-0.29,1063.888888888889
-0.565,-0.27,1066.6666666666667
-0.555,-0.285,1069.4444444444443
-0.565,-0.29,1072.2222222222222
-0.57,-0.285,1075.0
-0.57,-0.295,1077.7777777777778
-0.58,-0.31,1080.5555555555557
-0.575,-0.305,1083.3333333333333
-0.6,-0.31,1086.111111111111
-0.59,-0.305,1088.888888888889
-0.585,-0.29,1091.6666666666667
-0.595,-0.29,1094.4444444444443
-0.595,-0.275,1097.2222222222222
-0.58,-0.275,1100.0
-0.575,-0.28,1102.7777777777778
-0.58,-0.29,1105.5555555555557
-0.59,-0.295,1108.3333333333333
-0.59,-0.3,1111.111111111111
-0.61,-0.31,1113.888888888889
-0.61,-0.305,1116.6666666666667
-0.61,-0.31,1119.4444444444443
-0.615,-0.31,1122.2222222222222
-0.61,-0.305,1125.0
-0.615,-0.285,1127.7777777777778
-0.61,-0.29,1130.5555555555557
-0.595,-0.27,1133.3333333333333
-0.595,-0.28,1136.111111111111
-0.59,-0.28,1138.888888888889
-0.585,-0.3,1141.6666666666667
-0.59,-0.29,1144.4444444444443
-0.6,-0.3,1147.2222222222222
-0.605,-0.305,1150.0
-0.61,-0.3,1152.7777777777778
-0.625,-0.3,1155.5555555555557
-0.615,-0.305,1158.3333333333333
-0.61,-0.29,1161.111111111111
-0.595,-0.28,1163.888888888889
-0.59,-0.275,1166.6666666666667
-0.59,-0.285,1169.4444444444443
-0.59,-0.285,1172.2222222222222
-0.585,-0.285,1175.0
-0.595,-0.295,1177.7777777777778
-0.605,-0.305,1180.5555555555557
-0.61,-0.305,1183.3333333333333
-0.615,-0.305,1186.111111111111
-0.61,-0.31,1188.888888888889
-0.615,-0.29,1191.6666666666667
-0.605,-0.29,1194.4444444444443
-0.605,-0.285,1197.2222222222222
-0.595,-0.27,1200.0
-0.59,-0.27,1202.7777777777778
-0.595,-0.28,1205.5555555555557
-0.595,-0.28,1208.3333333333333
-0.605,-0.28,1211.111111111111
-0.6,-0.275,1213.888888888889
-0.605,-0.275,1216.6666666666667
-0.59,-0.265,1219.4444444444443
-0.605,-0.26,1222.2222222222222
-0.59,-0.24,1225.0
-0.575,-0.225,1227.7777777777778
-0.565,-0.225,1230.5555555555557
-0.55,-0.2,1233.3333333333333
-0.53,-0.205,1236.111111111111
-0.52,-0.22,1238.888888888889
-0.515,-0.24,1241.6666666666667
-0.515,-0.24,1244.4444444444443
-0.515,-0.27,1247.2222222222222
-0.5,-0.28,1250.0
-0.495,-0.305,1252.7777777777778
-0.49,-0.305,1255.5555555555557
-0.49,-0.295,1258.3333333333333
-0.475,-0.28,1261.111111111111
-0.47,-0.27,1263.888888888889
-0.455,-0.26,1266.6666666666667
-0.435,-0.27,1269.4444444444443
-0.46,-0.275,1272.2222222222222
-0.47,-0.28,1275.0
-0.485,-0.27,1277.7777777777778
-0.485,-0.29,1280.5555555555557
-0.48,-0.29,1283.3333333333333
-0.48,-0.29,1286.111111111111
-0.49,-0.285,1288.888888888889
-0.48,-0.29,1291.6666666666667
-0.48,-0.28,1294.4444444444443
-0.49,-0.285,1297.2222222222222
-0.48,-0.27,1300.0
-0.5,-0.28,1302.7777777777778
-0.525,-0.295,1305.5555555555557
-0.545,-0.3,1308.3333333333333
-0.56,-0.3,1311.111111111111
-0.585,-0.305,1313.888888888889
-0.6,-0.31,1316.6666666666667
-0.61,-0.31,1319.4444444444443
-0.615,-0.305,1322.2222222222222
-0.62,-0.3,1325.0
-0.605,-0.29,1327.7777777777778
-0.6,-0.3,1330.5555555555557
-0.595,-0.275,1333.3333333333333
-0.595,-0.285,1336.111111111111
-0.605,-0.295,1338.888888888889
-0.605,-0.3,1341.6666666666667
-0.61,-0.295,1344.4444444444443
-0.615,-0.3,1347.2222222222222
-0.63,-0.305,1350.0
-0.63,-0.315,1352.7777777777778
-0.625,-0.31,1355.5555555555557
-0.625,-0.305,1358.3333333333333
-0.62,-0.305,1361.111111111111
-0.615,-0.285,1363.888888888889
-0.605,-0.275,1366.6666666666667
-0.615,-0.275,1369.4444444444443
-0.615,-0.295,1372.2222222222222
-0.61,-0.29,1375.0
-0.595,-0.295,1377.7777777777778
-0.605,-0.3,1380.5555555555557
-0.605,-0.305,1383.3333333333333
-0.605,-0.305,1386.111111111111
-0.595,-0.28,1388.888888888889
-0.6,-0.27,1391.6666666666667
-0.585,-0.25,1394.4444444444443
-0.575,-0.23,1397.2222222222222
-0.55,-0.23,1400.0
-0.545,-0.24,1402.7777777777778
-0.54,-0.265,1405.5555555555557
-0.52,-0.31,1408.3333333333333
-0.525,-0.36,1411.111111111111
-0.505,-0.435,1413.888888888889
-0.465,-0.515,1416.6666666666667
-0.4,-0.595,1419.4444444444443
-0.27,-0.66,1422.2222222222222
-0.085,-0.705,1425.0
0.155,-0.73,1427.7777777777778
0.46,-0.705,1430.5555555555557
0.825,-0.65,1433.3333333333333
1.2,-0.58,1436.111111111111
1.485,-0.49,1438.888888888889
1.61,-0.4,1441.6666666666667
1.49,-0.33,1444.4444444444443
1.095,-0.285,1447.2222222222222
0.455,-0.285,1450.0
-0.185,-0.295,1452.7777777777778
-0.825,-0.315,1455.5555555555557
-1.28,-0.335,1458.3333333333333
-1.37,-0.35,1461.111111111111
-1.23,-0.33,1463.888888888889
-0.995,-0.305,1466.6666666666667
-0.745,-0.265,1469.4444444444443
-0.535,-0.24,1472.2222222222222
-0.425,-0.21,1475.0
-0.4,-0.23,1477.7777777777778
-0.425,-0.225,1480.5555555555557
-0.47,-0.245,1483.3333333333333
-0.515,-0.25,1486.111111111111
-0.545,-0.245,1488.888888888889
-0.555,-0.255,1491.6666666666667
-0.575,-0.24,1494.4444444444443
-0.565,-0.24,1497.2222222222222
-0.53,-0.23,1500.0
-0.52,-0.225,1502.7777777777778
-0.515,-0.235,1505.5555555555557
-0.515,-0.235,1508.3333333333333
-0.53,-0.245,1511.111111111111
-0.535,-0.255,1513.888888888889
-0.53,-0.265,1516.6666666666667
-0.53,-0.26,1519.4444444444443
-0.53,-0.255,1522.2222222222222
-0.52,-0.245,1525.0
-0.525,-0.245,1527.7777777777778
-0.525,-0.245,1530.5555555555557
-0.505,-0.22,1533.3333333333333
-0.5,-0.225,1536.111111111111
-0.505,-0.225,1538.888888888889
-0.505,-0.24,1541.6666666666667
-0.51,-0.255,1544.4444444444443
-0.52,-0.255,1547.2222222222222
-0.515,-0.265,1550.0
-0.525,-0.27,1552.7777777777778
-0.525,-0.26,1555.5555555555557
-0.52,-0.25,1558.3333333333333
-0.505,-0.25,1561.111111111111
-0.495,-0.235,1563.888888888889
-0.495,-0.235,1566.6666666666667
-0.485,-0.245,1569.4444444444443
-0.485,-0.25,1572.2222222222222
-0.49,-0.255,1575.0
-0.495,-0.255,1577.7777777777778
-0.505,-0.265,1580.5555555555557
-0.51,-0.27,1583.3333333333333
-0.515,-0.265,1586.111111111111
-0.51,-0.26,1588.888888888889
-0.52,-0.26,1591.6666666666667
-0.5,-0.245,1594.4444444444443
-0.505,-0.25,1597.2222222222222
-0.485,-0.24,1600.0
-0.485,-0.245,1602.7777777777778
-0.475,-0.255,1605.5555555555557
-0.485,-0.245,1608.3333333333333
-0.485,-0.25,1611.111111111111
-0.49,-0.265,1613.888888888889
-0.51,-0.27,1616.6666666666667
-0.51,-0.265,1619.4444444444443
-0.51,-0.27,1622.2222222222222
-0.51,-0.26,1625.0
-0.505,-0.26,1627.7777777777778
-0.495,-0.245,1630.5555555555557
-0.475,-0.255,1633.3333333333333
-0.47,-0.25,1636.111111111111
-0.465,-0.25,1638.888888888889
-0.465,-0.26,1641.6666666666667
-0.475,-0.27,1644.4444444444443
-0.475,-0.275,1647.2222222222222
-0.49,-0.275,1650.0
-0.505,-0.28,1652.7777777777778
-0.495,-0.27,1655.5555555555557
-0.49,-0.27,1658.3333333333333
-0.49,-0.26,1661.111111111111
-0.495,-0.26,1663.888888888889
-0.475,-0.255,1666.6666666666667
-0.45,-0.25,1669.4444444444443
-0.48,-0.265,1672.2222222222222
-0.465,-0.27,1675.0
-0.465,-0.27,1677.7777777777778
-0.47,-0.275,1680.5555555555557
-0.485,-0.285,1683.3333333333333
-0.48,-0.295,1686.111111111111
-0.48,-0.29,1688.888888888889
-0.49,-0.285,1691.6666666666667
-0.465,-0.275,1694.4444444444443
-0.475,-0.27,1697.2222222222222
-0.46,-0.26,1700.0
-0.445,-0.26,1702.7777777777778
-0.445,-0.275,1705.5555555555557
-0.435,-0.275,1708.3333333333333
-0.44,-0.28,1711.111111111111
-0.445,-0.295,1713.888888888889
-0.43,-0.285,1716.6666666666667
-0.435,-0.295,1719.4444444444443
-0.435,-0.29,1722.2222222222222
-0.435,-0.29,1725.0
-0.43,-0.28,1727.7777777777778
-0.415,-0.275,1730.5555555555557
-0.415,-0.27,1733.3333333333333
-0.41,-0.27,1736.111111111111
-0.41,-0.29,1738.888888888889
-0.405,-0.28,1741.6666666666667
-0.415,-0.3,1744.4444444444443
-0.415,-0.305,1747.2222222222222
-0.405,-0.31,1750.0
-0.415,-0.31,1752.7777777777778
-0.415,-0.31,1755.5555555555557
-0.425,-0.305,1758.3333333333333
-0.42,-0.295,1761.111111111111
-0.415,-0.29,1763.888888888889
-0.4,-0.28,1766.6666666666667
-0.39,-0.285,1769.4444444444443
-0.385,-0.295,1772.2222222222222
-0.385,-0.29,1775.0
-0.39,-0.3,1777.7777777777778
-0.4,-0.29,1780.5555555555557
-0.415,-0.315,1783.3333333333333
-0.415,-0.31,1786.111111111111
-0.425,-0.305,1788.888888888889
-0.41,-0.29,1791.6666666666667
-0.415,-0.29,1794.4444444444443
-0.41,-0.285,1797.2222222222222
-0.4,-0.28,1800.0
-0.39,-0.27,1802.7777777777778
-0.38,-0.285,1805.5555555555557
-0.4,-0.28,1808.3333333333333
-0.39,-0.295,1811.111111111111
-0.4,-0.285,1813.888888888889
-0.41,-0.3,1816.6666666666667
-0.425,-0.28,1819.4444444444443
-0.44,-0.275,1822.2222222222222
-0.44,-0.275,1825.0
-0.445,-0.26,1827.7777777777778
-0.45,-0.265,1830.5555555555557
-0.455,-0.255,1833.3333333333333
-0.46,-0.245,1836.111111111111
-0.475,-0.245,1838.888888888889
-0.495,-0.25,1841.6666666666667
-0.505,-0.245,1844.4444444444443
-0.515,-0.265,1847.2222222222222
-0.53,-0.265,1850.0
-0.555,-0.265,1852.7777777777778
-0.565,-0.255,1855.5555555555557
-0.57,-0.25,1858.3333333333333
-0.58,-0.235,1861.111111111111
-0.59,-0.245,1863.888888888889
-0.605,-0.24,1866.6666666666667
-0.595,-0.225,1869.4444444444443
-0.59,-0.24,1872.2222222222222
-0.6,-0.245,1875.0
-0.605,-0.245,1877.7777777777778
-0.61,-0.255,1880.5555555555557
-0.62,-0.26,1883.3333333333333
-0.63,-0.26,1886.111111111111
-0.635,-0.255,1888.888888888889
-0.645,-0.245,1891.6666666666667
-0.64,-0.24,1894.4444444444443
-0.64,-0.24,1897.2222222222222
-0.63,-0.225,1900.0
-0.625,-0.225,1902.7777777777778
-0.615,-0.24,1905.5555555555557
-0.61,-0.245,1908.3333333333333
-0.62,-0.255,1911.111111111111
-0.615,-0.25,1913.888888888889
-0.625,-0.26,1916.6666666666667
-0.635,-0.26,1919.4444444444443
-0.63,-0.255,1922.2222222222222
-0.63,-0.245,1925.0
-0.625,-0.25,1927.7777777777778
-0.605,-0.24,1930.5555555555557
-0.6,-0.245,1933.3333333333333
-0.58,-0.235,1936.111111111111
-0.585,-0.255,1938.888888888889
-0.585,-0.25,1941.6666666666667
-0.58,-0.255,1944.4444444444443
-0.59,-0.27,1947.2222222222222
-0.605,-0.27,1950.0
-0.605,-0.27,1952.7777777777778
-0.605,-0.27,1955.5555555555557
-0.605,-0.25,1958.3333333333333
-0.6,-0.255,1961.111111111111
-0.6,-0.24,1963.888888888889
-0.575,-0.24,1966.6666666666667
-0.575,-0.24,1969.4444444444443
-0.58,-0.25,1972.2222222222222
-0.58,-0.26,1975.0
-0.585,-0.265,1977.7777777777778
-0.58,-0.265,1980.5555555555557
-0.595,-0.27,1983.3333333333333
-0.6,-0.28,1986.111111111111
-0.605,-0.28,1988.888888888889
-0.6,-0.26,1991.6666666666667
-0.6,-0.265,1994.4444444444443
-0.6,-0.26,1997.2222222222222
-0.595,-0.26,2000.0
-0.595,-0.25,2002.7777777777778
-0.605,-0.255,2005.5555555555557
-0.595,-0.26,2008.3333333333333
-0.6,-0.265,2011.111111111111
-0.62,-0.275,2013.888888888889
-0.625,-0.275,2016.6666666666667
-0.61,-0.285,2019.4444444444443
-0.615,-0.275,2022.2222222222222
-0.62,-0.275,2025.0
-0.615,-0.26,2027.7777777777778
-0.615,-0.26,2030.5555555555557
-0.62,-0.26,2033.3333333333333
-0.6,-0.26,2036.111111111111
-0.6,-0.25,2038.888888888889
-0.605,-0.255,2041.6666666666667
-0.61,-0.27,2044.4444444444443
-0.625,-0.27,2047.2222222222222
-0.645,-0.28,2050.0
-0.66,-0.285,2052.777777777778
-0.645,-0.285,2055.5555555555557
-0.64,-0.275,2058.3333333333335
-0.64,-0.275,2061.1111111111113
-0.64,-0.26,2063.8888888888887
-0.63,-0.255,2066.6666666666665
-0.625,-0.255,2069.4444444444443
-0.625,-0.26,2072.222222222222
-0.63,-0.26,2075.0
-0.64,-0.265,2077.777777777778
-0.645,-0.285,2080.5555555555557
-0.66,-0.285,2083.3333333333335
-0.655,-0.28,2086.1111111111113
-0.65,-0.28,2088.8888888888887
-0.65,-0.28,2091.6666666666665
-0.65,-0.275,2094.4444444444443
-0.645,-0.255,2097.222222222222
-0.635,-0.265,2100.0
-0.645,-0.26,2102.777777777778
-0.645,-0.275,2105.5555555555557
-0.645,-0.28,2108.3333333333335
-0.645,-0.275,2111.1111111111113
-0.645,-0.285,2113.8888888888887
-0.66,-0.28,2116.6666666666665
-0.66,-0.265,2119.4444444444443
-0.66,-0.25,2122.222222222222
-0.655,-0.25,2125.0
-0.66,-0.235,2127.777777777778
-0.65,-0.225,2130.5555555555557
-0.635,-0.21,2133.3333333333335
-0.615,-0.2,2136.1111111111113
-0.615,-0.2,2138.8888888888887
-0.61,-0.215,2141.6666666666665
-0.6,-0.225,2144.4444444444443
-0.605,-0.24,2147.222222222222
-0.59,-0.255,2150.0
-0.595,-0.26,2152.777777777778
-0.58,-0.275,2155.5555555555557
-0.56,-0.285,2158.3333333333335
-0.54,-0.275,2161.1111111111113
-0.525,-0.265,2163.8888888888887
-0.5,-0.27,2166.6666666666665
-0.48,-0.245,2169.4444444444443
-0.48,-0.25,2172.222222222222
-0.5,-0.255,2175.0
-0.5,-0.25,2177.777777777778
-0.515,-0.27,2180.5555555555557
-0.52,-0.28,2183.3333333333335
-0.53,-0.275,2186.1111111111113
-0.525,-0.27,2188.8888888888887
-0.52,-0.265,2191.6666666666665
-0.52,-0.26,2194.4444444444443
-0.51,-0.25,2197.222222222222
-0.52,-0.26,2200.0
-0.51,-0.26,2202.777777777778
-0.52,-0.275,2205.5555555555557
-0.535,-0.28,2208.3333333333335
-0.54,-0.3,2211.1111111111113
-0.565,-0.31,2213.8888888888887
-0.6,-0.31,2216.6666666666665
-0.61,-0.31,2219.4444444444443
-0.64,-0.31,2222.222222222222
-0.635,-0.305,2225.0
-0.65,-0.29,2227.777777777778
-0.645,-0.3,2230.5555555555557
-0.635,-0.29,2233.3333333333335
-0.635,-0.295,2236.1111111111113
-0.635,-0.295,2238.8888888888887
-0.645,-0.305,2241.6666666666665
-0.64,-0.305,2244.4444444444443
-0.67,-0.32,2247.222222222222
-0.665,-0.325,2250.0
-0.67,-0.325,2252.777777777778
-0.665,-0.325,2255.5555555555557
-0.675,-0.31,2258.3333333333335
-0.665,-0.305,2261.1111111111113
-0.665,-0.295,2263.8888888888887
-0.655,-0.295,2266.6666666666665
-0.645,-0.28,2269.4444444444443
-0.645,-0.29,2272.222222222222
-0.65,-0.3,2275.0
-0.66,-0.305,2277.777777777778
-0.66,-0.31,2280.5555555555557
-0.67,-0.32,2283.3333333333335
-0.67,-0.315,2286.1111111111113
-0.68,-0.32,2288.8888888888887
-0.68,-0.31,2291.6666666666665
-0.665,-0.295,2294.4444444444443
-0.66,-0.3,2297.222222222222
-0.645,-0.29,2300.0
-0.635,-0.295,2302.777777777778
-0.625,-0.295,2305.5555555555557
-0.63,-0.295,2308.3333333333335
-0.63,-0.305,2311.1111111111113
-0.63,-0.295,2313.8888888888887
-0.63,-0.29,2316.6666666666665
-0.62,-0.28,2319.4444444444443
-0.6,-0.27,2322.222222222222
-0.6,-0.28,2325.0
-0.6,-0.305,2327.777777777778
-0.58,-0.335,2330.5555555555557
-0.545,-0.39,2333.3333333333335
-0.5,-0.465,2336.1111111111113
-0.435,-0.55,2338.8888888888887
-0.3,-0.645,2341.6666666666665
-0.145,-0.715,2344.4444444444443
0.085,-0.76,2347.222222222222
0.375,-0.775,2350.0
0.715,-0.755,2352.777777777778
1.07,-0.685,2355.5555555555557
1.405,-0.61,2358.3333333333335
1.635,-0.515,2361.1111111111113
1.71,-0.44,2363.8888888888887
1.59,-0.37,2366.6666666666665
1.255,-0.315,2369.4444444444443
0.745,-0.295,2372.222222222222
0.115,-0.315,2375.0
-0.51,-0.325,2377.777777777778
-1.025,-0.355,2380.5555555555557
-1.32,-0.385,2383.3333333333335
-1.37,-0.385,2386.1111111111113
-1.225,-0.385,2388.8888888888887
-0.99,-0.35,2391.6666666666665
-0.77,-0.315,2394.4444444444443
-0.6,-0.275,2397.222222222222
-0.5,-0.23,2400.0
-0.46,-0.225,2402.777777777778
-0.455,-0.24,2405.5555555555557
-0.49,-0.255,2408.3333333333335
-0.52,-0.26,2411.1111111111113
-0.565,-0.265,2413.8888888888887
-0.575,-0.265,2416.6666666666665
-0.58,-0.275,2419.4444444444443
-0.59,-0.27,2422.222222222222
-0.58,-0.265,2425.0
-0.56,-0.26,2427.777777777778
-0.56,-0.255,2430.5555555555557
-0.555,-0.26,2433.3333333333335
-0.535,-0.235,2436.1111111111113
-0.535,-0.255,2438.8888888888887
-0.535,-0.26,2441.6666666666665
-0.545,-0.255,2444.4444444444443
-0.55,-0.275,2447.222222222222
-0.565,-0.285,2450.0
-0.55,-0.275,2452.777777777778
-0.565,-0.275,2455.5555555555557
-0.565,-0.265,2458.3333333333335
-0.56,-0.25,2461.1111111111113
-0.54,-0.255,2463.8888888888887
-0.54,-0.25,2466.6666666666665
-0.52,-0.25,2469.4444444444443
-0.525,-0.255,2472.222222222222
-0.54,-0.265,2475.0
-0.53,-0.275,2477.777777777778
-0.555,-0.285,2480.5555555555557
-0.55,-0.285,2483.3333333333335
-0.545,-0.29,2486.1111111111113
-0.545,-0.285,2488.8888888888887
-0.55,-0.27,2491.6666666666665
-0.54,-0.28,2494.4444444444443
-0.53,-0.275,2497.222222222222
-0.53,-0.265,2500.0
-0.53,-0.26,2502.777777777778
-0.52,-0.265,2505.5555555555557
-0.52,-0.275,2508.3333333333335
-0.53,-0.285,2511.1111111111113
-0.53,-0.28,2513.8888888888887
-0.53,-0.295,2516.6666666666665
-0.525,-0.3,2519.4444444444443
-0.53,-0.29,2522.222222222222
-0.54,-0.29,2525.0
-0.545,-0.275,2527.777777777778
-0.525,-0.28,2530.5555555555557
-0.51,-0.27,2533.3333333333335
-0.51,-0.275,2536.1111111111113
-0.53,-0.285,2538.8888888888887
-0.515,-0.29,2541.6666666666665
-0.515,-0.285,2544.4444444444443
-0.515,-0.285,2547.222222222222
-0.515,-0.29,2550.0
-0.525,-0.305,2552.777777777778
-0.515,-0.305,2555.5555555555557
-0.525,-0.295,2558.3333333333335
-0.505,-0.28,2561.1111111111113
-0.5,-0.29,2563.8888888888887
-0.495,-0.285,2566.6666666666665
-0.48,-0.265,2569.4444444444443
-0.48,-0.265,2572.222222222222
-0.49,-0.275,2575.0
-0.495,-0.29,2577.777777777778
-0.495,-0.29,2580.5555555555557
-0.495,-0.3,2583.3333333333335
-0.505,-0.3,2586.1111111111113
-0.5,-0.295,2588.8888888888887
-0.51,-0.3,2591.6666666666665
-0.495,-0.28,2594.4444444444443
-0.485,-0.275,2597.222222222222
-0.48,-0.275,2600.0
-0.47,-0.265,2602.777777777778
-0.47,-0.27,2605.5555555555557
-0.465,-0.285,2608.3333333333335
-0.465,-0.3,2611.1111111111113
-0.47,-0.3,2613.8888888888887
-0.475,-0.3,2616.6666666666665
-0.465,-0.32,2619.4444444444443
-0.47,-0.31,2622.222222222222
-0.46,-0.295,2625.0
-0.45,-0.295,2627.777777777778
-0.445,-0.28,2630.5555555555557
-0.445,-0.285,2633.3333333333335
-0.425,-0.28,2636.1111111111113
-0.425,-0.28,2638.8888888888887
-0.425,-0.29,2641.6666666666665
-0.435,-0.3,2644.4444444444443
-0.43,-0.305,2647.222222222222
-0.445,-0.305,2650.0
-0.425,-0.3,2652.777777777778
-0.425,-0.305,2655.5555555555557
-0.415,-0.315,2658.3333333333335
-0.415,-0.3,2661.1111111111113
-0.41,-0.305,2663.8888888888887
-0.395,-0.295,2666.6666666666665
-0.375,-0.285,2669.4444444444443
-0.38,-0.295,2672.222222222222
-0.375,-0.3,2675.0
-0.38,-0.315,2677.777777777778
-0.37,-0.32,2680.5555555555557
-0.385,-0.315,2683.3333333333335
-0.38,-0.325,2686.1111111111113
-0.395,-0.315,2688.8888888888887
-0.39,-0.31,2691.6666666666665
-0.385,-0.315,2694.4444444444443
-0.38,-0.3,2697.222222222222
-0.38,-0.3,2700.0
-0.365,-0.3,2702.777777777778
-0.36,-0.305,2705.5555555555557
-0.36,-0.305,2708.3333333333335
-0.375,-0.325,2711.1111111111113
-0.37,-0.32,2713.8888888888887
-0.38,-0.33,2716.6666666666665
-0.395,-0.33,2719.4444444444443
-0.385,-0.33,2722.222222222222
-0.39,-0.325,2725.0
-0.395,-0.32,2727.777777777778
-0.4,-0.3,2730.5555555555557
-0.41,-0.3,2733.3333333333335
-0.41,-0.29,2736.1111111111113
-0.415,-0.305,2738.8888888888887
-0.455,-0.29,2741.6666666666665
-0.475,-0.305,2744.4444444444443
-0.485,-0.3,2747.222222222222
-0.5,-0.305,2750.0
-0.51,-0.315,2752.777777777778
-0.53,-0.305,2755.5555555555557
-0.55,-0.29,2758.3333333333335
-0.555,-0.28,2761.1111111111113
-0.555,-0.285,2763.8888888888887
-0.58,-0.265,2766.6666666666665
-0.57,-0.26,2769.4444444444443
-0.58,-0.27,2772.222222222222
-0.6,-0.275,2775.0
-0.605,-0.285,2777.777777777778
-0.635,-0.295,2780.5555555555557
-0.645,-0.295,2783.3333333333335
-0.645,-0.29,2786.1111111111113
-0.66,-0.295,2788.8888888888887
-0.65,-0.275,2791.6666666666665
-0.65,-0.27,2794.4444444444443
-0.655,-0.265,2797.222222222222
-0.635,-0.27,2800.0
-0.635,-0.27,2802.777777777778
-0.645,-0.27,2805.5555555555557
-0.655,-0.285,2808.3333333333335
-0.66,-0.285,2811.1111111111113
-0.65,-0.3,2813.8888888888887
-0.67,-0.305,2816.6666666666665
-0.66,-0.31,2819.4444444444443
-0.655,-0.29,2822.222222222222
-0.66,-0.285,2825.0
-0.65,-0.28,2827.777777777778
-0.655,-0.27,2830.5555555555557
-0.645,-0.265,2833.3333333333335
-0.635,-0.27,2836.1111111111113
-0.63,-0.275,2838.8888888888887
-0.625,-0.285,2841.6666666666665
-0.63,-0.285,2844.4444444444443
-0.635,-0.29,2847.222222222222
-0.635,-0.305,2850.0
-0.63,-0.29,2852.777777777778
-0.63,-0.29,2855.5555555555557
-0.63,-0.285,2858.3333333333335
-0.61,-0.28,2861.1111111111113
-0.615,-0.285,2863.8888888888887
-0.61,-0.265,2866.6666666666665
-0.595,-0.28,2869.4444444444443
-0.59,-0.29,2872.222222222222
-0.59,-0.285,2875.0
-0.6,-0.29,2877.777777777778
-0.595,-0.31,2880.5555555555557
-0.6,-0.31,2883.3333333333335
-0.605,-0.31,2886.1111111111113
-0.605,-0.3,2888.8888888888887
-0.605,-0.295,2891.6666666666665
-0.595,-0.3,2894.4444444444443
-0.59,-0.29,2897.222222222222
-0.58,-0.285,2900.0
-0.585,-0.285,2902.777777777778
-0.58,-0.29,2905.5555555555557
-0.59,-0.305,2908.3333333333335
-0.6,-0.315,2911.1111111111113
-0.595,-0.305,2913.8888888888887
-0.605,-0.32,2916.6666666666665
-0.61,-0.325,2919.4444444444443
-0.605,-0.305,2922.222222222222
-0.61,-0.31,2925.0
-0.61,-0.295,2927.777777777778
-0.595,-0.295,2930.5555555555557
-0.59,-0.28,2933.3333333333335
-0.6,-0.295,2936.1111111111113
-0.605,-0.31,2938.8888888888887
-0.61,-0.31,2941.6666666666665
-0.625,-0.315,2944.4444444444443
-0.615,-0.33,2947.222222222222
-0.63,-0.33,2950.0
-0.635,-0.315,2952.777777777778
-0.635,-0.315,2955.5555555555557
-0.63,-0.305,2958.3333333333335
-0.62,-0.3,2961.1111111111113
-0.63,-0.3,2963.8888888888887
-0.615,-0.285,2966.6666666666665
-0.62,-0.3,2969.4444444444443
-0.61,-0.305,2972.222222222222
-0.615,-0.315,2975.0
-0.625,-0.32,2977.777777777778
-0.625,-0.325,2980.5555555555557
-0.645,-0.315,2983.3333333333335
-0.665,-0.33,2986.1111111111113
-0.645,-0.315,2988.8888888888887
-0.64,-0.325,2991.6666666666665
-0.64,-0.325,2994.4444444444443
-0.63,-0.305,2997.222222222222
-0.625,-0.29,3000.0
-0.62,-0.3,3002.777777777778
-0.615,-0.31,3005.5555555555557
-0.635,-0.315,3008.3333333333335
-0.63,-0.32,3011.1111111111113
-0.64,-0.33,3013.8888888888887
-0.64,-0.335,3016.6666666666665
-0.65,-0.325,3019.4444444444443
-0.65,-0.33,3022.222222222222
-0.635,-0.31,3025.0
-0.64,-0.315,3027.777777777778
-0.635,-0.305,3030.5555555555557
-0.64,-0.29,3033.3333333333335
-0.63,-0.31,3036.1111111111113
-0.63,-0.305,3038.8888888888887
-0.63,-0.315,3041.6666666666665
-0.64,-0.325,3044.4444444444443
-0.645,-0.34,3047.222222222222
-0.65,-0.33,3050.0
-0.65,-0.33,3052.777777777778
-0.66,-0.325,3055.5555555555557
-0.655,-0.315,3058.3333333333335
-0.655,-0.315,3061.1111111111113
-0.64,-0.3,3063.8888888888887
-0.645,-0.305,3066.6666666666665
-0.635,-0.315,3069.4444444444443
-0.635,-0.32,3072.222222222222
-0.64,-0.32,3075.0
-0.65,-0.33,3077.777777777778
-0.655,-0.33,3080.5555555555557
-0.65,-0.335,3083.3333333333335
-0.655,-0.33,3086.1111111111113
-0.64,-0.335,3088.8888888888887
-0.66,-0.335,3091.6666666666665
-0.66,-0.315,3094.4444444444443
-0.64,-0.315,3097.222222222222
-0.625,-0.3,3100.0
-0.63,-0.32,3102.777777777778
-0.63,-0.315,3105.5555555555557
-0.635,-0.32,3108.3333333333335
-0.66,-0.325,3111.1111111111113
-0.64,-0.33,3113.8888888888887
-0.655,-0.335,3116.6666666666665
-0.645,-0.32,3119.4444444444443
-0.635,-0.305,3122.222222222222
-0.63,-0.285,3125.0
-0.64,-0.28,3127.777777777778
-0.61,-0.275,3130.5555555555557
-0.61,-0.255,3133.3333333333335
-0.605,-0.255,3136.1111111111113
-0.59,-0.255,3138.8888888888887
-0.57,-0.265,3141.6666666666665
-0.565,-0.265,3144.4444444444443
-0.58,-0.28,3147.222222222222
-0.58,-0.3,3150.0
-0.565,-0.3,3152.777777777778
-0.55,-0.295,3155.5555555555557
-0.55,-0.305,3158.3333333333335
-0.535,-0.295,3161.1111111111113
-0.51,-0.31,3163.8888888888887
-0.505,-0.31,3166.6666666666665
-0.495,-0.31,3169.4444444444443
-0.49,-0.31,3172.222222222222
-0.485,-0.315,3175.0
-0.49,-0.315,3177.777777777778
-0.505,-0.32,3180.5555555555557
-0.505,-0.335,3183.3333333333335
-0.53,-0.325,3186.1111111111113
-0.53,-0.315,3188.8888888888887
-0.53,-0.31,3191.6666666666665
-0.53,-0.31,3194.4444444444443
-0.515,-0.29,3197.222222222222
-0.5,-0.295,3200.0
-0.5,-0.3,3202.777777777778
-0.5,-0.305,3205.5555555555557
-0.51,-0.315,3208.3333333333335
-0.53,-0.33,3211.1111111111113
-0.54,-0.34,3213.8888888888887
-0.565,-0.35,3216.6666666666665
-0.58,-0.345,3219.4444444444443
-0.59,-0.34,3222.222222222222
-0.6,-0.325,3225.0
-0.62,-0.335,3227.777777777778
-0.61,-0.325,3230.5555555555557
-0.61,-0.32,3233.3333333333335
-0.605,-0.33,3236.1111111111113
-0.615,-0.325,3238.8888888888887
-0.61,-0.345,3241.6666666666665
-0.625,-0.35,3244.4444444444443
-0.63,-0.345,3247.222222222222
-0.64,-0.36,3250.0
-0.64,-0.355,3252.777777777778
-0.64,-0.35,3255.5555555555557
-0.63,-0.34,3258.3333333333335
-0.63,-0.33,3261.1111111111113
-0.64,-0.325,3263.8888888888887
-0.625,-0.32,3266.6666666666665
-0.62,-0.325,3269.4444444444443
-0.625,-0.34,3272.222222222222
-0.63,-0.34,3275.0
-0.635,-0.34,3277.777777777778
-0.635,-0.34,3280.5555555555557
-0.65,-0.35,3283.3333333333335
-0.635,-0.35,3286.1111111111113
-0.645,-0.345,3288.8888888888887
-0.635,-0.33,3291.6666666666665
-0.635,-0.33,3294.4444444444443
-0.615,-0.315,3297.222222222222
-0.61,-0.31,3300.0
-0.61,-0.315,3302.777777777778
-0.6,-0.32,3305.5555555555557
-0.595,-0.33,3308.3333333333335
-0.605,-0.34,3311.1111111111113
-0.595,-0.34,3313.8888888888887
-0.605,-0.32,3316.6666666666665
-0.595,-0.315,3319.4444444444443
-0.59,-0.3,3322.222222222222
-0.585,-0.275,3325.0
-0.575,-0.27,3327.777777777778
-0.545,-0.265,3330.5555555555557
-0.53,-0.29,3333.3333333333335
-0.52,-0.365,3336.1111111111113
-0.495,-0.42,3338.8888888888887
-0.445,-0.51,3341.6666666666665
-0.365,-0.61,3344.4444444444443
-0.235,-0.71,3347.222222222222
-0.035,-0.77,3350.0
0.225,-0.815,3352.777777777778
0.575,-0.81,3355.5555555555557
0.95,-0.765,3358.3333333333335
1.305,-0.705,3361.1111111111113
1.595,-0.615,3363.8888888888887
1.745,-0.53,3366.6666666666665
1.695,-0.46,3369.4444444444443
1.43,-0.415,3372.222222222222
0.96,-0.375,3375.0
0.34,-0.38,3377.777777777778
-0.28,-0.38,3380.5555555555557
-0.83,-0.4,3383.3333333333335
-1.22,-0.415,3386.1111111111113
-1.375,-0.425,3388.8888888888887
-1.32,-0.415,3391.6666666666665
-1.12,-0.385,3394.4444444444443
-0.9,-0.35,3397.222222222222
-0.7,-0.305,3400.0
-0.55,-0.275,3402.777777777778
-0.475,-0.255,3405.5555555555557
-0.445,-0.245,3408.3333333333335
-0.445,-0.265,3411.1111111111113
-0.48,-0.28,3413.8888888888887
-0.51,-0.285,3416.6666666666665
-0.545,-0.285,3419.4444444444443
-0.55,-0.28,3422.222222222222
-0.55,-0.265,3425.0
-0.545,-0.255,3427.777777777778
-0.535,-0.255,3430.5555555555557
-0.525,-0.26,3433.3333333333335
-0.51,-0.26,3436.1111111111113
-0.505,-0.255,3438.8888888888887
-0.515,-0.265,3441.6666666666665
-0.52,-0.27,3444.4444444444443
-0.525,-0.29,3447.222222222222
-0.53,-0.28,3450.0
-0.535,-0.275,3452.777777777778
-0.53,-0.265,3455.5555555555557
-0.53,-0.27,3458.3333333333335
-0.515,-0.265,3461.1111111111113
-0.515,-0.26,3463.8888888888887
-0.505,-0.25,3466.6666666666665
-0.505,-0.26,3469.4444444444443
-0.5,-0.265,3472.222222222222
-0.5,-0.28,3475.0
-0.52,-0.28,3477.777777777778
-0.515,-0.285,3480.5555555555557
-0.52,-0.28,3483.3333333333335
-0.535,-0.295,3486.1111111111113
-0.53,-0.28,3488.8888888888887
-0.515,-0.28,3491.6666666666665
-0.505,-0.25,3494.4444444444443
-0.5,-0.255,3497.222222222222
-0.5,-0.245,3500.0
-0.495,-0.265,3502.777777777778
-0.495,-0.27,3505.5555555555557
-0.495,-0.275,3508.3333333333335
-0.51,-0.28,3511.1111111111113
-0.505,-0.285,3513.8888888888887
-0.515,-0.3,3516.6666666666665
-0.515,-0.29,3519.4444444444443
-0.515,-0.28,3522.222222222222
-0.515,-0.27,3525.0
-0.5,-0.27,3527.777777777778
-0.495,-0.265,3530.5555555555557
-0.49,-0.255,3533.3333333333335
-0.485,-0.26,3536.1111111111113
-0.485,-0.265,3538.8888888888887
-0.495,-0.28,3541.6666666666665
-0.495,-0.275,3544.4444444444443
-0.505,-0.295,3547.222222222222
-0.52,-0.29,3550.0
-0.51,-0.285,3552.777777777778
-0.52,-0.285,3555.5555555555557
-0.51,-0.295,3558.3333333333335
-0.5,-0.28,3561.1111111111113
-0.49,-0.27,3563.8888888888887
-0.49,-0.26,3566.6666666666665
-0.5,-0.265,3569.4444444444443
-0.48,-0.285,3572.222222222222
-0.48,-0.275,3575.0
-0.48,-0.29,3577.777777777778
-0.48,-0.295,3580.5555555555557
-0.49,-0.305,3583.3333333333335
-0.5,-0.3,3586.1111111111113
-0.495,-0.285,3588.8888888888887
-0.49,-0.275,3591.6666666666665
-0.48,-0.27,3594.4444444444443
-0.47,-0.27,3597.222222222222
-0.46,-0.265,3600.0
-0.45,-0.275,3602.777777777778
-0.455,-0.28,3605.5555555555557
-0.45,-0.29,3608.3333333333335
-0.45,-0.295,3611.1111111111113
-0.47,-0.295,3613.8888888888887
-0.475,-0.305,3616.6666666666665
-0.475,-0.305,3619.4444444444443
-0.465,-0.305,3622.222222222222
-0.46,-0.28,3625.0
-0.455,-0.28,3627.777777777778
-0.43,-0.26,3630.5555555555557
-0.425,-0.27,3633.3333333333335
-0.415,-0.27,3636.1111111111113
-0.415,-0.27,3638.8888888888887
-0.425,-0.28,3641.6666666666665
-0.425,-0.285,3644.4444444444443
-0.425,-0.305,3647.222222222222
-0.43,-0.3,3650.0
-0.425,-0.3,3652.777777777778
-0.43,-0.295,3655.5555555555557
-0.415,-0.285,3658.3333333333335
-0.415,-0.275,3661.1111111111113
-0.405,-0.275,3663.8888888888887
-0.405,-0.27,3666.6666666666665
-0.395,-0.27,3669.4444444444443
-0.39,-0.27,3672.222222222222
-0.395,-0.29,3675.0
-0.4,-0.3,3677.777777777778
-0.395,-0.3,3680.5555555555557
-0.405,-0.305,3683.3333333333335
-0.405,-0.305,3686.1111111111113
-0.405,-0.295,3688.8888888888887
-0.415,-0.285,3691.6666666666665
-0.4,-0.3,3694.4444444444443
-0.38,-0.285,3697.222222222222
-0.37,-0.28,3700.0
-0.37,-0.28,3702.777777777778
-0.38,-0.3,3705.5555555555557
-0.38,-0.295,3708.3333333333335
-0.38,-0.3,3711.1111111111113
-0.37,-0.315,3713.8888888888887
-0.38,-0.325,3716.6666666666665
-0.38,-0.32,3719.4444444444443
-0.37,-0.31,3722.222222222222
-0.385,-0.315,3725.0
-0.38,-0.295,3727.777777777778
-0.37,-0.285,3730.5555555555557
-0.36,-0.275,3733.3333333333335
-0.37,-0.295,3736.1111111111113
-0.365,-0.29,3738.8888888888887
-0.385,-0.295,3741.6666666666665
-0.4,-0.3,3744.4444444444443
-0.435,-0.315,3747.222222222222
-0.445,-0.305,3750.0
-0.46,-0.3,3752.777777777778
-0.475,-0.285,3755.5555555555557
-0.49,-0.29,3758.3333333333335
-0.49,-0.28,3761.1111111111113
-0.505,-0.275,3763.8888888888887
-0.51,-0.255,3766.6666666666665
-0.51,-0.265,3769.4444444444443
-0.525,-0.26,3772.222222222222
-0.535,-0.265,3775.0
-0.555,-0.275,3777.777777777778
-0.57,-0.285,3780.5555555555557
-0.575,-0.285,3783.3333333333335
-0.595,-0.28,3786.1111111111113
-0.59,-0.27,3788.8888888888887
-0.605,-0.27,3791.6666666666665
-0.6,-0.255,3794.4444444444443
-0.6,-0.26,3797.222222222222
-0.615,-0.245,3800.0
-0.59,-0.25,3802.777777777778
-0.6,-0.265,3805.5555555555557
-0.595,-0.275,3808.3333333333335
-0.6,-0.265,3811.1111111111113
-0.62,-0.265,3813.8888888888887
-0.62,-0.27,3816.6666666666665
-0.62,-0.27,3819.4444444444443
-0.61,-0.265,3822.222222222222
-0.61,-0.255,3825.0
-0.6,-0.26,3827.777777777778
-0.605,-0.25,3830.5555555555557
-0.595,-0.245,3833.3333333333335
-0.59,-0.255,3836.1111111111113
-0.585,-0.25,3838.8888888888887
-0.585,-0.265,3841.6666666666665
-0.59,-0.265,3844.4444444444443
-0.59,-0.265,3847.222222222222
-0.595,-0.26,3850.0
-0.61,-0.275,3852.777777777778
-0.6,-0.27,3855.5555555555557
-0.595,-0.255,3858.3333333333335
-0.585,-0.255,3861.1111111111113
-0.58,-0.245,3863.8888888888887
-0.57,-0.255,3866.6666666666665
-0.575,-0.245,3869.4444444444443
-0.575,-0.25,3872.222222222222
-0.565,-0.26,3875.0
-0.58,-0.265,3877.777777777778
-0.575,-0.275,3880.5555555555557
-0.575,-0.275,3883.3333333333335
-0.575,-0.28,3886.1111111111113
-0.57,-0.26,3888.8888888888887
-0.585,-0.26,3891.6666666666665
-0.555,-0.265,3894.4444444444443
-0.56,-0.245,3897.222222222222
-0.555,-0.245,3900.0
-0.55,-0.25,3902.777777777778
-0.56,-0.26,3905.5555555555557
-0.555,-0.27,3908.3333333333335
-0.555,-0.275,3911.1111111111113
-0.565,-0.28,3913.8888888888887
-0.575,-0.28,3916.6666666666665
-0.56,-0.285,3919.4444444444443
-0.565,-0.285,3922.222222222222
-0.56,-0.275,3925.0
-0.565,-0.265,3927.777777777778
-0.555,-0.265,3930.5555555555557
-0.555,-0.26,3933.3333333333335
-0.55,-0.265,3936.1111111111113
-0.55,-0.27,3938.8888888888887
-0.555,-0.27,3941.6666666666665
-0.565,-0.28,3944.4444444444443
-0.57,-0.285,3947.222222222222
-0.58,-0.295,3950.0
-0.585,-0.295,3952.777777777778
-0.585,-0.28,3955.5555555555557
-0.6,-0.285,3958.3333333333335
-0.605,-0.285,3961.1111111111113
-0.59,-0.28,3963.8888888888887
-0.585,-0.27,3966.6666666666665
-0.59,-0.27,3969.4444444444443
-0.585,-0.285,3972.222222222222
-0.59,-0.28,3975.0
-0.59,-0.285,3977.777777777778
-0.595,-0.29,3980.5555555555557
-0.605,-0.29,3983.3333333333335
-0.62,-0.3,3986.1111111111113
-0.605,-0.29,3988.8888888888887
-0.615,-0.28,3991.6666666666665
-0.605,-0.28,3994.4444444444443
-0.6,-0.27,3997.222222222222
-0.585,-0.26,4000.0
-0.595,-0.265,4002.777777777778
-0.6,-0.285,4005.5555555555557
-0.595,-0.28,4008.3333333333335
-0.605,-0.285,4011.1111111111113
-0.62,-0.3,4013.8888888888887
-0.62,-0.3,4016.6666666666665
-0.625,-0.3,4019.4444444444443
-0.62,-0.295,4022.222222222222
-0.62,-0.29,4025.0
-0.615,-0.285,4027.777777777778
-0.605,-0.28,4030.5555555555557
-0.605,-0.27,4033.3333333333335
-0.605,-0.28,4036.1111111111113
-0.605,-0.295,4038.8888888888887
-0.61,-0.295,4041.6666666666665
-0.61,-0.29,4044.4444444444443
-0.615,-0.3,4047.222222222222
-0.615,-0.305,4050.0
-0.63,-0.305,4052.777777777778
-0.635,-0.295,4055.5555555555557
-0.635,-0.3,4058.3333333333335
-0.62,-0.29,4061.1111111111113
-0.61,-0.275,4063.8888888888887
-0.605,-0.265,4066.6666666666665
-0.6,-0.275,4069.4444444444443
-0.61,-0.285,4072.222222222222
-0.605,-0.295,4075.0
-0.62,-0.29,4077.777777777778
-0.625,-0.3,4080.5555555555557
-0.625,-0.3,4083.3333333333335
-0.63,-0.295,4086.1111111111113
-0.625,-0.305,4088.8888888888887
-0.63,-0.29,4091.6666666666665
-0.625,-0.275,4094.4444444444443
-0.605,-0.28,4097.222222222223
-0.61,-0.27,4100.0
-0.6,-0.27,4102.777777777777
-0.61,-0.27,4105.555555555556
-0.6,-0.285,4108.333333333333
-0.62,-0.29,4111.111111111111
-0.61,-0.295,4113.888888888889
-0.625,-0.295,4116.666666666667
-0.62,-0.3,4119.444444444444
-0.615,-0.295,4122.222222222223
-0.62,-0.29,4125.0
-0.62,-0.28,4127.777777777777
-0.61,-0.28,4130.555555555556
-0.6,-0.27,4133.333333333333
-0.61,-0.275,4136.111111111111
-0.595,-0.27,4138.888888888889
-0.6,-0.29,4141.666666666667
-0.61,-0.305,4144.444444444444
-0.61,-0.29,4147.222222222223
-0.62,-0.305,4150.0
-0.63,-0.305,4152.777777777777
-0.615,-0.305,4155.555555555556
-0.63,-0.295,4158.333333333333
-0.625,-0.285,4161.111111111111
-0.62,-0.29,4163.888888888889
-0.615,-0.27,4166.666666666667
-0.605,-0.285,4169.444444444444
-0.6,-0.285,4172.222222222223
-0.595,-0.29,4175.0
-0.615,-0.29,4177.777777777777
-0.615,-0.295,4180.555555555556
-0.62,-0.305,4183.333333333333
-0.615,-0.305,4186.111111111111
-0.62,-0.28,4188.888888888889
-0.62,-0.285,4191.666666666667
-0.615,-0.275,4194.444444444444
-0.605,-0.275,4197.222222222223
-0.6,-0.265,4200.0
-0.595,-0.275,4202.777777777777
-0.61,-0.285,4205.555555555556
-0.615,-0.29,4208.333333333333
-0.61,-0.295,4211.111111111111
-0.62,-0.29,4213.888888888889
-0.625,-0.3,4216.666666666667
-0.635,-0.305,4219.444444444444
-0.62,-0.29,4222.222222222223
-0.605,-0.285,4225.0
-0.6,-0.275,4227.777777777777
-0.61,-0.265,4230.555555555556
-0.6,-0.26,4233.333333333333
-0.6,-0.27,4236.111111111111
-0.605,-0.27,4238.888888888889
-0.595,-0.28,4241.666666666667
-0.615,-0.285,4244.444444444444
-0.62,-0.29,4247.222222222223
-0.625,-0.29,4250.0
-0.625,-0.285,4252.777777777777
-0.61,-0.295,4255.555555555556
-0.61,-0.275,4258.333333333333
-0.6,-0.265,4261.111111111111
-0.6,-0.265,4263.888888888889
-0.59,-0.255,4266.666666666667
-0.59,-0.265,4269.444444444444
-0.595,-0.27,4272.222222222223
-0.595,-0.265,4275.0
-0.605,-0.275,4277.777777777777
-0.615,-0.28,4280.555555555556
-0.625,-0.295,4283.333333333333
-0.625,-0.28,4286.111111111111
-0.635,-0.265,4288.888888888889
-0.62,-0.255,4291.666666666667
-0.615,-0.245,4294.444444444444
-0.6,-0.235,4297.222222222223
-0.59,-0.22,4300.0
-0.58,-0.215,4302.777777777777
-0.585,-0.205,4305.555555555556
-0.57,-0.205,4308.333333333333
-0.565,-0.21,4311.111111111111
-0.58,-0.215,4313.888888888889
-0.565,-0.22,4316.666666666667
-0.55,-0.225,4319.444444444444
-0.54,-0.23,4322.222222222223
-0.53,-0.235,4325.0
-0.5,-0.235,4327.777777777777
-0.485,-0.255,4330.555555555556
-0.48,-0.255,4333.333333333333
-0.46,-0.26,4336.111111111111
-0.465,-0.255,4338.888888888889
-0.46,-0.26,4341.666666666667
-0.46,-0.265,4344.444444444444
-0.47,-0.255,4347.222222222223
-0.49,-0.265,4350.0
-0.5,-0.27,4352.777777777777
-0.49,-0.27,4355.555555555556
-0.495,-0.26,4358.333333333333
-0.485,-0.255,4361.111111111111
-0.485,-0.25,4363.888888888889
-0.47,-0.235,4366.666666666667
-0.46,-0.23,4369.444444444444
-0.47,-0.26,4372.222222222223
-0.47,-0.255,4375.0
-0.5,-0.265,4377.777777777777
-0.515,-0.285,4380.555555555556
-0.545,-0.29,4383.333333333333
-0.56,-0.29,4386.111111111111
-0.575,-0.28,4388.888888888889
-0.58,-0.285,4391.666666666667
-0.59,-0.275,4394.444444444444
-0.585,-0.27,4397.222222222223
-0.575,-0.265,4400.0
-0.57,-0.26,4402.777777777777
-0.58,-0.27,4405.555555555556
-0.59,-0.275,4408.333333333333
-0.585,-0.28,4411.111111111111
-0.595,-0.28,4413.888888888889
-0.61,-0.295,4416.666666666667
-0.62,-0.295,4419.444444444444
-0.63,-0.285,4422.222222222223
-0.62,-0.285,4425.0
-0.615,-0.27,4427.777777777777
-0.62,-0.26,4430.555555555556
-0.615,-0.26,4433.333333333333
-0.59,-0.255,4436.111111111111
-0.59,-0.28,4438.888888888889
-0.59,-0.285,4441.666666666667
-0.6,-0.29,4444.444444444444
-0.61,-0.285,4447.222222222223
-0.625,-0.3,4450.0
-0.62,-0.29,4452.777777777777
-0.63,-0.285,4455.555555555556
-0.6,-0.27,4458.333333333333
-0.6,-0.27,4461.111111111111
-0.605,-0.265,4463.888888888889
-0.59,-0.255,4466.666666666667
-0.58,-0.26,4469.444444444444
-0.595,-0.26,4472.222222222223
-0.585,-0.265,4475.0
-0.58,-0.27,4477.777777777777
-0.575,-0.26,4480.555555555556
-0.58,-0.245,4483.333333333333
-0.57,-0.235,4486.111111111111
-0.555,-0.23,4488.888888888889
-0.55,-0.24,4491.666666666667
-0.535,-0.25,4494.444444444444
-0.52,-0.285,4497.222222222223
-0.505,-0.335,4500.0
-0.465,-0.405,4502.777777777777
-0.415,-0.495,4505.555555555556
-0.33,-0.585,4508.333333333333
-0.2,-0.675,4511.111111111111
-0.015,-0.735,4513.888888888889
0.225,-0.76,4516.666666666667
0.565,-0.735,4519.444444444444
0.94,-0.66,4522.222222222223
1.295,-0.565,4525.0
1.545,-0.465,4527.777777777777
1.58,-0.355,4530.555555555556
1.32,-0.29,4533.333333333333
0.785,-0.25,4536.111111111111
0.145,-0.27,4538.888888888889
-0.495,-0.295,4541.666666666667
-1.135,-0.345,4544.444444444444
-1.35,-0.355,4547.222222222223
-1.31,-0.34,4550.0
-1.1,-0.305,4552.777777777777
-0.84,-0.26,4555.555555555556
-0.595,-0.215,4558.333333333333
-0.445,-0.19,4561.111111111111
-0.38,-0.18,4563.888888888889
-0.38,-0.19,4566.666666666667
-0.43,-0.205,4569.444444444444
-0.47,-0.19,4572.222222222223
-0.515,-0.2,4575.0
-0.545,-0.22,4577.777777777777
-0.545,-0.215,4580.555555555556
-0.545,-0.22,4583.333333333333
-0.54,-0.215,4586.111111111111
-0.525,-0.21,4588.888888888889
-0.525,-0.21,4591.666666666667
-0.51,-0.195,4594.444444444444
-0.52,-0.195,4597.222222222223
-0.515,-0.185,4600.0
-0.505,-0.195,4602.777777777777
-0.505,-0.2,4605.555555555556
-0.515,-0.2,4608.333333333333
-0.515,-0.2,4611.111111111111
-0.51,-0.215,4613.888888888889
-0.52,-0.22,4616.666666666667
-0.525,-0.225,4619.444444444444
-0.52,-0.215,4622.222222222223
-0.515,-0.21,4625.0
-0.51,-0.195,4627.777777777777
-0.505,-0.19,4630.555555555556
-0.5,-0.19,4633.333333333333
-0.485,-0.19,4636.111111111111
-0.49,-0.2,4638.888888888889
-0.49,-0.2,4641.666666666667
-0.49,-0.21,4644.444444444444
-0.5,-0.225,4647.222222222223
-0.51,-0.205,4650.0
-0.515,-0.215,4652.777777777777
-0.51,-0.21,4655.555555555556
-0.505,-0.205,4658.333333333333
-0.5,-0.205,4661.111111111111
-0.505,-0.2,4663.888888888889
-0.5,-0.195,4666.666666666667
-0.5,-0.2,4669.444444444444
-0.495,-0.205,4672.222222222223
-0.51,-0.21,4675.0
-0.505,-0.22,4677.777777777777
-0.52,-0.23,4680.555555555556
-0.52,-0.225,4683.333333333333
-0.505,-0.23,4686.111111111111
-0.5,-0.23,4688.888888888889
-0.5,-0.22,4691.666666666667
-0.485,-0.215,4694.444444444444
-0.49,-0.2,4697.222222222223
-0.475,-0.21,4700.0
-0.49,-0.215,4702.777777777777
-0.465,-0.215,4705.555555555556
-0.48,-0.225,4708.333333333333
-0.485,-0.22,4711.111111111111
-0.495,-0.235,4713.888888888889
-0.5,-0.23,4716.666666666667
-0.5,-0.245,4719.444444444444
-0.51,-0.23,4722.222222222223
-0.5,-0.23,4725.0
-0.495,-0.22,4727.777777777777
-0.495,-0.215,4730.555555555556
-0.48,-0.2,4733.333333333333
-0.47,-0.21,4736.111111111111
-0.455,-0.22,4738.888888888889
-0.47,-0.23,4741.666666666667
-0.47,-0.225,4744.444444444444
-0.475,-0.25,4747.222222222223
-0.47,-0.24,4750.0
-0.48,-0.24,4752.777777777777
-0.485,-0.235,4755.555555555556
-0.465,-0.23,4758.333333333333
-0.47,-0.235,4761.111111111111
-0.455,-0.225,4763.888888888889
-0.45,-0.21,4766.666666666667
-0.435,-0.22,4769.444444444444
-0.45,-0.23,4772.222222222223
-0.45,-0.225,4775.0
-0.445,-0.24,4777.777777777777
-0.46,-0.24,4780.555555555556
-0.45,-0.25,4783.333333333333
-0.455,-0.245,4786.111111111111
-0.45,-0.245,4788.888888888889
-0.445,-0.24,4791.666666666667
-0.44,-0.225,4794.444444444444
-0.445,-0.225,4797.222222222223
-0.425,-0.22,4800.0
-0.425,-0.215,4802.777777777777
-0.41,-0.23,4805.555555555556
-0.43,-0.24,4808.333333333333
-0.43,-0.24,4811.111111111111
-0.43,-0.255,4813.888888888889
-0.42,-0.26,4816.666666666667
-0.425,-0.265,4819.444444444444
-0.43,-0.25,4822.222222222223
-0.425,-0.25,4825.0
-0.425,-0.245,4827.777777777777
-0.43,-0.24,4830.555555555556
-0.42,-0.235,4833.333333333333
-0.405,-0.24,4836.111111111111
-0.41,-0.24,4838.888888888889
-0.42,-0.245,4841.666666666667
-0.42,-0.25,4844.444444444444
-0.43,-0.26,4847.222222222223
-0.435,-0.26,4850.0
-0.445,-0.27,4852.777777777777
-0.445,-0.26,4855.555555555556
-0.445,-0.255,4858.333333333333
-0.445,-0.24,4861.111111111111
-0.445,-0.24,4863.888888888889
-0.43,-0.23,4866.666666666667
-0.43,-0.24,4869.444444444444
-0.425,-0.255,4872.222222222223
-0.425,-0.24,4875.0
-0.42,-0.26,4877.777777777777
-0.43,-0.26,4880.555555555556
-0.42,-0.265,4883.333333333333
-0.43,-0.265,4886.111111111111
-0.43,-0.255,4888.888888888889
-0.435,-0.245,4891.666666666667
-0.43,-0.245,4894.444444444444
-0.425,-0.23,4897.222222222223
-0.425,-0.22,4900.0
-0.43,-0.22,4902.777777777777
-0.45,-0.225,4905.555555555556
-0.46,-0.225,4908.333333333333
-0.47,-0.23,4911.111111111111
-0.495,-0.235,4913.888888888889
-0.5,-0.235,4916.666666666667
-0.52,-0.23,4919.444444444444
-0.535,-0.215,4922.222222222223
-0.535,-0.22,4925.0
-0.555,-0.21,4927.777777777777
-0.57,-0.195,4930.555555555556
-0.565,-0.18,4933.333333333333
-0.56,-0.19,4936.111111111111
-0.565,-0.2,4938.888888888889
-0.575,-0.2,4941.666666666667
-0.585,-0.2,4944.444444444444
-0.59,-0.205,4947.222222222223
-0.605,-0.21,4950.0
-0.615,-0.21,4952.777777777777
-0.605,-0.22,4955.555555555556
-0.62,-0.205,4958.333333333333
-0.62,-0.195,4961.111111111111
-0.615,-0.19,4963.888888888889
-0.595,-0.185,4966.666666666667
-0.595,-0.18,4969.444444444444
-0.6,-0.19,4972.222222222223
-0.6,-0.19,4975.0
-0.605,-0.21,4977.777777777777
-0.625,-0.21,4980.555555555556
-0.63,-0.22,4983.333333333333
-0.63,-0.21,4986.111111111111
-0.615,-0.2,4988.888888888889
-0.615,-0.205,4991.666666666667
-0.615,-0.195,4994.444444444444
-0.61,-0.185,4997.222222222223
-0.605,-0.195,5000.0
-0.58,-0.18,5002.777777777777
-0.58,-0.19,5005.555555555556
-0.59,-0.2,5008.333333333333
-0.6,-0.2,5011.111111111111
-0.6,-0.21,5013.888888888889
-0.595,-0.22,5016.666666666667
-0.595,-0.215,5019.444444444444
-0.59,-0.2,5022.222222222223
-0.6,-0.21,5025.0
-0.59,-0.19,5027.777777777777
-0.585,-0.195,5030.555555555556
-0.585,-0.185,5033.333333333333
-0.56,-0.195,5036.111111111111
-0.58,-0.2,5038.888888888889
-0.57,-0.195,5041.666666666667
-0.58,-0.195,5044.444444444444
-0.59,-0.205,5047.222222222223
-0.6,-0.22,5050.0
-0.595,-0.215,5052.777777777777
-0.595,-0.225,5055.555555555556
-0.595,-0.205,5058.333333333333
-0.585,-0.205,5061.111111111111
-0.57,-0.2,5063.888888888889
-0.565,-0.185,5066.666666666667
-0.565,-0.19,5069.444444444444
-0.565,-0.195,5072.222222222223
-0.575,-0.2,5075.0
-0.565,-0.215,5077.777777777777
-0.57,-0.22,5080.555555555556
-0.585,-0.225,5083.333333333333
-0.595,-0.225,5086.111111111111
-0.605,-0.22,5088.888888888889
-0.605,-0.225,5091.666666666667
-0.585,-0.21,5094.444444444444
-0.595,-0.205,5097.222222222223
-0.585,-0.2,5100.0
-0.585,-0.19,5102.777777777777
-0.585,-0.21,5105.555555555556
-0.6,-0.205,5108.333333333333
-0.59,-0.21,5111.111111111111
-0.595,-0.22,5113.888888888889
-0.605,-0.22,5116.666666666667
-0.62,-0.23,5119.444444444444
-0.62,-0.225,5122.222222222223
-0.625,-0.22,5125.0
-0.63,-0.21,5127.777777777777
-0.62,-0.215,5130.555555555556
-0.6,-0.2,5133.333333333333
-0.6,-0.215,5136.111111111111
-0.605,-0.19,5138.888888888889
-0.61,-0.2,5141.666666666667
-0.62,-0.22,5144.444444444444
-0.63,-0.22,5147.222222222223
-0.635,-0.235,5150.0
-0.655,-0.24,5152.777777777777
-0.635,-0.22,5155.555555555556
-0.645,-0.22,5158.333333333333
-0.635,-0.21,5161.111111111111
-0.645,-0.195,5163.888888888889
-0.645,-0.2,5166.666666666667
-0.64,-0.205,5169.444444444444
-0.62,-0.21,5172.222222222223
-0.63,-0.215,5175.0
-0.635,-0.225,5177.777777777777
-0.64,-0.225,5180.555555555556
-0.645,-0.225,5183.333333333333
-0.645,-0.24,5186.111111111111
-0.655,-0.23,5188.888888888889
-0.65,-0.22,5191.666666666667
-0.645,-0.205,5194.444444444444
-0.65,-0.21,5197.222222222223
-0.64,-0.21,5200.0
-0.635,-0.195,5202.777777777777
-0.63,-0.2,5205.555555555556
-0.635,-0.215,5208.333333333333
-0.64,-0.22,5211.111111111111
-0.645,-0.23,5213.888888888889
-0.66,-0.235,5216.666666666667
-0.66,-0.23,5219.444444444444
-0.655,-0.225,5222.222222222223
-0.655,-0.22,5225.0
-0.65,-0.215,5227.777777777777
-0.645,-0.21,5230.555555555556
-0.635,-0.195,5233.333333333333
-0.63,-0.2,5236.111111111111
-0.63,-0.2,5238.888888888889
-0.645,-0.21,5241.666666666667
-0.635,-0.215,5244.444444444444
-0.655,-0.225,5247.222222222223
-0.67,-0.215,5250.0
-0.67,-0.22,5252.777777777777
-0.68,-0.215,5255.555555555556
-0.655,-0.2,5258.333333333333
-0.665,-0.185,5261.111111111111
-0.655,-0.17,5263.888888888889
-0.645,-0.155,5266.666666666667
-0.63,-0.155,5269.444444444444
-0.63,-0.17,5272.222222222223
-0.62,-0.165,5275.0
-0.62,-0.165,5277.777777777777
-0.63,-0.155,5280.555555555556
-0.625,-0.17,5283.333333333333
-0.615,-0.175,5286.111111111111
-0.61,-0.16,5288.888888888889
-0.6,-0.175,5291.666666666667
-0.58,-0.185,5294.444444444444
-0.565,-0.185,5297.222222222223
-0.56,-0.2,5300.0
-0.545,-0.185,5302.777777777777
-0.535,-0.205,5305.555555555556
-0.525,-0.205,5308.333333333333
-0.515,-0.21,5311.111111111111
-0.52,-0.21,5313.888888888889
-0.525,-0.21,5316.666666666667
-0.525,-0.215,5319.444444444444
-0.54,-0.215,5322.222222222223
-0.55,-0.21,5325.0
-0.55,-0.21,5327.777777777777
-0.54,-0.195,5330.555555555556
-0.555,-0.195,5333.333333333333
-0.53,-0.18,5336.111111111111
-0.53,-0.2,5338.888888888889
-0.54,-0.215,5341.666666666667
-0.535,-0.22,5344.444444444444
-0.555,-0.225,5347.222222222223
-0.58,-0.235,5350.0
-0.605,-0.235,5352.777777777777
-0.625,-0.25,5355.555555555556
-0.63,-0.25,5358.333333333333
-0.64,-0.235,5361.111111111111
-0.65,-0.22,5363.888888888889
-0.635,-0.23,5366.666666666667
-0.635,-0.225,5369.444444444444
-0.645,-0.225,5372.222222222223
-0.625,-0.225,5375.0
-0.635,-0.235,5377.777777777777
-0.65,-0.24,5380.555555555556
-0.665,-0.245,5383.333333333333
-0.665,-0.255,5386.111111111111
-0.67,-0.24,5388.888888888889
-0.67,-0.24,5391.666666666667
-0.67,-0.225,5394.444444444444
-0.67,-0.215,5397.222222222223
-0.655,-0.215,5400.0
-0.665,-0.21,5402.777777777777
-0.65,-0.22,5405.555555555556
-0.645,-0.225,5408.333333333333
-0.665,-0.22,5411.111111111111
-0.675,-0.245,5413.888888888889
-0.66,-0.245,5416.666666666667
-0.675,-0.235,5419.444444444444
-0.68,-0.225,5422.222222222223
-0.68,-0.23,5425.0
-0.665,-0.23,5427.777777777777
-0.665,-0.22,5430.555555555556
-0.65,-0.215,5433.333333333333
-0.635,-0.215,5436.111111111111
-0.635,-0.22,5438.888888888889
-0.625,-0.21,5441.666666666667
-0.63,-0.22,5444.444444444444
-0.63,-0.21,5447.222222222223
-0.625,-0.205,5450.0
-0.63,-0.2,5452.777777777777
-0.61,-0.2,5455.555555555556
-0.61,-0.22,5458.333333333333
-0.61,-0.255,5461.111111111111
-0.575,-0.295,5463.888888888889
-0.54,-0.36,5466.666666666667
-0.47,-0.425,5469.444444444444
-0.385,-0.525,5472.222222222223
-0.235,-0.595,5475.0
-0.03,-0.635,5477.777777777777
0.28,-0.65,5480.555555555556
0.62,-0.615,5483.333333333333
0.99,-0.555,5486.111111111111
1.335,-0.475,5488.888888888889
1.585,-0.39,5491.666666666667
1.67,-0.31,5494.444444444444
1.555,-0.245,5497.222222222223
1.21,-0.19,5500.0
0.665,-0.17,5502.777777777777
0.025,-0.185,5505.555555555556
-0.615,-0.21,5508.333333333333
-1.17,-0.245,5511.111111111111
-1.4,-0.26,5513.888888888889
-1.365,-0.275,5516.666666666667
-1.17,-0.27,5519.444444444444
-0.92,-0.235,5522.222222222223
-0.7,-0.22,5525.0
-0.54,-0.18,5527.777777777777
-0.455,-0.155,5530.555555555556
-0.445,-0.155,5533.333333333333
-0.47,-0.155,5536.111111111111
-0.515,-0.165,5538.888888888889
-0.555,-0.17,5541.666666666667
-0.585,-0.18,5544.444444444444
-0.595,-0.185,5547.222222222223
-0.595,-0.2,5550.0
-0.585,-0.2,5552.777777777777
-0.595,-0.19,5555.555555555556
-0.565,-0.185,5558.333333333333
-0.555,-0.18,5561.111111111111
-0.55,-0.18,5563.888888888889
-0.545,-0.17,5566.666666666667
-0.54,-0.175,5569.444444444444
-0.55,-0.18,5572.222222222223
-0.55,-0.18,5575.0
-0.55,-0.19,5577.777777777777
-0.565,-0.195,5580.555555555556
-0.56,-0.195,5583.333333333333
-0.575,-0.21,5586.111111111111
-0.57,-0.195,5588.888888888889
-0.575,-0.19,5591.666666666667
-0.565,-0.195,5594.444444444444
-0.555,-0.195,5597.222222222223
-0.55,-0.18,5600.0
-0.54,-0.175,5602.777777777777
-0.525,-0.185,5605.555555555556
-0.535,-0.185,5608.333333333333
-0.55,-0.2,5611.111111111111
-0.54,-0.2,5613.888888888889
-0.54,-0.2,5616.666666666667
-0.55,-0.21,5619.444444444444
-0.55,-0.21,5622.222222222223
-0.545,-0.2,5625.0
-0.545,-0.195,5627.777777777777
-0.54,-0.19,5630.555555555556
-0.53,-0.19,5633.333333333333
-0.52,-0.185,5636.111111111111
-0.52,-0.195,5638.888888888889
-0.525,-0.195,5641.666666666667
-0.54,-0.2,5644.444444444444
-0.54,-0.22,5647.222222222223
-0.55,-0.22,5650.0
-0.555,-0.215,5652.777777777777
-0.56,-0.21,5655.555555555556
-0.55,-0.215,5658.333333333333
-0.56,-0.21,5661.111111111111
-0.55,-0.205,5663.888888888889
-0.535,-0.195,5666.666666666667
-0.525,-0.2,5669.444444444444
-0.52,-0.21,5672.222222222223
-0.53,-0.205,5675.0
-0.53,-0.215,5677.777777777777
-0.535,-0.22,5680.555555555556
-0.53,-0.225,5683.333333333333
-0.545,-0.22,5686.111111111111
-0.535,-0.22,5688.888888888889
-0.54,-0.22,5691.666666666667
-0.53,-0.225,5694.444444444444
-0.52,-0.205,5697.222222222223
-0.51,-0.2,5700.0
-0.51,-0.195,5702.777777777777
-0.505,-0.21,5705.555555555556
-0.505,-0.21,5708.333333333333
-0.51,-0.215,5711.111111111111
-0.52,-0.225,5713.888888888889
-0.52,-0.235,5716.666666666667
-0.525,-0.23,5719.444444444444
-0.53,-0.23,5722.222222222223
-0.52,-0.225,5725.0
-0.505,-0.22,5727.777777777777
-0.515,-0.215,5730.555555555556
-0.51,-0.21,5733.333333333333
-0.5,-0.21,5736.111111111111
-0.495,-0.22,5738.888888888889
-0.495,-0.23,5741.666666666667
-0.5,-0.225,5744.444444444444
-0.495,-0.24,5747.222222222223
-0.5,-0.245,5750.0
-0.5,-0.235,5752.777777777777
-0.5,-0.23,5755.555555555556
-0.5,-0.235,5758.333333333333
-0.485,-0.225,5761.111111111111
-0.48,-0.22,5763.888888888889
-0.47,-0.22,5766.666666666667
-0.46,-0.215,5769.444444444444
-0.455,-0.23,5772.222222222223
-0.46,-0.23,5775.0
-0.465,-0.235,5777.777777777777
-0.465,-0.25,5780.555555555556
-0.465,-0.25,5783.333333333333
-0.475,-0.25,5786.111111111111
-0.465,-0.25,5788.888888888889
-0.47,-0.235,5791.666666666667
-0.46,-0.24,5794.444444444444
-0.445,-0.235,5797.222222222223
-0.44,-0.23,5800.0
-0.435,-0.23,5802.777777777777
-0.445,-0.24,5805.555555555556
-0.43,-0.24,5808.333333333333
-0.44,-0.24,5811.111111111111
-0.465,-0.26,5813.888888888889
-0.46,-0.255,5816.666666666667
-0.455,-0.265,5819.444444444444
-0.465,-0.25,5822.222222222223
-0.455,-0.25,5825.0
-0.455,-0.245,5827.777777777777
-0.455,-0.24,5830.555555555556
-0.44,-0.24,5833.333333333333
-0.44,-0.23,5836.111111111111
-0.44,-0.245,5838.888888888889
-0.455,-0.24,5841.666666666667
-0.47,-0.235,5844.444444444444
-0.46,-0.245,5847.222222222223
-0.465,-0.25,5850.0
-0.47,-0.26,5852.777777777777
-0.49,-0.24,5855.555555555556
-0.495,-0.235,5858.333333333333
-0.5,-0.23,5861.111111111111
-0.505,-0.215,5863.888888888889
-0.505,-0.21,5866.666666666667
-0.495,-0.22,5869.444444444444
-0.515,-0.21,5872.222222222223
-0.535,-0.22,5875.0
-0.54,-0.215,5877.777777777777
-0.555,-0.22,5880.555555555556
-0.58,-0.225,5883.333333333333
-0.595,-0.23,5886.111111111111
-0.595,-0.205,5888.888888888889
-0.62,-0.215,5891.666666666667
-0.625,-0.205,5894.444444444444
-0.625,-0.195,5897.222222222223
-0.635,-0.205,5900.0
-0.625,-0.195,5902.777777777777
-0.635,-0.19,5905.555555555556
-0.64,-0.2,5908.333333333333
-0.65,-0.21,5911.111111111111
-0.65,-0.21,5913.888888888889
-0.675,-0.21,5916.666666666667
-0.685,-0.225,5919.444444444444
-0.695,-0.205,5922.222222222223
-0.7,-0.215,5925.0
-0.69,-0.205,5927.777777777777
-0.68,-0.2,5930.555555555556
-0.675,-0.185,5933.333333333333
-0.67,-0.175,5936.111111111111
-0.685,-0.185,5938.888888888889
-0.685,-0.2,5941.666666666667
-0.685,-0.21,5944.444444444444
-0.695,-0.215,5947.222222222223
-0.705,-0.22,5950.0
-0.7,-0.215,5952.777777777777
-0.695,-0.21,5955.555555555556
-0.68,-0.205,5958.333333333333
-0.68,-0.205,5961.111111111111
-0.68,-0.195,5963.888888888889
-0.67,-0.2,5966.666666666667
-0.65,-0.19,5969.444444444444
-0.66,-0.205,5972.222222222223
-0.645,-0.205,5975.0
-0.645,-0.205,5977.777777777777
-0.665,-0.215,5980.555555555556
-0.65,-0.22,5983.333333333333
-0.66,-0.225,5986.111111111111
-0.665,-0.22,5988.888888888889
-0.66,-0.215,5991.666666666667
-0.645,-0.21,5994.444444444444
-0.64,-0.21,5997.222222222223
-0.625,-0.21,6000.0
-0.62,-0.21,6002.777777777777
-0.61,-0.21,6005.555555555556
-0.615,-0.21,6008.333333333333
-0.62,-0.215,6011.111111111111
-0.625,-0.225,6013.888888888889
-0.635,-0.235,6016.666666666667
-0.645,-0.235,6019.444444444444
-0.64,-0.22,6022.222222222223
-0.635,-0.21,6025.0
-0.64,-0.22,6027.777777777777
-0.635,-0.22,6030.555555555556
-0.615,-0.205,6033.333333333333
-0.615,-0.2,6036.111111111111
-0.625,-0.22,6038.888888888889
-0.615,-0.21,6041.666666666667
-0.615,-0.225,6044.444444444444
-0.63,-0.225,6047.222222222223
-0.635,-0.24,6050.0
-0.645,-0.235,6052.777777777777
-0.645,-0.245,6055.555555555556
-0.645,-0.24,6058.333333333333
-0.645,-0.23,6061.111111111111
-0.645,-0.225,6063.888888888889
-0.64,-0.22,6066.666666666667
-0.625,-0.195,6069.444444444444
-0.64,-0.215,6072.222222222223
-0.64,-0.22,6075.0
-0.64,-0.225,6077.777777777777
-0.655,-0.24,6080.555555555556
-0.66,-0.235,6083.333333333333
-0.655,-0.245,6086.111111111111
-0.66,-0.245,6088.888888888889
-0.68,-0.235,6091.666666666667
-0.675,-0.235,6094.444444444444
-0.665,-0.23,6097.222222222223
-0.67,-0.23,6100.0
-0.655,-0.215,6102.777777777777
-0.655,-0.23,6105.555555555556
-0.66,-0.23,6108.333333333333
-0.665,-0.235,6111.111111111111
-0.67,-0.245,6113.888888888889
-0.675,-0.245,6116.666666666667
-0.68,-0.255,6119.444444444444
-0.685,-0.255,6122.222222222223
-0.685,-0.25,6125.0
-0.685,-0.235,6127.777777777777
-0.675,-0.245,6130.555555555556
-0.675,-0.23,6133.333333333333
-0.665,-0.215,6136.111111111111
-0.665,-0.235,6138.888888888889
-0.665,-0.235,6141.666666666667
-0.68,-0.24,6144.444444444444
-0.69,-0.25,6147.222222222223
-0.68,-0.255,6150.0
-0.69,-0.255,6152.777777777777
-0.685,-0.265,6155.555555555556
-0.695,-0.26,6158.333333333333
-0.685,-0.24,6161.111111111111
-0.675,-0.245,6163.888888888889
-0.67,-0.23,6166.666666666667
-0.67,-0.225,6169.444444444444
-0.66,-0.23,6172.222222222223
-0.67,-0.245,6175.0
-0.68,-0.25,6177.777777777777
-0.68,-0.255,6180.555555555556
-0.69,-0.255,6183.333333333333
-0.7,-0.265,6186.111111111111
-0.695,-0.265,6188.888888888889
-0.695,-0.255,6191.666666666667
-0.69,-0.255,6194.444444444444
-0.685,-0.245,6197.222222222223
-0.675,-0.235,6200.0
-0.675,-0.24,6202.777777777777
-0.67,-0.245,6205.555555555556
-0.665,-0.24,6208.333333333333
-0.665,-0.24,6211.111111111111
-0.68,-0.255,6213.888888888889
-0.695,-0.255,6216.666666666667
-0.685,-0.265,6219.444444444444
-0.7,-0.245,6222.222222222223
-0.69,-0.23,6225.0
-0.685,-0.22,6227.777777777777
-0.675,-0.215,6230.555555555556
-0.66,-0.2,6233.333333333333
-0.655,-0.195,6236.111111111111
-0.64,-0.18,6238.888888888889
-0.645,-0.18,6241.666666666667
-0.62,-0.18,6244.444444444444
-0.615,-0.195,6247.222222222223
-0.62,-0.2,6250.0
-0.615,-0.22,6252.777777777777
-0.605,-0.225,6255.555555555556
-0.59,-0.235,6258.333333333333
-0.58,-0.24,6261.111111111111
-0.575,-0.235,6263.888888888889
-0.565,-0.24,6266.666666666667
-0.555,-0.23,6269.444444444444
-0.545,-0.24,6272.222222222223
-0.545,-0.235,6275.0
-0.53,-0.22,6277.777777777777
-0.535,-0.245,6280.555555555556
-0.535,-0.24,6283.333333333333
-0.54,-0.26,6286.111111111111
-0.565,-0.245,6288.888888888889
-0.57,-0.245,6291.666666666667
-0.55,-0.245,6294.444444444444
-0.545,-0.23,6297.222222222223
-0.56,-0.225,6300.0
-0.55,-0.225,6302.777777777777
-0.52,-0.22,6305.555555555556
-0.535,-0.24,6308.333333333333
-0.535,-0.235,6311.111111111111
-0.56,-0.245,6313.888888888889
-0.575,-0.275,6316.666666666667
-0.59,-0.275,6319.444444444444
-0.615,-0.265,6322.222222222223
-0.64,-0.275,6325.0
-0.65,-0.27,6327.777777777777
-0.66,-0.255,6330.555555555556
-0.66,-0.255,6333.333333333333
-0.655,-0.25,6336.111111111111
-0.645,-0.26,6338.888888888889
-0.655,-0.265,6341.666666666667
-0.67,-0.265,6344.444444444444
-0.665,-0.275,6347.222222222223
-0.685,-0.275,6350.0
-0.67,-0.29,6352.777777777777
-0.68,-0.275,6355.555555555556
-0.68,-0.285,6358.333333333333
-0.675,-0.26,6361.111111111111
-0.68,-0.26,6363.888888888889
-0.68,-0.26,6366.666666666667
-0.67,-0.24,6369.444444444444
-0.66,-0.255,6372.222222222223
-0.665,-0.26,6375.0
-0.67,-0.26,6377.777777777777
-0.67,-0.28,6380.555555555556
-0.675,-0.275,6383.333333333333
-0.68,-0.28,6386.111111111111
-0.675,-0.275,6388.888888888889
-0.68,-0.27,6391.666666666667
-0.675,-0.265,6394.444444444444
-0.66,-0.26,6397.222222222223
-0.66,-0.255,6400.0
-0.645,-0.245,6402.777777777777
-0.635,-0.245,6405.555555555556
-0.645,-0.245,6408.333333333333
-0.645,-0.265,6411.111111111111
-0.64,-0.26,6413.888888888889
-0.645,-0.265,6416.666666666667
-0.64,-0.25,6419.444444444444
-0.635,-0.235,6422.222222222223
-0.63,-0.225,6425.0
-0.625,-0.21,6427.777777777777
-0.605,-0.22,6430.555555555556
-0.6,-0.255,6433.333333333333
-0.585,-0.285,6436.111111111111
-0.555,-0.35,6438.888888888889
-0.515,-0.435,6441.666666666667
-0.43,-0.515,6444.444444444444
-0.3,-0.62,6447.222222222223
-0.11,-0.695,6450.0
0.14,-0.73,6452.777777777777
0.48,-0.74,6455.555555555556
0.87,-0.69,6458.333333333333
1.245,-0.625,6461.111111111111
1.56,-0.53,6463.888888888889
1.7,-0.445,6466.666666666667
1.62,-0.35,6469.444444444444
1.275,-0.32,6472.222222222223
0.715,-0.285,6475.0
0.075,-0.3,6477.777777777777
-0.565,-0.32,6480.555555555556
-1.13,-0.355,6483.333333333333
-1.395,-0.365,6486.111111111111
-1.42,-0.36,6488.888888888889
-1.265,-0.33,6491.666666666667
-1.03,-0.285,6494.444444444444
-0.8,-0.24,6497.222222222223
-0.62,-0.205,6500.0
-0.525,-0.18,6502.777777777777
-0.48,-0.175,6505.555555555556
-0.485,-0.185,6508.333333333333
-0.52,-0.195,6511.111111111111
-0.55,-0.21,6513.888888888889
-0.57,-0.22,6516.666666666667
-0.6,-0.225,6519.444444444444
-0.615,-0.21,6522.222222222223
-0.605,-0.22,6525.0
-0.595,-0.195,6527.777777777777
-0.58,-0.195,6530.555555555556
-0.57,-0.195,6533.333333333333
-0.575,-0.185,6536.111111111111
-0.555,-0.19,6538.888888888889
-0.565,-0.19,6541.666666666667
-0.57,-0.2,6544.444444444444
-0.57,-0.2,6547.222222222223
-0.57,-0.215,6550.0
-0.58,-0.22,6552.777777777777
-0.58,-0.22,6555.555555555556
-0.585,-0.195,6558.333333333333
-0.58,-0.195,6561.111111111111
-0.565,-0.195,6563.888888888889
-0.56,-0.19,6566.666666666667
-0.555,-0.175,6569.444444444444
-0.555,-0.185,6572.222222222223
-0.55,-0.2,6575.0
-0.55,-0.2,6577.777777777777
-0.55,-0.21,6580.555555555556
-0.555,-0.215,6583.333333333333
-0.575,-0.22,6586.111111111111
-0.58,-0.205,6588.888888888889
-0.57,-0.215,6591.666666666667
-0.56,-0.21,6594.444444444444
-0.565,-0.2,6597.222222222223
-0.555,-0.195,6600.0
-0.545,-0.185,6602.777777777777
-0.545,-0.205,6605.555555555556
-0.55,-0.2,6608.333333333333
-0.55,-0.2,6611.111111111111
-0.57,-0.21,6613.888888888889
-0.565,-0.215,6616.666666666667
-0.565,-0.22,6619.444444444444
-0.575,-0.24,6622.222222222223
-0.58,-0.21,6625.0
-0.565,-0.21,6627.777777777777
-0.56,-0.195,6630.555555555556
-0.56,-0.195,6633.333333333333
-0.55,-0.195,6636.111111111111
-0.555,-0.195,6638.888888888889
-0.55,-0.205,6641.666666666667
-0.55,-0.2,6644.444444444444
-0.54,-0.225,6647.222222222223
-0.545,-0.225,6650.0
-0.555,-0.225,6652.777777777777
-0.555,-0.22,6655.555555555556
-0.565,-0.225,6658.333333333333
-0.545,-0.215,6661.111111111111
-0.535,-0.2,6663.888888888889
-0.54,-0.2,6666.666666666667
-0.54,-0.195,6669.444444444444
-0.525,-0.205,6672.222222222223
-0.525,-0.2,6675.0
-0.53,-0.215,6677.777777777777
-0.53,-0.215,6680.555555555556
-0.53,-0.225,6683.333333333333
-0.54,-0.23,6686.111111111111
-0.545,-0.225,6688.888888888889
-0.535,-0.215,6691.666666666667
-0.535,-0.215,6694.444444444444
-0.515,-0.205,6697.222222222223
-0.51,-0.2,6700.0
-0.5,-0.19,6702.777777777777
-0.515,-0.195,6705.555555555556
-0.495,-0.205,6708.333333333333
-0.49,-0.215,6711.111111111111
-0.5,-0.22,6713.888888888889
-0.51,-0.225,6716.666666666667
-0.51,-0.235,6719.444444444444
-0.515,-0.225,6722.222222222223
-0.51,-0.225,6725.0
-0.505,-0.225,6727.777777777777
-0.485,-0.215,6730.555555555556
-0.485,-0.21,6733.333333333333
-0.475,-0.205,6736.111111111111
-0.465,-0.205,6738.888888888889
-0.48,-0.205,6741.666666666667
-0.465,-0.21,6744.444444444444
-0.47,-0.22,6747.222222222223
-0.475,-0.235,6750.0
-0.48,-0.22,6752.777777777777
-0.48,-0.23,6755.555555555556
-0.465,-0.225,6758.333333333333
-0.465,-0.215,6761.111111111111
-0.455,-0.21,6763.888888888889
-0.45,-0.22,6766.666666666667
-0.45,-0.19,6769.444444444444
-0.42,-0.21,6772.222222222223
-0.425,-0.21,6775.0
-0.42,-0.225,6777.777777777777
-0.435,-0.235,6780.555555555556
-0.435,-0.23,6783.333333333333
-0.44,-0.235,6786.111111111111
-0.45,-0.23,6788.888888888889
-0.42,-0.235,6791.666666666667
-0.425,-0.23,6794.444444444444
-0.41,-0.21,6797.222222222223
-0.415,-0.205,6800.0
-0.405,-0.205,6802.777777777777
-0.4,-0.21,6805.555555555556
-0.395,-0.21,6808.333333333333
-0.395,-0.23,6811.111111111111
-0.415,-0.23,6813.888888888889
-0.41,-0.235,6816.666666666667
-0.42,-0.235,6819.444444444444
-0.41,-0.23,6822.222222222223
-0.42,-0.23,6825.0
-0.415,-0.23,6827.777777777777
-0.4,-0.225,6830.555555555556
-0.39,-0.22,6833.333333333333
-0.375,-0.2,6836.111111111111
-0.385,-0.22,6838.888888888889
-0.385,-0.22,6841.666666666667
-0.405,-0.23,6844.444444444444
-0.42,-0.235,6847.222222222223
-0.43,-0.235,6850.0
-0.45,-0.245,6852.777777777777
-0.455,-0.23,6855.555555555556
-0.475,-0.22,6858.333333333333
-0.485,-0.21,6861.111111111111
-0.49,-0.205,6863.888888888889
-0.51,-0.2,6866.666666666667
-0.515,-0.185,6869.444444444444
-0.515,-0.205,6872.222222222223
-0.535,-0.2,6875.0
-0.55,-0.2,6877.777777777777
-0.57,-0.205,6880.555555555556
-0.59,-0.215,6883.333333333333
-0.595,-0.215,6886.111111111111
-0.615,-0.21,6888.888888888889
-0.62,-0.21,6891.666666666667
-0.625,-0.195,6894.444444444444
-0.61,-0.19,6897.222222222223
-0.62,-0.185,6900.0
-0.62,-0.185,6902.777777777777
-0.615,-0.19,6905.555555555556
-0.625,-0.175,6908.333333333333
-0.645,-0.195,6911.111111111111
-0.655,-0.205,6913.888888888889
-0.655,-0.205,6916.666666666667
-0.665,-0.225,6919.444444444444
-0.665,-0.2,6922.222222222223
-0.665,-0.205,6925.0
-0.65,-0.195,6927.777777777777
-0.655,-0.185,6930.555555555556
-0.65,-0.185,6933.333333333333
-0.635,-0.175,6936.111111111111
-0.645,-0.185,6938.888888888889
-0.64,-0.19,6941.666666666667
-0.65,-0.195,6944.444444444444
-0.65,-0.19,6947.222222222223
-0.65,-0.2,6950.0
-0.66,-0.205,6952.777777777777
-0.655,-0.19,6955.555555555556
-0.64,-0.19,6958.333333333333
-0.635,-0.19,6961.111111111111
-0.63,-0.18,6963.888888888889
-0.62,-0.18,6966.666666666667
-0.605,-0.18,6969.444444444444
-0.605,-0.185,6972.222222222223
-0.6,-0.185,6975.0
-0.595,-0.19,6977.777777777777
-0.6,-0.195,6980.555555555556
-0.61,-0.2,6983.333333333333
-0.61,-0.21,6986.111111111111
-0.605,-0.2,6988.888888888889
-0.6,-0.21,6991.666666666667
-0.595,-0.195,6994.444444444444
-0.585,-0.195,6997.222222222223
-0.575,-0.195,7000.0
-0.57,-0.17,7002.777777777777
-0.57,-0.18,7005.555555555556
-0.56,-0.195,7008.333333333333
-0.56,-0.19,7011.111111111111
-0.57,-0.205,7013.888888888889
-0.57,-0.2,7016.666666666667
-0.58,-0.205,7019.444444444444
-0.57,-0.205,7022.222222222223
-0.575,-0.195,7025.0
-0.565,-0.195,7027.777777777777
-0.575,-0.195,7030.555555555556
-0.56,-0.185,7033.333333333333
-0.55,-0.18,7036.111111111111
-0.54,-0.18,7038.888888888889
-0.55,-0.185,7041.666666666667
-0.555,-0.2,7044.444444444444
-0.575,-0.22,7047.222222222223
-0.565,-0.22,7050.0
-0.58,-0.22,7052.777777777777
-0.58,-0.205,7055.555555555556
-0.57,-0.22,7058.333333333333
-0.575,-0.205,7061.111111111111
-0.575,-0.19,7063.888888888889
-0.575,-0.19,7066.666666666667
-0.565,-0.19,7069.444444444444
-0.565,-0.195,7072.222222222223
-0.57,-0.195,7075.0
-0.57,-0.2,7077.777777777777
-0.58,-0.215,7080.555555555556
-0.585,-0.215,7083.333333333333
-0.59,-0.225,7086.111111111111
-0.6,-0.225,7088.888888888889
-0.61,-0.225,7091.666666666667
-0.595,-0.215,7094.444444444444
-0.595,-0.205,7097.222222222223
-0.585,-0.2,7100.0
-0.585,-0.195,7102.777777777777
-0.57,-0.205,7105.555555555556
-0.58,-0.2,7108.333333333333
-0.585,-0.205,7111.111111111111
-0.6,-0.215,7113.888888888889
-0.6,-0.22,7116.666666666667
-0.595,-0.23,7119.444444444444
-0.6,-0.225,7122.222222222223
-0.605,-0.22,7125.0
-0.6,-0.215,7127.777777777777
-0.595,-0.215,7130.555555555556
-0.59,-0.195,7133.333333333333
-0.59,-0.2,7136.111111111111
-0.58,-0.2,7138.888888888889
-0.595,-0.195,7141.666666666667
-0.59,-0.205,7144.444444444444
-0.6,-0.215,7147.222222222223
-0.61,-0.215,7150.0
-0.61,-0.23,7152.777777777777
-0.6,-0.225,7155.555555555556
-0.61,-0.21,7158.333333333333
-0.605,-0.205,7161.111111111111
-0.595,-0.205,7163.888888888889
-0.585,-0.205,7166.666666666667
-0.57,-0.205,7169.444444444444
-0.58,-0.2,7172.222222222223
-0.59,-0.205,7175.0
-0.595,-0.22,7177.777777777777
-0.6,-0.225,7180.555555555556
-0.59,-0.23,7183.333333333333
-0.61,-0.235,7186.111111111111
-0.61,-0.225,7188.888888888889
-0.605,-0.235,7191.666666666667
-0.6,-0.215,7194.444444444444
-0.6,-0.205,7197.222222222223
-0.595,-0.195,7200.0
-0.59,-0.19,7202.777777777777
-0.58,-0.205,7205.555555555556
-0.575,-0.21,7208.333333333333
-0.585,-0.2,7211.111111111111
-0.585,-0.215,7213.888888888889
-0.58,-0.225,7216.666666666667
-0.58,-0.22,7219.444444444444
-0.59,-0.22,7222.222222222223
-0.59,-0.225,7225.0
-0.575,-0.21,7227.777777777777
-0.58,-0.215,7230.555555555556
-0.565,-0.215,7233.333333333333
-0.56,-0.205,7236.111111111111
-0.56,-0.205,7238.888888888889
-0.565,-0.2,7241.666666666667
-0.55,-0.21,7244.444444444444
-0.565,-0.22,7247.222222222223
-0.56,-0.22,7250.0
-0.575,-0.23,7252.777777777777
-0.565,-0.215,7255.555555555556
-0.57,-0.225,7258.333333333333
-0.57,-0.21,7261.111111111111
-0.565,-0.19,7263.888888888889
-0.56,-0.18,7266.666666666667
-0.555,-0.17,7269.444444444444
-0.555,-0.17,7272.222222222223
-0.545,-0.17,7275.0
-0.54,-0.165,7277.777777777777
-0.535,-0.16,7280.555555555556
-0.53,-0.165,7283.333333333333
-0.535,-0.16,7286.111111111111
-0.525,-0.155,7288.888888888889
-0.52,-0.155,7291.666666666667
-0.51,-0.145,7294.444444444444
-0.5,-0.155,7297.222222222223
-0.475,-0.16,7300.0
-0.455,-0.165,7302.777777777777
-0.44,-0.185,7305.555555555556
-0.425,-0.195,7308.333333333333
-0.425,-0.215,7311.111111111111
-0.415,-0.21,7313.888888888889
-0.415,-0.22,7316.666666666667
-0.41,-0.22,7319.444444444444
-0.42,-0.205,7322.222222222223
-0.41,-0.21,7325.0
-0.42,-0.2,7327.777777777777
-0.425,-0.185,7330.555555555556
-0.415,-0.18,7333.333333333333
-0.415,-0.185,7336.111111111111
-0.415,-0.185,7338.888888888889
-0.415,-0.185,7341.666666666667
-0.415,-0.205,7344.444444444444
-0.415,-0.2,7347.222222222223
-0.41,-0.215,7350.0
-0.43,-0.225,7352.777777777777
-0.435,-0.23,7355.555555555556
-0.46,-0.21,7358.333333333333
-0.445,-0.22,7361.111111111111
-0.455,-0.225,7363.888888888889
-0.46,-0.205,7366.666666666667
-0.475,-0.21,7369.444444444444
-0.48,-0.215,7372.222222222223
-0.485,-0.22,7375.0
-0.51,-0.235,7377.777777777777
-0.51,-0.23,7380.555555555556
-0.505,-0.225,7383.333333333333
-0.545,-0.24,7386.111111111111
-0.535,-0.235,7388.888888888889
-0.515,-0.235,7391.666666666667
-0.525,-0.23,7394.444444444444
-0.515,-0.225,7397.222222222223
-0.515,-0.225,7400.0
-0.505,-0.225,7402.777777777777
-0.505,-0.22,7405.555555555556
-0.51,-0.215,7408.333333333333
-0.515,-0.23,7411.111111111111
-0.53,-0.225,7413.888888888889
-0.53,-0.24,7416.666666666667
-0.535,-0.24,7419.444444444444
-0.535,-0.235,7422.222222222223
-0.535,-0.23,7425.0
-0.535,-0.235,7427.777777777777
-0.535,-0.22,7430.555555555556
-0.52,-0.2,7433.333333333333
-0.51,-0.21,7436.111111111111
-0.515,-0.21,7438.888888888889
-0.51,-0.215,7441.666666666667
-0.495,-0.225,7444.444444444444
-0.5,-0.22,7447.222222222223
-0.515,-0.22,7450.0
-0.495,-0.225,7452.777777777777
-0.495,-0.2,7455.555555555556
-0.48,-0.2,7458.333333333333
-0.47,-0.185,7461.111111111111
-0.45,-0.165,7463.888888888889
-0.44,-0.185,7466.666666666667
-0.425,-0.215,7469.444444444444
-0.41,-0.275,7472.222222222223
-0.37,-0.35,7475.0
-0.31,-0.45,7477.777777777777
-0.21,-0.56,7480.555555555556
-0.055,-0.66,7483.333333333333
0.175,-0.71,7486.111111111111
0.47,-0.715,7488.888888888889
0.85,-0.68,7491.666666666667
1.24,-0.61,7494.444444444444
1.58,-0.51,7497.222222222223
1.765,-0.41,7500.0
1.735,-0.315,7502.777777777777
1.415,-0.26,7505.555555555556
0.86,-0.225,7508.333333333333
0.22,-0.23,7511.111111111111
-0.42,-0.26,7513.888888888889
-1.025,-0.295,7516.666666666667
-1.27,-0.325,7519.444444444444
-1.235,-0.315,7522.222222222223
-1.045,-0.285,7525.0
-0.785,-0.245,7527.777777777777
-0.56,-0.205,7530.555555555556
-0.41,-0.16,7533.333333333333
-0.325,-0.13,7536.111111111111
-0.3,-0.13,7538.888888888889
-0.31,-0.145,7541.666666666667
-0.325,-0.145,7544.444444444444
-0.37,-0.16,7547.222222222223
-0.4,-0.18,7550.0
-0.415,-0.185,7552.777777777777
-0.415,-0.175,7555.555555555556
-0.415,-0.16,7558.333333333333
-0.395,-0.16,7561.111111111111
-0.39,-0.15,7563.888888888889
-0.37,-0.14,7566.666666666667
-0.37,-0.15,7569.444444444444
-0.365,-0.145,7572.222222222223
-0.375,-0.145,7575.0
-0.38,-0.16,7577.777777777777
-0.385,-0.17,7580.555555555556
-0.37,-0.17,7583.333333333333
-0.39,-0.175,7586.111111111111
-0.4,-0.185,7588.888888888889
-0.39,-0.175,7591.666666666667
-0.395,-0.155,7594.444444444444
-0.385,-0.16,7597.222222222223
-0.37,-0.145,7600.0
-0.36,-0.15,7602.777777777777
-0.365,-0.155,7605.555555555556
-0.36,-0.16,7608.333333333333
-0.365,-0.16,7611.111111111111
-0.37,-0.165,7613.888888888889
-0.36,-0.175,7616.666666666667
-0.37,-0.185,7619.444444444444
-0.37,-0.185,7622.222222222223
-0.38,-0.175,7625.0
-0.365,-0.175,7627.777777777777
-0.355,-0.165,7630.555555555556
-0.36,-0.165,7633.333333333333
-0.35,-0.14,7636.111111111111
-0.335,-0.16,7638.888888888889
-0.34,-0.16,7641.666666666667
-0.33,-0.165,7644.444444444444
-0.345,-0.175,7647.222222222223
-0.34,-0.185,7650.0
-0.345,-0.175,7652.777777777777
-0.345,-0.185,7655.555555555556
-0.36,-0.185,7658.333333333333
-0.37,-0.18,7661.111111111111
-0.34,-0.165,7663.888888888889
-0.355,-0.16,7666.666666666667
-0.34,-0.16,7669.444444444444
-0.325,-0.17,7672.222222222223
-0.33,-0.17,7675.0
-0.335,-0.175,7677.777777777777
-0.33,-0.185,7680.555555555556
-0.335,-0.19,7683.333333333333
-0.35,-0.195,7686.111111111111
-0.365,-0.185,7688.888888888889
-0.34,-0.185,7691.666666666667
-0.345,-0.185,7694.444444444444
-0.325,-0.175,7697.222222222223
-0.325,-0.17,7700.0
-0.32,-0.165,7702.777777777777
-0.3,-0.17,7705.555555555556
-0.3,-0.175,7708.333333333333
-0.295,-0.18,7711.111111111111
-0.295,-0.19,7713.888888888889
-0.31,-0.19,7716.666666666667
-0.32,-0.2,7719.444444444444
-0.325,-0.19,7722.222222222223
-0.335,-0.185,7725.0
-0.315,-0.185,7727.777777777777
-0.305,-0.185,7730.555555555556
-0.29,-0.18,7733.333333333333
-0.28,-0.165,7736.111111111111
-0.28,-0.17,7738.888888888889
-0.27,-0.18,7741.666666666667
-0.27,-0.18,7744.444444444444
-0.28,-0.18,7747.222222222223
-0.28,-0.195,7750.0
-0.28,-0.2,7752.777777777777
-0.29,-0.205,7755.555555555556
-0.28,-0.195,7758.333333333333
-0.285,-0.185,7761.111111111111
-0.28,-0.185,7763.888888888889
-0.265,-0.18,7766.666666666667
-0.255,-0.165,7769.444444444444
-0.23,-0.17,7772.222222222223
-0.23,-0.18,7775.0
-0.23,-0.19,7777.777777777777
-0.23,-0.195,7780.555555555556
-0.235,-0.2,7783.333333333333
-0.235,-0.2,7786.111111111111
-0.245,-0.205,7788.888888888889
-0.23,-0.195,7791.666666666667
-0.235,-0.195,7794.444444444444
-0.215,-0.195,7797.222222222223
-0.21,-0.185,7800.0
-0.205,-0.19,7802.777777777777
-0.2,-0.18,7805.555555555556
-0.215,-0.195,7808.333333333333
-0.2,-0.19,7811.111111111111
-0.2,-0.205,7813.888888888889
-0.21,-0.19,7816.666666666667
-0.215,-0.205,7819.444444444444
-0.22,-0.21,7822.222222222223
-0.23,-0.205,7825.0
-0.225,-0.21,7827.777777777777
-0.225,-0.195,7830.555555555556
-0.215,-0.2,7833.333333333333
-0.215,-0.195,7836.111111111111
-0.2,-0.2,7838.888888888889
-0.19,-0.2,7841.666666666667
-0.19,-0.195,7844.444444444444
-0.2,-0.215,7847.222222222223
-0.21,-0.225,7850.0
-0.22,-0.22,7852.777777777777
-0.21,-0.22,7855.555555555556
-0.2,-0.215,7858.333333333333
-0.215,-0.21,7861.111111111111
-0.22,-0.2,7863.888888888889
-0.215,-0.195,7866.666666666667
-0.21,-0.185,7869.444444444444
-0.22,-0.195,7872.222222222223
-0.225,-0.19,7875.0
-0.24,-0.205,7877.777777777777
-0.26,-0.21,7880.555555555556
-0.275,-0.21,7883.333333333333
-0.305,-0.205,7886.111111111111
-0.295,-0.195,7888.888888888889
-0.32,-0.185,7891.666666666667
-0.33,-0.185,7894.444444444444
-0.34,-0.165,7897.222222222223
-0.34,-0.155,7900.0
-0.345,-0.16,7902.777777777777
-0.345,-0.16,7905.555555555556
-0.36,-0.18,7908.333333333333
-0.38,-0.17,7911.111111111111
-0.405,-0.17,7913.888888888889
-0.395,-0.185,7916.666666666667
-0.42,-0.175,7919.444444444444
-0.42,-0.19,7922.222222222223
-0.43,-0.175,7925.0
-0.425,-0.18,7927.777777777777
-0.43,-0.18,7930.555555555556
-0.43,-0.17,7933.333333333333
-0.425,-0.165,7936.111111111111
-0.42,-0.165,7938.888888888889
-0.425,-0.17,7941.666666666667
-0.43,-0.17,7944.444444444444
-0.43,-0.18,7947.222222222223
-0.435,-0.19,7950.0
-0.455,-0.185,7952.777777777777
-0.455,-0.185,7955.555555555556
-0.455,-0.185,7958.333333333333
-0.45,-0.17,7961.111111111111
-0.44,-0.165,7963.888888888889
-0.435,-0.16,7966.666666666667
-0.43,-0.15,7969.444444444444
-0.41,-0.15,7972.222222222223
-0.42,-0.17,7975.0
-0.42,-0.17,7977.777777777777
-0.43,-0.18,7980.555555555556
-0.425,-0.19,7983.333333333333
-0.44,-0.185,7986.111111111111
-0.445,-0.19,7988.888888888889
-0.435,-0.185,7991.666666666667
-0.43,-0.17,7994.444444444444
-0.425,-0.16,7997.222222222223
-0.42,-0.155,8000.0
-0.41,-0.155,8002.777777777777
-0.4,-0.16,8005.555555555556
-0.4,-0.165,8008.333333333333
-0.395,-0.17,8011.111111111111
-0.405,-0.18,8013.888888888889
-0.405,-0.185,8016.666666666667
-0.41,-0.195,8019.444444444444
-0.395,-0.185,8022.222222222223
-0.4,-0.2,8025.0
-0.395,-0.175,8027.777777777777
-0.4,-0.17,8030.555555555556
-0.395,-0.17,8033.333333333333
-0.39,-0.16,8036.111111111111
-0.375,-0.17,8038.888888888889
-0.38,-0.17,8041.666666666667
-0.38,-0.17,8044.444444444444
-0.39,-0.175,8047.222222222223
-0.395,-0.19,8050.0
-0.39,-0.205,8052.777777777777
-0.405,-0.195,8055.555555555556
-0.39,-0.2,8058.333333333333
-0.39,-0.18,8061.111111111111
-0.395,-0.185,8063.888888888889
-0.39,-0.18,8066.666666666667
-0.39,-0.185,8069.444444444444
-0.395,-0.18,8072.222222222223
-0.38,-0.175,8075.0
-0.4,-0.19,8077.777777777777
-0.4,-0.2,8080.555555555556
-0.4,-0.195,8083.333333333333
-0.415,-0.205,8086.111111111111
-0.42,-0.205,8088.888888888889
-0.43,-0.2,8091.666666666667
-0.415,-0.195,8094.444444444444
-0.415,-0.195,8097.222222222223
-0.41,-0.195,8100.0
-0.405,-0.185,8102.777777777777
-0.395,-0.185,8105.555555555556
-0.4,-0.185,8108.333333333333
-0.405,-0.195,8111.111111111111
-0.41,-0.2,8113.888888888889
-0.415,-0.215,8116.666666666667
-0.425,-0.215,8119.444444444444
-0.435,-0.215,8122.222222222223
-0.435,-0.205,8125.0
-0.425,-0.205,8127.777777777777
-0.415,-0.19,8130.555555555556
-0.415,-0.185,8133.333333333333
-0.41,-0.185,8136.111111111111
-0.41,-0.18,8138.888888888889
-0.42,-0.195,8141.666666666667
-0.405,-0.2,8144.444444444444
-0.415,-0.205,8147.222222222223
-0.425,-0.215,8150.0
-0.435,-0.215,8152.777777777777
-0.445,-0.215,8155.555555555556
-0.44,-0.2,8158.333333333333
-0.435,-0.205,8161.111111111111
-0.435,-0.195,8163.888888888889
-0.425,-0.185,8166.666666666667
-0.45,-0.185,8169.444444444444
-0.43,-0.18,8172.222222222223
-0.415,-0.2,8175.0
-0.415,-0.2,8177.777777777777
-0.42,-0.21,8180.555555555556
-0.435,-0.21,8183.333333333333
-0.44,-0.21,8186.111111111111
-0.45,-0.215,8188.888888888889
-0.46,-0.2,8191.666666666667
-0.445,-0.2,8194.444444444445
-0.44,-0.195,8197.222222222223
-0.43,-0.21,8200.0
-0.43,-0.185,8202.777777777777
-0.415,-0.2,8205.555555555555
-0.425,-0.19,8208.333333333334
-0.42,-0.19,8211.111111111111
-0.435,-0.205,8213.888888888889
-0.43,-0.215,8216.666666666666
-0.45,-0.22,8219.444444444445
-0.455,-0.215,8222.222222222223
-0.45,-0.205,8225.0
-0.445,-0.205,8227.777777777777
-0.44,-0.205,8230.555555555555
-0.435,-0.205,8233.333333333334
-0.43,-0.195,8236.111111111111
-0.425,-0.2,8238.888888888889
-0.43,-0.2,8241.666666666666
-0.44,-0.195,8244.444444444445
-0.435,-0.205,8247.222222222223
-0.445,-0.22,8250.0
-0.435,-0.215,8252.777777777777
-0.46,-0.225,8255.555555555555
-0.45,-0.21,8258.333333333334
-0.455,-0.21,8261.111111111111
-0.455,-0.205,8263.888888888889
-0.45,-0.2,8266.666666666666
-0.435,-0.18,8269.444444444445
-0.43,-0.195,8272.222222222223
-0.44,-0.195,8275.0
-0.445,-0.2,8277.777777777777
-0.44,-0.215,8280.555555555555
-0.44,-0.215,8283.333333333334
-0.455,-0.21,8286.111111111111
-0.455,-0.205,8288.888888888889
-0.46,-0.195,8291.666666666666
-0.445,-0.185,8294.444444444445
-0.435,-0.155,8297.222222222223
-0.425,-0.145,8300.0
-0.41,-0.135,8302.777777777777
-0.405,-0.13,8305.555555555555
-0.4,-0.13,8308.333333333334
-0.38,-0.14,8311.111111111111
-0.38,-0.135,8313.888888888889
-0.38,-0.145,8316.666666666666
-0.38,-0.155,8319.444444444445
-0.36,-0.18,8322.222222222223
-0.345,-0.185,8325.0
-0.345,-0.195,8327.777777777777
-0.325,-0.195,8330.555555555555
-0.305,-0.2,8333.333333333334
-0.305,-0.205,8336.111111111111
-0.295,-0.2,8338.888888888889
-0.28,-0.195,8341.666666666666
-0.28,-0.19,8344.444444444445
-0.285,-0.19,8347.222222222223
-0.29,-0.19,8350.0
-0.32,-0.2,8352.777777777777
-0.32,-0.195,8355.555555555555
-0.33,-0.205,8358.333333333334
-0.33,-0.185,8361.111111111111
-0.32,-0.185,8363.888888888889
-0.315,-0.185,8366.666666666666
-0.3,-0.185,8369.444444444445
-0.305,-0.19,8372.222222222223
-0.32,-0.195,8375.0
-0.335,-0.21,8377.777777777777
-0.345,-0.215,8380.555555555555
-0.37,-0.215,8383.333333333334
-0.39,-0.23,8386.111111111111
-0.41,-0.235,8388.888888888889
-0.43,-0.23,8391.666666666666
-0.44,-0.22,8394.444444444445
-0.44,-0.225,8397.222222222223
-0.44,-0.225,8400.0
-0.425,-0.21,8402.777777777777
-0.42,-0.215,8405.555555555555
-0.425,-0.215,8408.333333333334
-0.425,-0.22,8411.111111111111
-0.425,-0.225,8413.888888888889
-0.435,-0.235,8416.666666666666
-0.445,-0.245,8419.444444444445
-0.455,-0.24,8422.222222222223
-0.465,-0.225,8425.0
-0.465,-0.23,8427.777777777777
-0.455,-0.22,8430.555555555555
-0.455,-0.21,8433.333333333334
-0.44,-0.2,8436.111111111111
-0.435,-0.2,8438.888888888889
-0.43,-0.22,8441.666666666666
-0.43,-0.215,8444.444444444445
-0.44,-0.225,8447.222222222223
-0.44,-0.23,8450.0
-0.455,-0.23,8452.777777777777
-0.45,-0.23,8455.555555555555
-0.46,-0.23,8458.333333333334
-0.445,-0.215,8461.111111111111
-0.435,-0.21,8463.888888888889
-0.42,-0.195,8466.666666666666
-0.405,-0.195,8469.444444444445
-0.4,-0.17,8472.222222222223
-0.4,-0.175,8475.0
-0.39,-0.155,8477.777777777777
-0.385,-0.17,8480.555555555555
-0.38,-0.18,8483.333333333334
-0.38,-0.21,8486.111111111111
-0.37,-0.265,8488.888888888889
-0.34,-0.335,8491.666666666666
-0.29,-0.43,8494.444444444445
-0.185,-0.53,8497.222222222223
-0.03,-0.615,8500.0
0.2,-0.665,8502.777777777777
0.51,-0.675,8505.555555555555
0.875,-0.665,8508.333333333334
1.27,-0.61,8511.111111111111
1.6,-0.52,8513.888888888889
1.79,-0.43,8516.666666666666
1.8,-0.335,8519.444444444445
1.59,-0.27,8522.222222222223
1.145,-0.235,8525.0
0.545,-0.2,8527.777777777777
-0.095,-0.22,8530.555555555555
-0.715,-0.235,8533.333333333334
-1.09,-0.255,8536.111111111111
-1.21,-0.27,8538.888888888889
-1.13,-0.275,8541.666666666666
-0.92,-0.245,8544.444444444445
-0.68,-0.215,8547.222222222223
-0.475,-0.175,8550.0
-0.34,-0.16,8552.777777777777
-0.28,-0.155,8555.555555555555
-0.28,-0.135,8558.333333333334
-0.295,-0.145,8561.111111111111
-0.325,-0.15,8563.888888888889
-0.36,-0.14,8566.666666666666
-0.375,-0.15,8569.444444444445
-0.375,-0.14,8572.222222222223
-0.385,-0.145,8575.0
-0.375,-0.14,8577.777777777777
-0.375,-0.15,8580.555555555555
-0.36,-0.15,8583.333333333334
-0.375,-0.16,8586.111111111111
-0.37,-0.155,8588.888888888889
-0.37,-0.15,8591.666666666666
-0.36,-0.155,8594.444444444445
-0.35,-0.145,8597.222222222223
-0.35,-0.14,8600.0
-0.345,-0.135,8602.777777777777
-0.345,-0.135,8605.555555555555
-0.345,-0.14,8608.333333333334
-0.34,-0.135,8611.111111111111
-0.355,-0.15,8613.888888888889
-0.355,-0.155,8616.666666666666
-0.36,-0.16,8619.444444444445
-0.375,-0.16,8622.222222222223
-0.36,-0.155,8625.0
-0.355,-0.15,8627.777777777777
-0.355,-0.145,8630.555555555555
-0.34,-0.14,8633.333333333334
-0.335,-0.135,8636.111111111111
-0.33,-0.13,8638.888888888889
-0.335,-0.145,8641.666666666666
-0.345,-0.16,8644.444444444445
-0.34,-0.16,8647.222222222223
-0.345,-0.155,8650.0
-0.35,-0.17,8652.777777777777
-0.35,-0.16,8655.555555555555
-0.35,-0.165,8658.333333333334
-0.35,-0.155,8661.111111111111
-0.35,-0.155,8663.888888888889
-0.345,-0.15,8666.666666666666
-0.34,-0.13,8669.444444444445
-0.335,-0.14,8672.222222222223
-0.35,-0.135,8675.0
-0.335,-0.145,8677.777777777777
-0.355,-0.155,8680.555555555555
-0.34,-0.155,8683.333333333334
-0.37,-0.17,8686.111111111111
-0.36,-0.175,8688.888888888889
-0.36,-0.165,8691.666666666666
-0.35,-0.155,8694.444444444445
-0.335,-0.16,8697.222222222223
-0.345,-0.15,8700.0
-0.35,-0.145,8702.777777777777
-0.335,-0.135,8705.555555555555
-0.325,-0.15,8708.333333333334
-0.33,-0.155,8711.111111111111
-0.335,-0.17,8713.888888888889
-0.335,-0.17,8716.666666666666
-0.34,-0.175,8719.444444444445
-0.35,-0.18,8722.222222222223
-0.345,-0.17,8725.0
-0.34,-0.165,8727.777777777777
-0.34,-0.16,8730.555555555555
-0.335,-0.15,8733.333333333334
-0.33,-0.155,8736.111111111111
-0.31,-0.14,8738.888888888889
-0.31,-0.165,8741.666666666666
-0.335,-0.165,8744.444444444445
-0.335,-0.17,8747.222222222223
-0.33,-0.175,8750.0
-0.325,-0.175,8752.777777777777
-0.335,-0.18,8755.555555555555
-0.335,-0.18,8758.333333333334
-0.34,-0.17,8761.111111111111
-0.33,-0.16,8763.888888888889
-0.32,-0.155,8766.666666666666
-0.315,-0.155,8769.444444444445
-0.295,-0.145,8772.222222222223
-0.29,-0.155,8775.0
-0.285,-0.165,8777.777777777777
-0.295,-0.17,8780.555555555555
-0.295,-0.18,8783.333333333334
-0.285,-0.18,8786.111111111111
-0.295,-0.165,8788.888888888889
-0.305,-0.17,8791.666666666666
-0.295,-0.165,8794.444444444445
-0.28,-0.16,8797.222222222223
-0.275,-0.15,8800.0
-0.27,-0.16,8802.777777777777
-0.275,-0.17,8805.555555555555
-0.28,-0.17,8808.333333333334
-0.27,-0.165,8811.111111111111
-0.265,-0.185,8813.888888888889
-0.265,-0.175,8816.666666666666
-0.275,-0.19,8819.444444444445
-0.28,-0.185,8822.222222222223
-0.275,-0.19,8825.0
-0.275,-0.19,8827.777777777777
-0.26,-0.18,8830.555555555555
-0.255,-0.175,8833.333333333334
-0.245,-0.17,8836.111111111111
-0.245,-0.175,8838.888888888889
-0.23,-0.18,8841.666666666666
-0.25,-0.18,8844.444444444445
-0.245,-0.19,8847.222222222223
-0.26,-0.185,8850.0
-0.255,-0.2,8852.777777777777
-0.275,-0.195,8855.555555555555
-0.27,-0.19,8858.333333333334
-0.265,-0.19,8861.111111111111
-0.27,-0.19,8863.888888888889
-0.255,-0.185,8866.666666666666
-0.25,-0.17,8869.444444444445
-0.245,-0.175,8872.222222222223
-0.255,-0.18,8875.0
-0.26,-0.19,8877.777777777777
-0.265,-0.195,8880.555555555555
-0.26,-0.205,8883.333333333334
-0.255,-0.2,8886.111111111111
-0.265,-0.21,8888.888888888889
-0.275,-0.195,8891.666666666666
-0.28,-0.195,8894.444444444445
-0.28,-0.175,8897.222222222223
-0.29,-0.15,8900.0
-0.295,-0.15,8902.777777777777
-0.31,-0.15,8905.555555555555
-0.33,-0.155,8908.333333333334
-0.335,-0.155,8911.111111111111
-0.36,-0.165,8913.888888888889
-0.39,-0.165,8916.666666666666
-0.405,-0.165,8919.444444444445
-0.415,-0.17,8922.222222222223
-0.43,-0.165,8925.0
-0.435,-0.155,8927.777777777777
-0.45,-0.145,8930.555555555555
-0.46,-0.14,8933.333333333334
-0.46,-0.13,8936.111111111111
-0.465,-0.14,8938.888888888889
-0.465,-0.14,8941.666666666666
-0.465,-0.135,8944.444444444445
-0.49,-0.14,8947.222222222223
-0.505,-0.155,8950.0
-0.505,-0.165,8952.777777777777
-0.52,-0.155,8955.555555555555
-0.515,-0.15,8958.333333333334
-0.515,-0.16,8961.111111111111
-0.515,-0.13,8963.888888888889
-0.505,-0.14,8966.666666666666
-0.5,-0.13,8969.444444444445
-0.495,-0.125,8972.222222222223
-0.505,-0.135,8975.0
-0.505,-0.125,8977.777777777777
-0.51,-0.145,8980.555555555555
-0.525,-0.145,8983.333333333334
-0.52,-0.155,8986.111111111111
-0.525,-0.155,8988.888888888889
-0.53,-0.145,8991.666666666666
-0.53,-0.14,8994.444444444445
-0.52,-0.125,8997.222222222223
-0.515,-0.135,9000.0
-0.51,-0.13,9002.777777777777
-0.5,-0.125,9005.555555555555
-0.495,-0.125,9008.333333333334
-0.495,-0.13,9011.111111111111
-0.5,-0.15,9013.888888888889
-0.505,-0.16,9016.666666666666
-0.515,-0.15,9019.444444444445
-0.51,-0.16,9022.222222222223
-0.505,-0.145,9025.0
-0.505,-0.15,9027.777777777777
-0.49,-0.14,9030.555555555555
-0.505,-0.14,9033.333333333334
-0.495,-0.145,9036.111111111111
-0.47,-0.12,9038.888888888889
-0.475,-0.135,9041.666666666666
-0.47,-0.15,9044.444444444445
-0.485,-0.15,9047.222222222223
-0.49,-0.16,9050.0
-0.49,-0.15,9052.777777777777
-0.495,-0.16,9055.555555555555
-0.49,-0.165,9058.333333333334
-0.495,-0.15,9061.111111111111
-0.49,-0.145,9063.888888888889
-0.48,-0.145,9066.666666666666
-0.47,-0.135,9069.444444444445
-0.47,-0.14,9072.222222222223
-0.475,-0.15,9075.0
-0.46,-0.145,9077.777777777777
-0.465,-0.16,9080.555555555555
-0.47,-0.165,9083.333333333334
-0.495,-0.175,9086.111111111111
-0.5,-0.18,9088.888888888889
-0.495,-0.165,9091.666666666666
-0.5,-0.16,9094.444444444445
-0.5,-0.16,9097.222222222223
-0.495,-0.145,9100.0
-0.5,-0.15,9102.777777777777
-0.48,-0.14,9105.555555555555
-0.49,-0.16,9108.333333333334
-0.495,-0.15,9111.111111111111
-0.515,-0.155,9113.888888888889
-0.53,-0.175,9116.666666666666
-0.54,-0.18,9119.444444444445
-0.535,-0.175,9122.222222222223
-0.535,-0.17,9125.0
-0.53,-0.17,9127.777777777777
-0.53,-0.165,9130.555555555555
-0.52,-0.155,9133.333333333334
-0.525,-0.145,9136.111111111111
-0.505,-0.155,9138.888888888889
-0.505,-0.155,9141.666666666666
-0.52,-0.155,9144.444444444445
-0.53,-0.165,9147.222222222223
-0.53,-0.185,9150.0
-0.53,-0.19,9152.777777777777
-0.54,-0.19,9155.555555555555
-0.545,-0.185,9158.333333333334
-0.545,-0.18,9161.111111111111
-0.54,-0.17,9163.888888888889
-0.535,-0.17,9166.666666666666
-0.54,-0.15,9169.444444444445
-0.53,-0.155,9172.222222222223
-0.535,-0.165,9175.0
-0.54,-0.18,9177.777777777777
-0.54,-0.175,9180.555555555555
-0.54,-0.185,9183.333333333334
-0.545,-0.185,9186.111111111111
-0.555,-0.185,9188.888888888889
-0.555,-0.17,9191.666666666666
-0.555,-0.18,9194.444444444445
-0.55,-0.165,9197.222222222223
-0.54,-0.165,9200.0
-0.555,-0.165,9202.777777777777
-0.545,-0.15,9205.555555555555
-0.555,-0.155,9208.333333333334
-0.555,-0.155,9211.111111111111
-0.565,-0.17,9213.888888888889
-0.565,-0.175,9216.666666666666
-0.57,-0.175,9219.444444444445
-0.59,-0.17,9222.222222222223
-0.57,-0.155,9225.0
-0.565,-0.145,9227.777777777777
-0.555,-0.125,9230.555555555555
-0.54,-0.11,9233.333333333334
-0.525,-0.11,9236.111111111111
-0.505,-0.1,9238.888888888889
-0.5,-0.1,9241.666666666666
-0.49,-0.105,9244.444444444445
-0.49,-0.11,9247.222222222223
-0.49,-0.12,9250.0
-0.495,-0.15,9252.777777777777
-0.495,-0.16,9255.555555555555
-0.49,-0.17,9258.333333333334
-0.48,-0.17,9261.111111111111
-0.46,-0.175,9263.888888888889
-0.445,-0.18,9266.666666666666
-0.42,-0.165,9269.444444444445
-0.415,-0.135,9272.222222222223
-0.4,-0.14,9275.0
-0.405,-0.15,9277.777777777777
-0.42,-0.145,9280.555555555555
-0.44,-0.155,9283.333333333334
-0.45,-0.17,9286.111111111111
-0.435,-0.17,9288.888888888889
-0.455,-0.165,9291.666666666666
-0.43,-0.175,9294.444444444445
-0.425,-0.16,9297.222222222223
-0.425,-0.155,9300.0
-0.415,-0.155,9302.777777777777
-0.41,-0.16,9305.555555555555
-0.415,-0.165,9308.333333333334
-0.42,-0.165,9311.111111111111
-0.455,-0.185,9313.888888888889
-0.48,-0.185,9316.666666666666
-0.52,-0.2,9319.444444444445
-0.535,-0.19,9322.222222222223
-0.55,-0.19,9325.0
-0.565,-0.19,9327.777777777777
-0.57,-0.19,9330.555555555555
-0.57,-0.175,9333.333333333334
-0.56,-0.185,9336.111111111111
-0.55,-0.17,9338.888888888889
-0.54,-0.185,9341.666666666666
-0.54,-0.175,9344.444444444445
-0.56,-0.195,9347.222222222223
-0.565,-0.2,9350.0
-0.575,-0.2,9352.777777777777
-0.58,-0.205,9355.555555555555
-0.595,-0.195,9358.333333333334
-0.59,-0.185,9361.111111111111
-0.59,-0.18,9363.888888888889
-0.59,-0.18,9366.666666666666
-0.575,-0.18,9369.444444444445
-0.58,-0.16,9372.222222222223
-0.575,-0.185,9375.0
-0.585,-0.175,9377.777777777777
-0.595,-0.18,9380.555555555555
-0.6,-0.19,9383.333333333334
-0.605,-0.195,9386.111111111111
-0.595,-0.195,9388.888888888889
-0.6,-0.195,9391.666666666666
-0.585,-0.18,9394.444444444445
-0.59,-0.18,9397.222222222223
-0.58,-0.18,9400.0
-0.57,-0.17,9402.777777777777
-0.555,-0.175,9405.555555555555
-0.56,-0.18,9408.333333333334
-0.545,-0.165,9411.111111111111
-0.545,-0.175,9413.888888888889
-0.545,-0.17,9416.666666666666
-0.555,-0.17,9419.444444444445
-0.54,-0.155,9422.222222222223
-0.55,-0.15,9425.0
-0.535,-0.165,9427.777777777777
-0.525,-0.18,9430.555555555555
-0.505,-0.225,9433.333333333334
-0.48,-0.27,9436.111111111111
-0.445,-0.345,9438.888888888889
-0.365,-0.435,9441.666666666666
-0.255,-0.53,9444.444444444445
-0.085,-0.605,9447.222222222223
0.165,-0.635,9450.0
0.495,-0.62,9452.777777777777
0.875,-0.57,9455.555555555555
1.24,-0.485,9458.333333333334
1.54,-0.4,9461.111111111111
1.71,-0.3,9463.888888888889
1.655,-0.215,9466.666666666666
1.365,-0.175,9469.444444444445
0.855,-0.14,9472.222222222223
0.215,-0.14,9475.0
-0.425,-0.15,9477.777777777777
-1.015,-0.185,9480.555555555555
-1.325,-0.205,9483.333333333334
-1.37,-0.225,9486.111111111111
-1.21,-0.245,9488.888888888889
-0.975,-0.235,9491.666666666666
-0.745,-0.225,9494.444444444445
-0.57,-0.175,9497.222222222223
-0.465,-0.155,9500.0
-0.415,-0.12,9502.777777777777
-0.415,-0.11,9505.555555555555
-0.445,-0.125,9508.333333333334
-0.475,-0.125,9511.111111111111
-0.495,-0.145,9513.888888888889
-0.5,-0.155,9516.666666666666
-0.51,-0.155,9519.444444444445
-0.52,-0.16,9522.222222222223
-0.52,-0.155,9525.0
-0.52,-0.155,9527.777777777777
-0.515,-0.145,9530.555555555555
-0.495,-0.135,9533.333333333334
-0.49,-0.14,9536.111111111111
-0.48,-0.13,9538.888888888889
-0.475,-0.14,9541.666666666666
-0.48,-0.145,9544.444444444445
-0.485,-0.145,9547.222222222223
-0.49,-0.16,9550.0
-0.5,-0.16,9552.777777777777
-0.495,-0.17,9555.555555555555
-0.5,-0.17,9558.333333333334
-0.495,-0.155,9561.111111111111
-0.49,-0.155,9563.888888888889
-0.485,-0.15,9566.666666666666
-0.47,-0.15,9569.444444444445
-0.46,-0.135,9572.222222222223
-0.47,-0.14,9575.0
-0.47,-0.15,9577.777777777777
-0.47,-0.155,9580.555555555555
-0.475,-0.16,9583.333333333334
-0.475,-0.155,9586.111111111111
-0.49,-0.175,9588.888888888889
-0.485,-0.16,9591.666666666666
-0.49,-0.165,9594.444444444445
-0.475,-0.16,9597.222222222223
-0.475,-0.15,9600.0
-0.465,-0.15,9602.777777777777
-0.455,-0.15,9605.555555555555
-0.46,-0.15,9608.333333333334
-0.47,-0.16,9611.111111111111
-0.475,-0.16,9613.888888888889
-0.485,-0.165,9616.666666666666
-0.48,-0.18,9619.444444444445
-0.495,-0.18,9622.222222222223
-0.505,-0.175,9625.0
-0.49,-0.18,9627.777777777777
-0.495,-0.165,9630.555555555555
-0.48,-0.16,9633.333333333334
-0.475,-0.155,9636.111111111111
-0.485,-0.165,9638.888888888889
-0.475,-0.155,9641.666666666666
-0.455,-0.165,9644.444444444445
-0.46,-0.17,9647.222222222223
-0.47,-0.17,9650.0
-0.48,-0.18,9652.777777777777
-0.48,-0.19,9655.555555555555
-0.48,-0.18,9658.333333333334
-0.49,-0.185,9661.111111111111
-0.475,-0.17,9663.888888888889
-0.47,-0.17,9666.666666666666
-0.46,-0.145,9669.444444444445
-0.45,-0.15,9672.222222222223
-0.455,-0.165,9675.0
-0.45,-0.17,9677.777777777777
-0.46,-0.175,9680.555555555555
-0.46,-0.18,9683.333333333334
-0.46,-0.185,9686.111111111111
-0.47,-0.19,9688.888888888889
-0.47,-0.175,9691.666666666666
-0.475,-0.175,9694.444444444445
-0.46,-0.165,9697.222222222223
-0.455,-0.17,9700.0
-0.45,-0.165,9702.777777777777
-0.445,-0.16,9705.555555555555
-0.425,-0.165,9708.333333333334
-0.43,-0.165,9711.111111111111
-0.44,-0.175,9713.888888888889
-0.435,-0.185,9716.666666666666
-0.435,-0.19,9719.444444444445
-0.435,-0.195,9722.222222222223
-0.445,-0.185,9725.0
-0.435,-0.19,9727.777777777777
-0.42,-0.175,9730.555555555555
-0.42,-0.175,9733.333333333334
-0.4,-0.16,9736.111111111111
-0.39,-0.165,9738.888888888889
-0.39,-0.17,9741.666666666666
-0.39,-0.175,9744.444444444445
-0.4,-0.18,9747.222222222223
-0.405,-0.19,9750.0
-0.41,-0.205,9752.777777777777
-0.41,-0.205,9755.555555555555
-0.405,-0.2,9758.333333333334
-0.405,-0.195,9761.111111111111
-0.395,-0.185,9763.888888888889
-0.38,-0.18,9766.666666666666
-0.38,-0.185,9769.444444444445
-0.365,-0.175,9772.222222222223
-0.355,-0.185,9775.0
-0.365,-0.195,9777.777777777777
-0.37,-0.205,9780.555555555555
-0.365,-0.195,9783.333333333334
-0.375,-0.21,9786.111111111111
-0.37,-0.22,9788.888888888889
-0.375,-0.21,9791.666666666666
-0.365,-0.21,9794.444444444445
-0.36,-0.2,9797.222222222223
-0.345,-0.2,9800.0
-0.34,-0.195,9802.777777777777
-0.345,-0.2,9805.555555555555
-0.34,-0.195,9808.333333333334
-0.345,-0.205,9811.111111111111
-0.35,-0.22,9813.888888888889
-0.36,-0.215,9816.666666666666
-0.36,-0.215,9819.444444444445
-0.37,-0.22,9822.222222222223
-0.385,-0.22,9825.0
-0.365,-0.205,9827.777777777777
-0.37,-0.2,9830.555555555555
-0.355,-0.2,9833.333333333334
-0.355,-0.18,9836.111111111111
-0.36,-0.175,9838.888888888889
-0.365,-0.185,9841.666666666666
-0.375,-0.195,9844.444444444445
-0.385,-0.18,9847.222222222223
-0.41,-0.175,9850.0
-0.44,-0.19,9852.777777777777
-0.465,-0.18,9855.555555555555
-0.47,-0.18,9858.333333333334
-0.48,-0.17,9861.111111111111
-0.485,-0.16,9863.888888888889
-0.5,-0.15,9866.666666666666
-0.515,-0.15,9869.444444444445
-0.525,-0.135,9872.222222222223
-0.55,-0.15,9875.0
-0.56,-0.145,9877.777777777777
-0.575,-0.155,9880.555555555555
-0.59,-0.155,9883.333333333334
-0.595,-0.16,9886.111111111111
-0.605,-0.175,9888.888888888889
-0.625,-0.165,9891.666666666666
-0.625,-0.155,9894.444444444445
-0.615,-0.15,9897.222222222223
-0.62,-0.14,9900.0
-0.635,-0.145,9902.777777777777
-0.63,-0.145,9905.555555555555
-0.625,-0.135,9908.333333333334
-0.625,-0.14,9911.111111111111
-0.635,-0.145,9913.888888888889
-0.64,-0.155,9916.666666666666
-0.66,-0.165,9919.444444444445
-0.65,-0.165,9922.222222222223
-0.655,-0.145,9925.0
-0.64,-0.15,9927.777777777777
-0.63,-0.15,9930.555555555555
-0.63,-0.145,9933.333333333334
-0.625,-0.135,9936.111111111111
-0.615,-0.13,9938.888888888889
-0.62,-0.145,9941.666666666666
-0.61,-0.135,9944.444444444445
-0.625,-0.15,9947.222222222223
-0.625,-0.15,9950.0
-0.63,-0.165,9952.777777777777
-0.63,-0.165,9955.555555555555
-0.63,-0.17,9958.333333333334
-0.63,-0.155,9961.111111111111
-0.62,-0.155,9963.888888888889
-0.615,-0.15,9966.666666666666
-0.615,-0.135,9969.444444444445
-0.6,-0.14,9972.222222222223
-0.585,-0.145,9975.0
-0.585,-0.145,9977.777777777777
-0.58,-0.16,9980.555555555555
-0.605,-0.17,9983.333333333334
-0.6,-0.17,9986.111111111111
-0.605,-0.175,9988.888888888889
-0.605,-0.17,9991.666666666666
-0.61,-0.17,9994.444444444445
-0.595,-0.165,9997.222222222223
-0.58,-0.16,10000.0
-0.57,-0.165,10002.777777777777
-0.565,-0.16,10005.555555555555
-0.565,-0.155,10008.333333333334
-0.58,-0.17,10011.111111111111
-0.575,-0.165,10013.888888888889
-0.585,-0.165,10016.666666666666
-0.59,-0.185,10019.444444444445
-0.6,-0.195,10022.222222222223
-0.6,-0.19,10025.0
-0.6,-0.18,10027.777777777777
-0.605,-0.175,10030.555555555555
-0.6,-0.17,10033.333333333334
-0.595,-0.16,10036.111111111111
-0.585,-0.155,10038.888888888889
-0.59,-0.17,10041.666666666666
-0.59,-0.18,10044.444444444445
-0.59,-0.18,10047.222222222223
-0.605,-0.19,10050.0
-0.605,-0.21,10052.777777777777
-0.63,-0.195,10055.555555555555
-0.64,-0.195,10058.333333333334
-0.635,-0.2,10061.111111111111
-0.62,-0.175,10063.888888888889
-0.62,-0.18,10066.666666666666
-0.605,-0.16,10069.444444444445
-0.615,-0.165,10072.222222222223
-0.61,-0.17,10075.0
-0.61,-0.18,10077.777777777777
-0.61,-0.19,10080.555555555555
-0.63,-0.185,10083.333333333334
-0.63,-0.2,10086.111111111111
-0.65,-0.195,10088.888888888889
-0.64,-0.185,10091.666666666666
-0.655,-0.185,10094.444444444445
-0.635,-0.19,10097.222222222223
-0.64,-0.19,10100.0
-0.65,-0.17,10102.777777777777
-0.63,-0.17,10105.555555555555
-0.62,-0.185,10108.333333333334
-0.625,-0.17,10111.111111111111
-0.63,-0.185,10113.888888888889
-0.63,-0.2,10116.666666666666
-0.645,-0.2,10119.444444444445
-0.655,-0.2,10122.222222222223
-0.66,-0.185,10125.0
-0.665,-0.18,10127.777777777777
-0.64,-0.17,10130.555555555555
-0.63,-0.165,10133.333333333334
-0.625,-0.16,10136.111111111111
-0.63,-0.145,10138.888888888889
-0.615,-0.145,10141.666666666666
-0.61,-0.14,10144.444444444445
-0.61,-0.155,10147.222222222223
-0.62,-0.155,10150.0
-0.615,-0.14,10152.777777777777
-0.615,-0.145,10155.555555555555
-0.605,-0.14,10158.333333333334
-0.605,-0.13,10161.111111111111
-0.585,-0.13,10163.888888888889
-0.565,-0.135,10166.666666666666
-0.54,-0.14,10169.444444444445
-0.52,-0.145,10172.222222222223
-0.51,-0.17,10175.0
-0.505,-0.18,10177.777777777777
-0.51,-0.19,10180.555555555555
-0.49,-0.195,10183.333333333334
-0.495,-0.195,10186.111111111111
-0.505,-0.195,10188.888888888889
-0.51,-0.195,10191.666666666666
-0.53,-0.175,10194.444444444445
-0.53,-0.185,10197.222222222223
-0.52,-0.17,10200.0
-0.495,-0.165,10202.777777777777
-0.495,-0.16,10205.555555555555
-0.48,-0.165,10208.333333333334
-0.485,-0.165,10211.111111111111
-0.49,-0.19,10213.888888888889
-0.51,-0.2,10216.666666666666
-0.515,-0.205,10219.444444444445
-0.525,-0.215,10222.222222222223
-0.545,-0.215,10225.0
-0.565,-0.205,10227.777777777777
-0.57,-0.215,10230.555555555555
-0.585,-0.205,10233.333333333334
-0.595,-0.2,10236.111111111111
-0.62,-0.185,10238.888888888889
-0.625,-0.2,10241.666666666666
-0.63,-0.225,10244.444444444445
-0.655,-0.225,10247.222222222223
-0.65,-0.215,10250.0
-0.645,-0.225,10252.777777777777
-0.66,-0.23,10255.555555555555
-0.655,-0.235,10258.333333333334
-0.64,-0.225,10261.111111111111
-0.65,-0.215,10263.888888888889
-0.665,-0.225,10266.666666666666
-0.655,-0.21,10269.444444444445
-0.645,-0.195,10272.222222222223
-0.645,-0.215,10275.0
-0.65,-0.21,10277.777777777777
-0.655,-0.215,10280.555555555555
-0.66,-0.225,10283.333333333334
-0.69,-0.225,10286.111111111111
-0.675,-0.23,10288.888888888889
-0.685,-0.225,10291.666666666666
-0.665,-0.21,10294.444444444445
-0.675,-0.21,10297.222222222223
-0.675,-0.215,10300.0
-0.665,-0.2,10302.777777777777
-0.64,-0.205,10305.555555555555
-0.645,-0.21,10308.333333333334
-0.645,-0.19,10311.111111111111
-0.65,-0.21,10313.888888888889
-0.645,-0.22,10316.666666666666
-0.65,-0.22,10319.444444444445
-0.65,-0.22,10322.222222222223
-0.65,-0.215,10325.0
-0.645,-0.22,10327.777777777777
-0.645,-0.2,10330.555555555555
-0.625,-0.19,10333.333333333334
-0.62,-0.175,10336.111111111111
-0.59,-0.15,10338.888888888889
-0.585,-0.155,10341.666666666666
-0.58,-0.165,10344.444444444445
-0.57,-0.18,10347.222222222223
-0.58,-0.225,10350.0
-0.565,-0.28,10352.777777777777
-0.535,-0.33,10355.555555555555
-0.485,-0.4,10358.333333333334
-0.43,-0.465,10361.111111111111
-0.3,-0.54,10363.888888888889
-0.13,-0.6,10366.666666666666
0.105,-0.655,10369.444444444445
0.41,-0.67,10372.222222222223
0.76,-0.655,10375.0
1.14,-0.615,10377.777777777777
1.47,-0.545,10380.555555555555
1.685,-0.47,10383.333333333334
1.715,-0.39,10386.111111111111
1.5,-0.33,10388.888888888889
1.075,-0.275,10391.666666666666
0.455,-0.255,10394.444444444445
-0.185,-0.24,10397.222222222223
-0.825,-0.25,10400.0
-1.32,-0.26,10402.777777777777
-1.455,-0.28,10405.555555555555
-1.35,-0.295,10408.333333333334
-1.125,-0.27,10411.111111111111
-0.875,-0.25,10413.888888888889
-0.685,-0.21,10416.666666666666
-0.55,-0.185,10419.444444444445
-0.495,-0.165,10422.222222222223
-0.475,-0.17,10425.0
-0.495,-0.165,10427.777777777777
-0.52,-0.155,10430.555555555555
-0.565,-0.155,10433.333333333334
-0.585,-0.16,10436.111111111111
-0.585,-0.15,10438.888888888889
-0.565,-0.17,10441.666666666666
-0.555,-0.15,10444.444444444445
-0.56,-0.16,10447.222222222223
-0.565,-0.165,10450.0
-0.555,-0.18,10452.777777777777
-0.57,-0.19,10455.555555555555
-0.565,-0.185,10458.333333333334
-0.57,-0.175,10461.111111111111
-0.565,-0.16,10463.888888888889
-0.555,-0.16,10466.666666666666
-0.55,-0.16,10469.444444444445
-0.545,-0.145,10472.222222222223
-0.54,-0.165,10475.0
-0.535,-0.165,10477.777777777777
-0.53,-0.175,10480.555555555555
-0.54,-0.17,10483.333333333334
-0.535,-0.18,10486.111111111111
-0.555,-0.18,10488.888888888889
-0.555,-0.18,10491.666666666666
-0.545,-0.185,10494.444444444445
-0.54,-0.18,10497.222222222223
-0.535,-0.16,10500.0
-0.525,-0.16,10502.777777777777
-0.525,-0.155,10505.555555555555
-0.525,-0.17,10508.333333333334
-0.535,-0.165,10511.111111111111
-0.525,-0.17,10513.888888888889
-0.54,-0.17,10516.666666666666
-0.54,-0.19,10519.444444444445
-0.55,-0.2,10522.222222222223
-0.55,-0.2,10525.0
-0.545,-0.195,10527.777777777777
-0.54,-0.185,10530.555555555555
-0.535,-0.17,10533.333333333334
-0.53,-0.17,10536.111111111111
-0.515,-0.165,10538.888888888889
-0.505,-0.165,10541.666666666666
-0.52,-0.18,10544.444444444445
-0.52,-0.18,10547.222222222223
-0.515,-0.18,10550.0
-0.52,-0.185,10552.777777777777
-0.515,-0.19,10555.555555555555
-0.53,-0.19,10558.333333333334
-0.525,-0.195,10561.111111111111
-0.515,-0.19,10563.888888888889
-0.515,-0.175,10566.666666666666
-0.51,-0.17,10569.444444444445
-0.485,-0.16,10572.222222222223
-0.495,-0.17,10575.0
-0.5,-0.18,10577.777777777777
-0.5,-0.185,10580.555555555555
-0.515,-0.18,10583.333333333334
-0.505,-0.195,10586.111111111111
-0.51,-0.195,10588.888888888889
-0.51,-0.205,10591.666666666666
-0.5,-0.18,10594.444444444445
-0.505,-0.195,10597.222222222223
-0.49,-0.18,10600.0
-0.485,-0.18,10602.777777777777
-0.48,-0.175,10605.555555555555
-0.48,-0.175,10608.333333333334
-0.475,-0.185,10611.111111111111
-0.475,-0.185,10613.888888888889
-0.48,-0.2,10616.666666666666
-0.475,-0.19,10619.444444444445
-0.485,-0.205,10622.222222222223
-0.495,-0.2,10625.0
-0.505,-0.21,10627.777777777777
-0.475,-0.2,10630.555555555555
-0.47,-0.18,10633.333333333334
-0.46,-0.185,10636.111111111111
-0.455,-0.175,10638.888888888889
-0.45,-0.19,10641.666666666666
-0.455,-0.18,10644.444444444445
-0.445,-0.195,10647.222222222223
-0.445,-0.19,10650.0
-0.455,-0.2,10652.777777777777
-0.46,-0.205,10655.555555555555
-0.455,-0.205,10658.333333333334
-0.44,-0.21,10661.111111111111
-0.44,-0.19,10663.888888888889
-0.425,-0.185,10666.666666666666
-0.41,-0.18,10669.444444444445
-0.395,-0.17,10672.222222222223
-0.395,-0.17,10675.0
-0.385,-0.185,10677.777777777777
-0.385,-0.195,10680.555555555555
-0.39,-0.205,10683.333333333334
-0.39,-0.205,10686.111111111111
-0.385,-0.2,10688.888888888889
-0.4,-0.21,10691.666666666666
-0.395,-0.205,10694.444444444445
-0.38,-0.21,10697.222222222223
-0.37,-0.2,10700.0
-0.355,-0.195,10702.777777777777
-0.35,-0.18,10705.555555555555
-0.34,-0.19,10708.333333333334
-0.36,-0.19,10711.111111111111
-0.355,-0.205,10713.888888888889
-0.35,-0.215,10716.666666666666
-0.365,-0.21,10719.444444444445
-0.37,-0.225,10722.222222222223
-0.365,-0.22,10725.0
-0.36,-0.215,10727.777777777777
-0.345,-0.21,10730.555555555555
-0.34,-0.2,10733.333333333334
-0.345,-0.2,10736.111111111111
-0.325,-0.19,10738.888888888889
-0.33,-0.205,10741.666666666666
-0.325,-0.195,10744.444444444445
-0.335,-0.205,10747.222222222223
-0.34,-0.21,10750.0
-0.34,-0.225,10752.777777777777
-0.36,-0.23,10755.555555555555
-0.37,-0.215,10758.333333333334
-0.375,-0.2,10761.111111111111
-0.38,-0.195,10763.888888888889
-0.38,-0.195,10766.666666666666
-0.4,-0.19,10769.444444444445
-0.395,-0.185,10772.222222222223
-0.405,-0.185,10775.0
-0.43,-0.19,10777.777777777777
-0.46,-0.185,10780.555555555555
-0.48,-0.2,10783.333333333334
-0.495,-0.195,10786.111111111111
-0.52,-0.2,10788.888888888889
-0.53,-0.2,10791.666666666666
-0.555,-0.19,10794.444444444445
-0.57,-0.185,10797.222222222223
-0.58,-0.165,10800.0
-0.585,-0.16,10802.777777777777
-0.59,-0.165,10805.555555555555
-0.59,-0.165,10808.333333333334
-0.61,-0.175,10811.111111111111
-0.615,-0.185,10813.888888888889
-0.625,-0.185,10816.666666666666
-0.63,-0.195,10819.444444444445
-0.655,-0.19,10822.222222222223
-0.66,-0.19,10825.0
-0.665,-0.175,10827.777777777777
-0.65,-0.185,10830.555555555555
-0.65,-0.17,10833.333333333334
-0.65,-0.17,10836.111111111111
-0.64,-0.145,10838.888888888889
-0.65,-0.16,10841.666666666666
-0.65,-0.165,10844.444444444445
-0.65,-0.175,10847.222222222223
-0.66,-0.18,10850.0
-0.665,-0.195,10852.777777777777
-0.66,-0.19,10855.555555555555
-0.665,-0.19,10858.333333333334
-0.65,-0.18,10861.111111111111
-0.66,-0.175,10863.888888888889
-0.65,-0.18,10866.666666666666
-0.645,-0.16,10869.444444444445
-0.64,-0.155,10872.222222222223
-0.63,-0.17,10875.0
-0.63,-0.16,10877.777777777777
-0.625,-0.165,10880.555555555555
-0.635,-0.185,10883.333333333334
-0.635,-0.19,10886.111111111111
-0.645,-0.2,10888.888888888889
-0.64,-0.2,10891.666666666666
-0.62,-0.18,10894.444444444445
-0.62,-0.18,10897.222222222223
-0.61,-0.18,10900.0
-0.61,-0.17,10902.777777777777
-0.595,-0.175,10905.555555555555
-0.58,-0.17,10908.333333333334
-0.585,-0.175,10911.111111111111
-0.58,-0.185,10913.888888888889
-0.59,-0.185,10916.666666666666
-0.595,-0.19,10919.444444444445
-0.605,-0.195,10922.222222222223
-0.61,-0.2,10925.0
-0.62,-0.195,10927.777777777777
-0.595,-0.185,10930.555555555555
-0.59,-0.17,10933.333333333334
-0.585,-0.17,10936.111111111111
-0.575,-0.175,10938.888888888889
-0.57,-0.18,10941.666666666666
-0.57,-0.18,10944.444444444445
-0.58,-0.18,10947.222222222223
-0.59,-0.19,10950.0
-0.61,-0.19,10952.777777777777
-0.62,-0.195,10955.555555555555
-0.63,-0.2,10958.333333333334
-0.63,-0.2,10961.111111111111
-0.63,-0.195,10963.888888888889
-0.625,-0.19,10966.666666666666
-0.62,-0.175,10969.444444444445
-0.61,-0.175,10972.222222222223
-0.6,-0.19,10975.0
-0.6,-0.19,10977.777777777777
-0.6,-0.19,10980.555555555555
-0.605,-0.2,10983.333333333334
-0.615,-0.21,10986.111111111111
-0.625,-0.21,10988.888888888889
-0.635,-0.205,10991.666666666666
-0.63,-0.205,10994.444444444445
-0.62,-0.2,10997.222222222223
-0.62,-0.18,11000.0
-0.605,-0.185,11002.777777777777
-0.61,-0.175,11005.555555555555
-0.615,-0.19,11008.333333333334
-0.62,-0.185,11011.111111111111
-0.63,-0.2,11013.888888888889
-0.63,-0.205,11016.666666666666
-0.64,-0.21,11019.444444444445
-0.65,-0.22,11022.222222222223
-0.65,-0.215,11025.0
-0.65,-0.21,11027.777777777777
-0.645,-0.205,11030.555555555555
-0.65,-0.2,11033.333333333334
-0.645,-0.19,11036.111111111111
-0.63,-0.18,11038.888888888889
-0.61,-0.205,11041.666666666666
-0.63,-0.19,11044.444444444445
-0.625,-0.21,11047.222222222223
-0.645,-0.195,11050.0
-0.655,-0.205,11052.777777777777
-0.66,-0.215,11055.555555555555
-0.65,-0.22,11058.333333333334
-0.635,-0.21,11061.111111111111
-0.635,-0.195,11063.888888888889
-0.64,-0.2,11066.666666666666
-0.625,-0.195,11069.444444444445
-0.625,-0.195,11072.222222222223
-0.62,-0.195,11075.0
-0.625,-0.205,11077.777777777777
-0.615,-0.2,11080.555555555555
-0.635,-0.205,11083.333333333334
-0.62,-0.22,11086.111111111111
-0.645,-0.22,11088.888888888889
-0.64,-0.215,11091.666666666666
-0.63,-0.225,11094.444444444445
-0.625,-0.2,11097.222222222223
-0.61,-0.195,11100.0
-0.615,-0.2,11102.777777777777
-0.615,-0.19,11105.555555555555
-0.61,-0.195,11108.333333333334
-0.615,-0.195,11111.111111111111
-0.615,-0.2,11113.888888888889
-0.62,-0.2,11116.666666666666
-0.63,-0.22,11119.444444444445
-0.64,-0.22,11122.222222222223
-0.615,-0.215,11125.0
-0.62,-0.21,11127.777777777777
-0.63,-0.2,11130.555555555555
-0.62,-0.2,11133.333333333334
-0.62,-0.185,11136.111111111111
