MLII,V1,time_ms
-0.32,-1.24,0.0
-0.32,-1.24,2.7777777777777777
-0.32,-1.24,5.555555555555555
-0.32,-1.24,8.333333333333334
-0.32,-1.24,11.11111111111111
-0.32,-1.24,13.88888888888889
-0.32,-1.24,16.666666666666668
-0.32,-1.31,19.444444444444443
-0.025,-1.375,22.22222222222222
0.265,-1.445,25.0
0.58,-1.515,27.77777777777778
0.925,-1.565,30.555555555555557
1.31,-1.575,33.333333333333336
1.67,-1.575,36.111111111111114
2.01,-1.54,38.888888888888886
2.24,-1.465,41.666666666666664
2.315,-1.365,44.44444444444444
2.185,-1.245,47.22222222222222
1.77,-1.145,50.0
1.13,-1.055,52.77777777777778
0.49,-1.02,55.55555555555556
-0.15,-0.975,58.333333333333336
-0.79,-0.945,61.111111111111114
-1.43,-0.91,63.888888888888886
-1.64,-0.87,66.66666666666667
-1.385,-0.85,69.44444444444444
-1.105,-0.85,72.22222222222223
-0.92,-0.865,75.0
-0.855,-0.88,77.77777777777777
-0.9,-0.885,80.55555555555556
-0.995,-0.875,83.33333333333333
-1.09,-0.85,86.11111111111111
-1.17,-0.835,88.88888888888889
-1.2,-0.82,91.66666666666667
-1.18,-0.8,94.44444444444444
-1.185,-0.805,97.22222222222223
-1.155,-0.765,100.0
-1.145,-0.765,102.77777777777777
-1.125,-0.775,105.55555555555556
-1.135,-0.785,108.33333333333333
-1.155,-0.795,111.11111111111111
-1.165,-0.79,113.88888888888889
-1.175,-0.79,116.66666666666667
-1.185,-0.775,119.44444444444444
-1.185,-0.78,122.22222222222223
-1.185,-0.755,125.0
-1.145,-0.755,127.77777777777777
-1.135,-0.735,130.55555555555554
-1.12,-0.755,133.33333333333334
-1.1,-0.76,136.11111111111111
-1.075,-0.76,138.88888888888889
-1.09,-0.77,141.66666666666666
-1.1,-0.79,144.44444444444446
-1.105,-0.795,147.22222222222223
-1.11,-0.78,150.0
-1.11,-0.775,152.77777777777777
-1.115,-0.76,155.55555555555554
-1.11,-0.74,158.33333333333334
-1.075,-0.725,161.11111111111111
-1.08,-0.735,163.88888888888889
-1.05,-0.73,166.66666666666666
-1.035,-0.73,169.44444444444446
-1.035,-0.74,172.22222222222223
-1.025,-0.75,175.0
-1.02,-0.73,177.77777777777777
-1.01,-0.76,180.55555555555554
-1.0,-0.755,183.33333333333334
-1.0,-0.755,186.11111111111111
-0.98,-0.73,188.88888888888889
-0.96,-0.72,191.66666666666666
-0.935,-0.69,194.44444444444446
-0.92,-0.68,197.22222222222223
-0.895,-0.68,200.0
-0.885,-0.69,202.77777777777777
-0.895,-0.705,205.55555555555554
-0.865,-0.71,208.33333333333334
-0.84,-0.71,211.11111111111111
-0.83,-0.7,213.88888888888889
-0.82,-0.695,216.66666666666666
-0.81,-0.67,219.44444444444446
-0.775,-0.655,222.22222222222223
-0.735,-0.64,225.0
-0.695,-0.635,227.77777777777777
-0.655,-0.625,230.55555555555554
-0.61,-0.62,233.33333333333334
-0.575,-0.625,236.11111111111111
-0.555,-0.63,238.88888888888889
-0.515,-0.64,241.66666666666666
-0.515,-0.64,244.44444444444446
-0.49,-0.65,247.22222222222223
-0.485,-0.645,250.0
-0.47,-0.64,252.77777777777777
-0.47,-0.625,255.55555555555554
-0.445,-0.615,258.3333333333333
-0.425,-0.6,261.1111111111111
-0.395,-0.575,263.8888888888889
-0.355,-0.575,266.6666666666667
-0.34,-0.59,269.44444444444446
-0.335,-0.595,272.22222222222223
-0.34,-0.625,275.0
-0.35,-0.64,277.77777777777777
-0.375,-0.65,280.55555555555554
-0.39,-0.64,283.3333333333333
-0.415,-0.625,286.1111111111111
-0.44,-0.625,288.8888888888889
-0.48,-0.625,291.6666666666667
-0.495,-0.63,294.44444444444446
-0.53,-0.645,297.22222222222223
-0.565,-0.645,300.0
-0.605,-0.66,302.77777777777777
-0.66,-0.68,305.55555555555554
-0.7,-0.7,308.3333333333333
-0.74,-0.71,311.1111111111111
-0.8,-0.74,313.8888888888889
-0.835,-0.735,316.6666666666667
-0.895,-0.71,319.44444444444446
-0.945,-0.725,322.22222222222223
-0.99,-0.725,325.0
-1.02,-0.725,327.77777777777777
-1.05,-0.73,330.55555555555554
-1.06,-0.7,333.3333333333333
-1.09,-0.695,336.1111111111111
-1.12,-0.68,338.8888888888889
-1.12,-0.71,341.6666666666667
-1.145,-0.74,344.44444444444446
-1.17,-0.79,347.22222222222223
-1.205,-0.81,350.0
-1.255,-0.82,352.77777777777777
-1.26,-0.79,355.55555555555554
-1.26,-0.775,358.3333333333333
-1.245,-0.725,361.1111111111111
-1.225,-0.72,363.8888888888889
-1.215,-0.735,366.6666666666667
-1.215,-0.75,369.44444444444446
-1.23,-0.76,372.22222222222223
-1.24,-0.765,375.0
-1.245,-0.78,377.77777777777777
-1.26,-0.775,380.55555555555554
-1.265,-0.775,383.3333333333333
-1.275,-0.735,386.1111111111111
-1.27,-0.745,388.8888888888889
-1.28,-0.745,391.6666666666667
-1.26,-0.745,394.44444444444446
-1.26,-0.74,397.22222222222223
-1.235,-0.75,400.0
-1.24,-0.735,402.77777777777777
-1.24,-0.73,405.55555555555554
-1.235,-0.735,408.3333333333333
-1.245,-0.75,411.1111111111111
-1.245,-0.745,413.8888888888889
-1.25,-0.75,416.6666666666667
-1.27,-0.755,419.44444444444446
-1.265,-0.74,422.22222222222223
-1.245,-0.73,425.0
-1.23,-0.72,427.77777777777777
-1.21,-0.715,430.55555555555554
-1.205,-0.71,433.3333333333333
-1.215,-0.7,436.1111111111111
-1.23,-0.72,438.8888888888889
-1.235,-0.73,441.6666666666667
-1.25,-0.725,444.44444444444446
-1.265,-0.74,447.22222222222223
-1.265,-0.72,450.0
-1.27,-0.705,452.77777777777777
-1.27,-0.72,455.55555555555554
-1.265,-0.705,458.3333333333333
-1.25,-0.71,461.1111111111111
-1.24,-0.725,463.8888888888889
-1.225,-0.735,466.6666666666667
-1.235,-0.76,469.44444444444446
-1.245,-0.76,472.22222222222223
-1.26,-0.74,475.0
-1.28,-0.76,477.77777777777777
-1.3,-0.75,480.55555555555554
-1.3,-0.755,483.3333333333333
-1.305,-0.775,486.1111111111111
-1.305,-0.785,488.8888888888889
-1.285,-0.775,491.6666666666667
-1.29,-0.755,494.44444444444446
-1.295,-0.745,497.22222222222223
-1.295,-0.725,500.0
-1.3,-0.715,502.77777777777777
-1.305,-0.715,505.55555555555554
-1.31,-0.76,508.3333333333333
-1.325,-0.77,511.1111111111111
-1.315,-0.79,513.8888888888889
-1.34,-0.79,516.6666666666666
-1.34,-0.775,519.4444444444445
-1.345,-0.78,522.2222222222222
-1.325,-0.75,525.0
-1.33,-0.735,527.7777777777778
-1.315,-0.72,530.5555555555555
-1.305,-0.7,533.3333333333334
-1.295,-0.71,536.1111111111111
-1.305,-0.725,538.8888888888889
-1.3,-0.74,541.6666666666666
-1.305,-0.76,544.4444444444445
-1.32,-0.765,547.2222222222222
-1.335,-0.765,550.0
-1.335,-0.755,552.7777777777778
-1.36,-0.775,555.5555555555555
-1.355,-0.76,558.3333333333334
-1.35,-0.73,561.1111111111111
-1.355,-0.73,563.8888888888889
-1.34,-0.715,566.6666666666666
-1.345,-0.705,569.4444444444445
-1.35,-0.705,572.2222222222222
-1.375,-0.725,575.0
-1.385,-0.735,577.7777777777778
-1.385,-0.78,580.5555555555555
-1.365,-0.755,583.3333333333334
-1.365,-0.76,586.1111111111111
-1.37,-0.75,588.8888888888889
-1.36,-0.725,591.6666666666666
-1.345,-0.7,594.4444444444445
-1.325,-0.67,597.2222222222222
-1.305,-0.665,600.0
-1.27,-0.65,602.7777777777778
-1.27,-0.665,605.5555555555555
-1.265,-0.65,608.3333333333334
-1.275,-0.67,611.1111111111111
-1.305,-0.69,613.8888888888889
-1.325,-0.695,616.6666666666666
-1.33,-0.7,619.4444444444445
-1.325,-0.72,622.2222222222222
-1.3,-0.715,625.0
-1.27,-0.705,627.7777777777778
-1.255,-0.705,630.5555555555555
-1.24,-0.695,633.3333333333334
-1.235,-0.685,636.1111111111111
-1.21,-0.7,638.8888888888889
-1.195,-0.68,641.6666666666666
-1.195,-0.69,644.4444444444445
-1.2,-0.7,647.2222222222222
-1.205,-0.72,650.0
-1.2,-0.74,652.7777777777778
-1.2,-0.775,655.5555555555555
-1.205,-0.76,658.3333333333334
-1.215,-0.74,661.1111111111111
-1.21,-0.7,663.8888888888889
-1.215,-0.69,666.6666666666666
-1.23,-0.69,669.4444444444445
-1.245,-0.695,672.2222222222222
-1.26,-0.725,675.0
-1.28,-0.735,677.7777777777778
-1.3,-0.755,680.5555555555555
-1.31,-0.77,683.3333333333334
-1.35,-0.765,686.1111111111111
-1.375,-0.77,688.8888888888889
-1.385,-0.745,691.6666666666666
-1.4,-0.75,694.4444444444445
-1.4,-0.74,697.2222222222222
-1.4,-0.755,700.0
-1.4,-0.75,702.7777777777778
-1.39,-0.76,705.5555555555555
-1.375,-0.76,708.3333333333334
-1.385,-0.775,711.1111111111111
-1.38,-0.78,713.8888888888889
-1.39,-0.775,716.6666666666666
-1.41,-0.775,719.4444444444445
-1.425,-0.76,722.2222222222222
-1.43,-0.74,725.0
-1.42,-0.74,727.7777777777778
-1.42,-0.715,730.5555555555555
-1.4,-0.695,733.3333333333334
-1.385,-0.7,736.1111111111111
-1.395,-0.71,738.8888888888889
-1.395,-0.74,741.6666666666666
-1.395,-0.775,744.4444444444445
-1.375,-0.825,747.2222222222222
-1.34,-0.86,750.0
-1.29,-0.905,752.7777777777778
-1.205,-0.945,755.5555555555555
-1.045,-0.97,758.3333333333334
-0.87,-1.005,761.1111111111111
-0.625,-1.035,763.8888888888889
-0.38,-1.08,766.6666666666666
-0.105,-1.135,769.4444444444445
0.135,-1.195,772.2222222222222
0.395,-1.28,775.0
0.665,-1.35,777.7777777777778
0.975,-1.36,780.5555555555555
1.255,-1.31,783.3333333333334
1.43,-1.205,786.1111111111111
1.45,-1.08,788.8888888888889
1.205,-0.97,791.6666666666666
0.665,-0.92,794.4444444444445
0.025,-0.885,797.2222222222222
-0.615,-0.89,800.0
-1.255,-0.875,802.7777777777778
-1.895,-0.87,805.5555555555555
-2.07,-0.855,808.3333333333334
-1.9,-0.825,811.1111111111111
-1.64,-0.785,813.8888888888889
-1.39,-0.745,816.6666666666666
-1.235,-0.725,819.4444444444445
-1.185,-0.72,822.2222222222222
-1.2,-0.72,825.0
-1.24,-0.72,827.7777777777778
-1.285,-0.74,830.5555555555555
-1.32,-0.715,833.3333333333334
-1.35,-0.72,836.1111111111111
-1.36,-0.71,838.8888888888889
-1.36,-0.71,841.6666666666666
-1.365,-0.71,844.4444444444445
-1.365,-0.695,847.2222222222222
-1.365,-0.72,850.0
-1.395,-0.71,852.7777777777778
-1.395,-0.715,855.5555555555555
-1.38,-0.695,858.3333333333334
-1.38,-0.69,861.1111111111111
-1.365,-0.695,863.8888888888889
-1.335,-0.675,866.6666666666666
-1.305,-0.685,869.4444444444445
-1.29,-0.685,872.2222222222222
-1.285,-0.695,875.0
-1.295,-0.695,877.7777777777778
-1.3,-0.715,880.5555555555555
-1.29,-0.71,883.3333333333334
-1.29,-0.715,886.1111111111111
-1.295,-0.695,888.8888888888889
-1.275,-0.685,891.6666666666666
-1.26,-0.66,894.4444444444445
-1.235,-0.675,897.2222222222222
-1.225,-0.63,900.0
-1.225,-0.635,902.7777777777778
-1.215,-0.65,905.5555555555555
-1.21,-0.665,908.3333333333334
-1.23,-0.69,911.1111111111111
-1.215,-0.695,913.8888888888889
-1.195,-0.705,916.6666666666666
-1.19,-0.705,919.4444444444445
-1.18,-0.695,922.2222222222222
-1.155,-0.68,925.0
-1.135,-0.665,927.7777777777778
-1.1,-0.665,930.5555555555555
-1.075,-0.665,933.3333333333334
-1.065,-0.655,936.1111111111111
-1.045,-0.68,938.8888888888889
-1.035,-0.67,941.6666666666666
-1.04,-0.685,944.4444444444445
-1.045,-0.675,947.2222222222222
-1.025,-0.665,950.0
-1.025,-0.675,952.7777777777778
-1.015,-0.65,955.5555555555555
-0.98,-0.64,958.3333333333334
-0.945,-0.625,961.1111111111111
-0.925,-0.615,963.8888888888889
-0.875,-0.595,966.6666666666666
-0.855,-0.605,969.4444444444445
-0.83,-0.615,972.2222222222222
-0.81,-0.6,975.0
-0.77,-0.61,977.7777777777778
-0.75,-0.625,980.5555555555555
-0.73,-0.63,983.3333333333334
-0.755,-0.62,986.1111111111111
-0.7,-0.62,988.8888888888889
-0.705,-0.59,991.6666666666666
-0.685,-0.575,994.4444444444445
-0.66,-0.565,997.2222222222222
-0.635,-0.575,1000.0
-0.61,-0.595,1002.7777777777778
-0.6,-0.6,1005.5555555555555
-0.6,-0.62,1008.3333333333334
-0.6,-0.615,1011.1111111111111
-0.6,-0.62,1013.8888888888889
-0.605,-0.605,1016.6666666666666
-0.62,-0.595,1019.4444444444445
-0.615,-0.585,1022.2222222222222
-0.64,-0.585,1025.0
-0.64,-0.6,1027.7777777777778
-0.65,-0.625,1030.5555555555557
-0.665,-0.61,1033.3333333333333
-0.7,-0.62,1036.111111111111
-0.75,-0.625,1038.888888888889
-0.77,-0.63,1041.6666666666667
-0.83,-0.655,1044.4444444444443
-0.885,-0.675,1047.2222222222222
-0.925,-0.69,1050.0
-0.975,-0.68,1052.7777777777778
-0.995,-0.675,1055.5555555555557
-1.01,-0.675,1058.3333333333333
-1.055,-0.675,1061.111111111111
-1.065,-0.68,1063.888888888889
-1.07,-0.69,1066.6666666666667
-1.08,-0.69,1069.4444444444443
-1.115,-0.695,1072.2222222222222
-1.13,-0.705,1075.0
-1.155,-0.715,1077.7777777777778
-1.18,-0.725,1080.5555555555557
-1.21,-0.715,1083.3333333333333
-1.235,-0.75,1086.111111111111
-1.24,-0.735,1088.888888888889
-1.23,-0.745,1091.6666666666667
-1.225,-0.765,1094.4444444444443
-1.22,-0.745,1097.2222222222222
-1.215,-0.735,1100.0
-1.22,-0.735,1102.7777777777778
-1.21,-0.745,1105.5555555555557
-1.23,-0.745,1108.3333333333333
-1.235,-0.74,1111.111111111111
-1.245,-0.745,1113.888888888889
-1.25,-0.74,1116.6666666666667
-1.25,-0.73,1119.4444444444443
-1.255,-0.725,1122.2222222222222
-1.25,-0.715,1125.0
-1.24,-0.72,1127.7777777777778
-1.23,-0.72,1130.5555555555557
-1.215,-0.72,1133.3333333333333
-1.2,-0.715,1136.111111111111
-1.205,-0.745,1138.888888888889
-1.2,-0.765,1141.6666666666667
-1.215,-0.77,1144.4444444444443
-1.22,-0.755,1147.2222222222222
-1.19,-0.75,1150.0
-1.2,-0.73,1152.7777777777778
-1.19,-0.72,1155.5555555555557
-1.185,-0.72,1158.3333333333333
-1.165,-0.69,1161.111111111111
-1.15,-0.67,1163.888888888889
-1.15,-0.69,1166.6666666666667
-1.14,-0.705,1169.4444444444443
-1.145,-0.7,1172.2222222222222
-1.145,-0.725,1175.0
-1.155,-0.745,1177.7777777777778
-1.165,-0.755,1180.5555555555557
-1.155,-0.78,1183.3333333333333
-1.15,-0.77,1186.111111111111
-1.15,-0.775,1188.888888888889
-1.15,-0.76,1191.6666666666667
-1.16,-0.755,1194.4444444444443
-1.16,-0.74,1197.2222222222222
-1.155,-0.715,1200.0
-1.145,-0.715,1202.7777777777778
-1.14,-0.73,1205.5555555555557
-1.12,-0.725,1208.3333333333333
-1.135,-0.725,1211.111111111111
-1.135,-0.725,1213.888888888889
-1.135,-0.725,1216.6666666666667
-1.165,-0.735,1219.4444444444443
-1.16,-0.72,1222.2222222222222
-1.15,-0.715,1225.0
-1.145,-0.705,1227.7777777777778
-1.145,-0.695,1230.5555555555557
-1.135,-0.68,1233.3333333333333
-1.14,-0.68,1236.111111111111
-1.175,-0.68,1238.888888888889
-1.17,-0.705,1241.6666666666667
-1.185,-0.725,1244.4444444444443
-1.195,-0.765,1247.2222222222222
-1.19,-0.78,1250.0
-1.19,-0.79,1252.7777777777778
-1.21,-0.775,1255.5555555555557
-1.205,-0.76,1258.3333333333333
-1.18,-0.75,1261.111111111111
-1.175,-0.75,1263.888888888889
-1.16,-0.745,1266.6666666666667
-1.17,-0.75,1269.4444444444443
-1.175,-0.73,1272.2222222222222
-1.185,-0.73,1275.0
-1.175,-0.72,1277.7777777777778
-1.185,-0.755,1280.5555555555557
-1.195,-0.785,1283.3333333333333
-1.2,-0.8,1286.111111111111
-1.2,-0.82,1288.888888888889
-1.205,-0.82,1291.6666666666667
-1.21,-0.785,1294.4444444444443
-1.21,-0.755,1297.2222222222222
-1.175,-0.735,1300.0
-1.175,-0.71,1302.7777777777778
-1.165,-0.695,1305.5555555555557
-1.15,-0.72,1308.3333333333333
-1.165,-0.73,1311.111111111111
-1.19,-0.745,1313.888888888889
-1.205,-0.765,1316.6666666666667
-1.235,-0.79,1319.4444444444443
-1.24,-0.785,1322.2222222222222
-1.22,-0.77,1325.0
-1.205,-0.76,1327.7777777777778
-1.2,-0.75,1330.5555555555557
-1.19,-0.735,1333.3333333333333
-1.205,-0.73,1336.111111111111
-1.195,-0.74,1338.888888888889
-1.2,-0.745,1341.6666666666667
-1.225,-0.765,1344.4444444444443
-1.205,-0.765,1347.2222222222222
-1.215,-0.76,1350.0
-1.21,-0.73,1352.7777777777778
-1.205,-0.705,1355.5555555555557
-1.2,-0.67,1358.3333333333333
-1.16,-0.675,1361.111111111111
-1.14,-0.68,1363.888888888889
-1.125,-0.71,1366.6666666666667
-1.12,-0.71,1369.4444444444443
-1.115,-0.72,1372.2222222222222
-1.105,-0.715,1375.0
-1.09,-0.695,1377.7777777777778
-1.09,-0.695,1380.5555555555557
-1.105,-0.685,1383.3333333333333
-1.105,-0.695,1386.111111111111
-1.11,-0.695,1388.888888888889
-1.115,-0.7,1391.6666666666667
-1.095,-0.715,1394.4444444444443
-1.09,-0.715,1397.2222222222222
-1.075,-0.705,1400.0
-1.05,-0.715,1402.7777777777778
-1.05,-0.73,1405.5555555555557
-1.015,-0.74,1408.3333333333333
-0.995,-0.755,1411.111111111111
-0.985,-0.765,1413.888888888889
-0.97,-0.775,1416.6666666666667
-0.965,-0.77,1419.4444444444443
-0.99,-0.765,1422.2222222222222
-1.005,-0.74,1425.0
-1.015,-0.72,1427.7777777777778
-0.995,-0.715,1430.5555555555557
-0.995,-0.705,1433.3333333333333
-0.985,-0.705,1436.111111111111
-0.99,-0.73,1438.888888888889
-1.005,-0.73,1441.6666666666667
-1.035,-0.745,1444.4444444444443
-1.065,-0.745,1447.2222222222222
-1.075,-0.75,1450.0
-1.11,-0.745,1452.7777777777778
-1.145,-0.74,1455.5555555555557
-1.155,-0.735,1458.3333333333333
-1.185,-0.725,1461.111111111111
-1.18,-0.74,1463.888888888889
-1.185,-0.735,1466.6666666666667
-1.2,-0.76,1469.4444444444443
-1.21,-0.75,1472.2222222222222
-1.21,-0.75,1475.0
-1.22,-0.755,1477.7777777777778
-1.205,-0.755,1480.5555555555557
-1.21,-0.755,1483.3333333333333
-1.205,-0.75,1486.111111111111
-1.205,-0.74,1488.888888888889
-1.2,-0.74,1491.6666666666667
-1.2,-0.715,1494.4444444444443
-1.2,-0.72,1497.2222222222222
-1.185,-0.705,1500.0
-1.175,-0.72,1502.7777777777778
-1.175,-0.74,1505.5555555555557
-1.17,-0.74,1508.3333333333333
-1.205,-0.75,1511.111111111111
-1.23,-0.77,1513.888888888889
-1.215,-0.8,1516.6666666666667
-1.205,-0.825,1519.4444444444443
-1.19,-0.825,1522.2222222222222
-1.135,-0.89,1525.0
-1.02,-0.94,1527.7777777777778
-0.87,-1.015,1530.5555555555557
-0.66,-1.09,1533.3333333333333
-0.36,-1.185,1536.111111111111
-0.02,-1.255,1538.888888888889
0.35,-1.34,1541.6666666666667
0.74,-1.42,1544.4444444444443
1.13,-1.51,1547.2222222222222
1.52,-1.545,1550.0
1.875,-1.56,1552.7777777777778
2.135,-1.51,1555.5555555555557
2.315,-1.42,1558.3333333333333
2.375,-1.285,1561.111111111111
2.32,-1.17,1563.888888888889
2.07,-1.03,1566.6666666666667
1.565,-0.95,1569.4444444444443
0.925,-0.915,1572.2222222222222
0.285,-0.915,1575.0
-0.355,-0.905,1577.7777777777778
-0.995,-0.885,1580.5555555555557
-1.635,-0.855,1583.3333333333333
-1.67,-0.8,1586.111111111111
-1.4,-0.765,1588.888888888889
-1.105,-0.725,1591.6666666666667
-0.88,-0.72,1594.4444444444443
-0.8,-0.69,1597.2222222222222
-0.84,-0.71,1600.0
-0.915,-0.725,1602.7777777777778
-1.02,-0.745,1605.5555555555557
-1.105,-0.75,1608.3333333333333
-1.16,-0.765,1611.111111111111
-1.16,-0.755,1613.888888888889
-1.165,-0.73,1616.6666666666667
-1.145,-0.72,1619.4444444444443
-1.15,-0.705,1622.2222222222222
-1.135,-0.675,1625.0
-1.14,-0.66,1627.7777777777778
-1.145,-0.66,1630.5555555555557
-1.135,-0.675,1633.3333333333333
-1.125,-0.665,1636.111111111111
-1.135,-0.68,1638.888888888889
-1.12,-0.685,1641.6666666666667
-1.105,-0.705,1644.4444444444443
-1.1,-0.705,1647.2222222222222
-1.1,-0.69,1650.0
-1.12,-0.71,1652.7777777777778
-1.115,-0.7,1655.5555555555557
-1.1,-0.705,1658.3333333333333
-1.085,-0.7,1661.111111111111
-1.065,-0.675,1663.888888888889
-1.06,-0.665,1666.6666666666667
-1.04,-0.655,1669.4444444444443
-1.04,-0.655,1672.2222222222222
-1.04,-0.64,1675.0
-1.04,-0.665,1677.7777777777778
-1.03,-0.68,1680.5555555555557
-1.04,-0.69,1683.3333333333333
-1.04,-0.7,1686.111111111111
-1.025,-0.705,1688.888888888889
-1.02,-0.675,1691.6666666666667
-1.005,-0.67,1694.4444444444443
-1.0,-0.64,1697.2222222222222
-0.975,-0.635,1700.0
-0.95,-0.64,1702.7777777777778
-0.955,-0.64,1705.5555555555557
-0.93,-0.67,1708.3333333333333
-0.92,-0.68,1711.111111111111
-0.915,-0.675,1713.888888888889
-0.895,-0.67,1716.6666666666667
-0.875,-0.655,1719.4444444444443
-0.86,-0.65,1722.2222222222222
-0.855,-0.62,1725.0
-0.84,-0.605,1727.7777777777778
-0.825,-0.615,1730.5555555555557
-0.79,-0.61,1733.3333333333333
-0.77,-0.61,1736.111111111111
-0.72,-0.61,1738.888888888889
-0.7,-0.615,1741.6666666666667
-0.66,-0.625,1744.4444444444443
-0.66,-0.62,1747.2222222222222
-0.66,-0.63,1750.0
-0.645,-0.64,1752.7777777777778
-0.63,-0.645,1755.5555555555557
-0.605,-0.62,1758.3333333333333
-0.565,-0.595,1761.111111111111
-0.515,-0.595,1763.888888888889
-0.475,-0.56,1766.6666666666667
-0.415,-0.56,1769.4444444444443
-0.38,-0.56,1772.2222222222222
-0.355,-0.555,1775.0
-0.335,-0.565,1777.7777777777778
-0.33,-0.59,1780.5555555555557
-0.325,-0.575,1783.3333333333333
-0.295,-0.57,1786.111111111111
-0.275,-0.56,1788.888888888889
-0.25,-0.535,1791.6666666666667
-0.23,-0.53,1794.4444444444443
-0.21,-0.525,1797.2222222222222
-0.205,-0.55,1800.0
-0.19,-0.555,1802.7777777777778
-0.21,-0.575,1805.5555555555557
-0.185,-0.585,1808.3333333333333
-0.225,-0.58,1811.111111111111
-0.225,-0.585,1813.888888888889
-0.25,-0.59,1816.6666666666667
-0.28,-0.59,1819.4444444444443
-0.305,-0.615,1822.2222222222222
-0.35,-0.605,1825.0
-0.38,-0.63,1827.7777777777778
-0.435,-0.63,1830.5555555555557
-0.485,-0.64,1833.3333333333333
-0.535,-0.63,1836.111111111111
-0.615,-0.64,1838.888888888889
-0.68,-0.665,1841.6666666666667
-0.75,-0.685,1844.4444444444443
-0.815,-0.715,1847.2222222222222
-0.885,-0.74,1850.0
-0.93,-0.76,1852.7777777777778
-0.975,-0.74,1855.5555555555557
-0.99,-0.73,1858.3333333333333
-0.995,-0.71,1861.111111111111
-1.02,-0.68,1863.888888888889
-1.02,-0.675,1866.6666666666667
-1.02,-0.675,1869.4444444444443
-1.04,-0.7,1872.2222222222222
-1.05,-0.71,1875.0
-1.065,-0.74,1877.7777777777778
-1.09,-0.735,1880.5555555555557
-1.105,-0.745,1883.3333333333333
-1.125,-0.73,1886.111111111111
-1.125,-0.73,1888.888888888889
-1.14,-0.715,1891.6666666666667
-1.14,-0.71,1894.4444444444443
-1.135,-0.695,1897.2222222222222
-1.13,-0.665,1900.0
-1.11,-0.67,1902.7777777777778
-1.11,-0.7,1905.5555555555557
-1.11,-0.715,1908.3333333333333
-1.12,-0.745,1911.111111111111
-1.145,-0.765,1913.888888888889
-1.135,-0.77,1916.6666666666667
-1.135,-0.745,1919.4444444444443
-1.145,-0.72,1922.2222222222222
-1.13,-0.72,1925.0
-1.13,-0.685,1927.7777777777778
-1.115,-0.675,1930.5555555555557
-1.11,-0.67,1933.3333333333333
-1.1,-0.67,1936.111111111111
-1.095,-0.7,1938.888888888889
-1.11,-0.695,1941.6666666666667
-1.11,-0.71,1944.4444444444443
-1.11,-0.72,1947.2222222222222
-1.105,-0.74,1950.0
-1.095,-0.725,1952.7777777777778
-1.105,-0.73,1955.5555555555557
-1.11,-0.73,1958.3333333333333
-1.095,-0.71,1961.111111111111
-1.085,-0.71,1963.888888888889
-1.08,-0.69,1966.6666666666667
-1.065,-0.69,1969.4444444444443
-1.06,-0.69,1972.2222222222222
-1.08,-0.685,1975.0
-1.075,-0.69,1977.7777777777778
-1.09,-0.7,1980.5555555555557
-1.095,-0.705,1983.3333333333333
-1.11,-0.695,1986.111111111111
-1.115,-0.71,1988.888888888889
-1.105,-0.7,1991.6666666666667
-1.115,-0.7,1994.4444444444443
-1.125,-0.69,1997.2222222222222
-1.105,-0.675,2000.0
-1.095,-0.67,2002.7777777777778
-1.075,-0.7,2005.5555555555557
-1.11,-0.705,2008.3333333333333
-1.105,-0.72,2011.111111111111
-1.115,-0.705,2013.888888888889
-1.135,-0.725,2016.6666666666667
-1.155,-0.72,2019.4444444444443
-1.16,-0.7,2022.2222222222222
-1.155,-0.7,2025.0
-1.15,-0.705,2027.7777777777778
-1.145,-0.705,2030.5555555555557
-1.14,-0.705,2033.3333333333333
-1.12,-0.715,2036.111111111111
-1.135,-0.71,2038.888888888889
-1.14,-0.695,2041.6666666666667
-1.14,-0.72,2044.4444444444443
-1.16,-0.72,2047.2222222222222
-1.18,-0.73,2050.0
-1.18,-0.72,2052.777777777778
-1.175,-0.72,2055.5555555555557
-1.185,-0.715,2058.3333333333335
-1.185,-0.705,2061.1111111111113
-1.185,-0.69,2063.8888888888887
-1.18,-0.685,2066.6666666666665
-1.175,-0.68,2069.4444444444443
-1.19,-0.67,2072.222222222222
-1.185,-0.685,2075.0
-1.19,-0.69,2077.777777777778
-1.185,-0.695,2080.5555555555557
-1.195,-0.73,2083.3333333333335
-1.195,-0.73,2086.1111111111113
-1.2,-0.725,2088.8888888888887
-1.195,-0.73,2091.6666666666665
-1.2,-0.725,2094.4444444444443
-1.19,-0.71,2097.222222222222
-1.19,-0.695,2100.0
-1.19,-0.69,2102.777777777778
-1.2,-0.695,2105.5555555555557
-1.205,-0.685,2108.3333333333335
-1.21,-0.695,2111.1111111111113
-1.21,-0.72,2113.8888888888887
-1.22,-0.735,2116.6666666666665
-1.23,-0.715,2119.4444444444443
-1.235,-0.72,2122.222222222222
-1.225,-0.705,2125.0
-1.21,-0.675,2127.777777777778
-1.195,-0.66,2130.5555555555557
-1.175,-0.645,2133.3333333333335
-1.135,-0.62,2136.1111111111113
-1.125,-0.605,2138.8888888888887
-1.105,-0.605,2141.6666666666665
-1.095,-0.605,2144.4444444444443
-1.115,-0.615,2147.222222222222
-1.12,-0.645,2150.0
-1.115,-0.655,2152.777777777778
-1.13,-0.66,2155.5555555555557
-1.11,-0.665,2158.3333333333335
-1.11,-0.665,2161.1111111111113
-1.1,-0.665,2163.8888888888887
-1.08,-0.63,2166.6666666666665
-1.065,-0.645,2169.4444444444443
-1.04,-0.65,2172.222222222222
-1.03,-0.665,2175.0
-1.005,-0.69,2177.777777777778
-1.01,-0.71,2180.5555555555557
-1.0,-0.715,2183.3333333333335
-1.015,-0.71,2186.1111111111113
-1.01,-0.7,2188.8888888888887
-1.0,-0.685,2191.6666666666665
-1.005,-0.69,2194.4444444444443
-1.0,-0.655,2197.222222222222
-1.01,-0.655,2200.0
-1.01,-0.66,2202.777777777778
-1.03,-0.68,2205.5555555555557
-1.07,-0.695,2208.3333333333335
-1.085,-0.71,2211.1111111111113
-1.09,-0.7,2213.8888888888887
-1.11,-0.69,2216.6666666666665
-1.105,-0.69,2219.4444444444443
-1.125,-0.68,2222.222222222222
-1.16,-0.68,2225.0
-1.18,-0.685,2227.777777777778
-1.195,-0.675,2230.5555555555557
-1.225,-0.685,2233.3333333333335
-1.23,-0.68,2236.1111111111113
-1.23,-0.69,2238.8888888888887
-1.25,-0.71,2241.6666666666665
-1.265,-0.725,2244.4444444444443
-1.275,-0.735,2247.222222222222
-1.275,-0.73,2250.0
-1.27,-0.725,2252.777777777778
-1.285,-0.695,2255.5555555555557
-1.29,-0.68,2258.3333333333335
-1.265,-0.675,2261.1111111111113
-1.265,-0.655,2263.8888888888887
-1.24,-0.65,2266.6666666666665
-1.225,-0.655,2269.4444444444443
-1.225,-0.675,2272.222222222222
-1.21,-0.68,2275.0
-1.215,-0.675,2277.777777777778
-1.225,-0.67,2280.5555555555557
-1.24,-0.685,2283.3333333333335
-1.23,-0.72,2286.1111111111113
-1.205,-0.765,2288.8888888888887
-1.165,-0.81,2291.6666666666665
-1.07,-0.875,2294.4444444444443
-0.925,-0.985,2297.222222222222
-0.72,-1.06,2300.0
-0.415,-1.14,2302.777777777778
-0.065,-1.22,2305.5555555555557
0.315,-1.305,2308.3333333333335
0.745,-1.385,2311.1111111111113
1.175,-1.46,2313.8888888888887
1.61,-1.505,2316.6666666666665
1.975,-1.52,2319.4444444444443
2.26,-1.46,2322.222222222222
2.435,-1.36,2325.0
2.495,-1.225,2327.777777777778
2.44,-1.07,2330.5555555555557
2.22,-0.93,2333.3333333333335
1.79,-0.83,2336.1111111111113
1.15,-0.785,2338.8888888888887
0.51,-0.795,2341.6666666666665
-0.13,-0.8,2344.4444444444443
-0.77,-0.795,2347.222222222222
-1.41,-0.76,2350.0
-1.75,-0.74,2352.777777777778
-1.505,-0.7,2355.5555555555557
-1.2,-0.66,2358.3333333333335
-0.945,-0.62,2361.1111111111113
-0.82,-0.615,2363.8888888888887
-0.82,-0.605,2366.6666666666665
-0.89,-0.625,2369.4444444444443
-1.02,-0.625,2372.222222222222
-1.11,-0.64,2375.0
-1.165,-0.615,2377.777777777778
-1.185,-0.615,2380.5555555555557
-1.185,-0.61,2383.3333333333335
-1.165,-0.595,2386.1111111111113
-1.15,-0.595,2388.8888888888887
-1.135,-0.595,2391.6666666666665
-1.115,-0.59,2394.4444444444443
-1.145,-0.59,2397.222222222222
-1.15,-0.565,2400.0
-1.165,-0.565,2402.777777777778
-1.175,-0.58,2405.5555555555557
-1.175,-0.59,2408.3333333333335
-1.17,-0.61,2411.1111111111113
-1.165,-0.615,2413.8888888888887
-1.16,-0.64,2416.6666666666665
-1.115,-0.615,2419.4444444444443
-1.1,-0.615,2422.222222222222
-1.11,-0.585,2425.0
-1.1,-0.57,2427.777777777778
-1.1,-0.55,2430.5555555555557
-1.09,-0.54,2433.3333333333335
-1.05,-0.535,2436.1111111111113
-1.055,-0.54,2438.8888888888887
-1.04,-0.57,2441.6666666666665
-1.055,-0.595,2444.4444444444443
-1.05,-0.62,2447.222222222222
-1.05,-0.625,2450.0
-1.05,-0.595,2452.777777777778
-1.05,-0.57,2455.5555555555557
-1.03,-0.55,2458.3333333333335
-1.02,-0.535,2461.1111111111113
-1.0,-0.545,2463.8888888888887
-0.97,-0.54,2466.6666666666665
-0.95,-0.55,2469.4444444444443
-0.93,-0.58,2472.222222222222
-0.92,-0.595,2475.0
-0.93,-0.595,2477.777777777778
-0.925,-0.595,2480.5555555555557
-0.93,-0.595,2483.3333333333335
-0.91,-0.59,2486.1111111111113
-0.89,-0.575,2488.8888888888887
-0.865,-0.56,2491.6666666666665
-0.84,-0.56,2494.4444444444443
-0.825,-0.535,2497.222222222222
-0.795,-0.53,2500.0
-0.77,-0.51,2502.777777777778
-0.745,-0.5,2505.5555555555557
-0.7,-0.5,2508.3333333333335
-0.68,-0.505,2511.1111111111113
-0.675,-0.525,2513.8888888888887
-0.675,-0.535,2516.6666666666665
-0.63,-0.54,2519.4444444444443
-0.615,-0.54,2522.222222222222
-0.58,-0.525,2525.0
-0.54,-0.51,2527.777777777778
-0.5,-0.5,2530.5555555555557
-0.45,-0.495,2533.3333333333335
-0.4,-0.495,2536.1111111111113
-0.365,-0.48,2538.8888888888887
-0.325,-0.47,2541.6666666666665
-0.31,-0.47,2544.4444444444443
-0.305,-0.48,2547.222222222222
-0.28,-0.485,2550.0
-0.27,-0.495,2552.777777777778
-0.275,-0.48,2555.5555555555557
-0.255,-0.455,2558.3333333333335
-0.25,-0.455,2561.1111111111113
-0.23,-0.445,2563.8888888888887
-0.23,-0.45,2566.6666666666665
-0.225,-0.455,2569.4444444444443
-0.24,-0.47,2572.222222222222
-0.23,-0.49,2575.0
-0.24,-0.495,2577.777777777778
-0.275,-0.5,2580.5555555555557
-0.31,-0.5,2583.3333333333335
-0.355,-0.525,2586.1111111111113
-0.39,-0.545,2588.8888888888887
-0.445,-0.56,2591.6666666666665
-0.485,-0.585,2594.4444444444443
-0.55,-0.56,2597.222222222222
-0.6,-0.545,2600.0
-0.65,-0.55,2602.777777777778
-0.715,-0.585,2605.5555555555557
-0.76,-0.585,2608.3333333333335
-0.81,-0.62,2611.1111111111113
-0.88,-0.63,2613.8888888888887
-0.935,-0.635,2616.6666666666665
-0.995,-0.625,2619.4444444444443
-1.03,-0.63,2622.222222222222
-1.065,-0.6,2625.0
-1.055,-0.585,2627.777777777778
-1.075,-0.575,2630.5555555555557
-1.075,-0.565,2633.3333333333335
-1.09,-0.56,2636.1111111111113
-1.085,-0.59,2638.8888888888887
-1.105,-0.595,2641.6666666666665
-1.125,-0.615,2644.4444444444443
-1.125,-0.62,2647.222222222222
-1.15,-0.64,2650.0
-1.16,-0.65,2652.777777777778
-1.165,-0.64,2655.5555555555557
-1.165,-0.645,2658.3333333333335
-1.175,-0.61,2661.1111111111113
-1.17,-0.58,2663.8888888888887
-1.175,-0.59,2666.6666666666665
-1.175,-0.58,2669.4444444444443
-1.135,-0.595,2672.222222222222
-1.16,-0.63,2675.0
-1.175,-0.635,2677.777777777778
-1.175,-0.66,2680.5555555555557
-1.175,-0.66,2683.3333333333335
-1.18,-0.64,2686.1111111111113
-1.175,-0.605,2688.8888888888887
-1.16,-0.59,2691.6666666666665
-1.135,-0.585,2694.4444444444443
-1.13,-0.58,2697.222222222222
-1.11,-0.595,2700.0
-1.1,-0.595,2702.777777777778
-1.12,-0.62,2705.5555555555557
-1.11,-0.635,2708.3333333333335
-1.14,-0.615,2711.1111111111113
-1.15,-0.605,2713.8888888888887
-1.145,-0.595,2716.6666666666665
-1.15,-0.605,2719.4444444444443
-1.15,-0.6,2722.222222222222
-1.16,-0.59,2725.0
-1.145,-0.6,2727.777777777778
-1.14,-0.6,2730.5555555555557
-1.14,-0.605,2733.3333333333335
-1.145,-0.595,2736.1111111111113
-1.14,-0.585,2738.8888888888887
-1.145,-0.58,2741.6666666666665
-1.12,-0.585,2744.4444444444443
-1.135,-0.585,2747.222222222222
-1.15,-0.585,2750.0
-1.15,-0.595,2752.777777777778
-1.17,-0.6,2755.5555555555557
-1.155,-0.595,2758.3333333333335
-1.16,-0.58,2761.1111111111113
-1.145,-0.58,2763.8888888888887
-1.15,-0.57,2766.6666666666665
-1.145,-0.565,2769.4444444444443
-1.15,-0.57,2772.222222222222
-1.17,-0.585,2775.0
-1.19,-0.59,2777.777777777778
-1.215,-0.6,2780.5555555555557
-1.225,-0.605,2783.3333333333335
-1.235,-0.6,2786.1111111111113
-1.21,-0.6,2788.8888888888887
-1.225,-0.58,2791.6666666666665
-1.22,-0.575,2794.4444444444443
-1.2,-0.56,2797.222222222222
-1.2,-0.57,2800.0
-1.205,-0.585,2802.777777777778
-1.195,-0.595,2805.5555555555557
-1.205,-0.595,2808.3333333333335
-1.225,-0.605,2811.1111111111113
-1.23,-0.62,2813.8888888888887
-1.235,-0.6,2816.6666666666665
-1.25,-0.595,2819.4444444444443
-1.26,-0.58,2822.222222222222
-1.28,-0.575,2825.0
-1.255,-0.55,2827.777777777778
-1.245,-0.53,2830.5555555555557
-1.225,-0.545,2833.3333333333335
-1.235,-0.58,2836.1111111111113
-1.245,-0.6,2838.8888888888887
-1.26,-0.62,2841.6666666666665
-1.275,-0.615,2844.4444444444443
-1.28,-0.615,2847.222222222222
-1.305,-0.595,2850.0
-1.31,-0.575,2852.777777777778
-1.31,-0.58,2855.5555555555557
-1.285,-0.57,2858.3333333333335
-1.285,-0.56,2861.1111111111113
-1.275,-0.57,2863.8888888888887
-1.26,-0.545,2866.6666666666665
-1.265,-0.55,2869.4444444444443
-1.26,-0.56,2872.222222222222
-1.27,-0.545,2875.0
-1.275,-0.565,2877.777777777778
-1.29,-0.565,2880.5555555555557
-1.3,-0.575,2883.3333333333335
-1.295,-0.575,2886.1111111111113
-1.29,-0.545,2888.8888888888887
-1.28,-0.53,2891.6666666666665
-1.255,-0.51,2894.4444444444443
-1.24,-0.48,2897.222222222222
-1.22,-0.465,2900.0
-1.195,-0.465,2902.777777777778
-1.185,-0.49,2905.5555555555557
-1.21,-0.515,2908.3333333333335
-1.215,-0.515,2911.1111111111113
-1.215,-0.54,2913.8888888888887
-1.225,-0.535,2916.6666666666665
-1.21,-0.545,2919.4444444444443
-1.21,-0.535,2922.222222222222
-1.18,-0.52,2925.0
-1.16,-0.52,2927.777777777778
-1.14,-0.495,2930.5555555555557
-1.12,-0.52,2933.3333333333335
-1.105,-0.56,2936.1111111111113
-1.095,-0.57,2938.8888888888887
-1.09,-0.575,2941.6666666666665
-1.1,-0.585,2944.4444444444443
-1.14,-0.575,2947.222222222222
-1.145,-0.545,2950.0
-1.18,-0.545,2952.777777777778
-1.21,-0.53,2955.5555555555557
-1.215,-0.535,2958.3333333333335
-1.215,-0.525,2961.1111111111113
-1.23,-0.53,2963.8888888888887
-1.215,-0.54,2966.6666666666665
-1.24,-0.53,2969.4444444444443
-1.26,-0.535,2972.222222222222
-1.285,-0.55,2975.0
-1.32,-0.55,2977.777777777778
-1.345,-0.54,2980.5555555555557
-1.35,-0.53,2983.3333333333335
-1.365,-0.54,2986.1111111111113
-1.385,-0.54,2988.8888888888887
-1.39,-0.545,2991.6666666666665
-1.405,-0.535,2994.4444444444443
-1.4,-0.54,2997.222222222222
-1.375,-0.525,3000.0
-1.385,-0.515,3002.777777777778
-1.365,-0.51,3005.5555555555557
-1.365,-0.51,3008.3333333333335
-1.37,-0.51,3011.1111111111113
-1.38,-0.54,3013.8888888888887
-1.39,-0.545,3016.6666666666665
-1.405,-0.55,3019.4444444444443
-1.405,-0.545,3022.222222222222
-1.4,-0.535,3025.0
-1.39,-0.51,3027.777777777778
-1.37,-0.52,3030.5555555555557
-1.34,-0.52,3033.3333333333335
-1.305,-0.58,3036.1111111111113
-1.22,-0.665,3038.8888888888887
-1.14,-0.775,3041.6666666666665
-1.005,-0.875,3044.4444444444443
-0.785,-0.965,3047.222222222222
-0.475,-1.07,3050.0
-0.075,-1.145,3052.777777777778
0.38,-1.225,3055.5555555555557
0.915,-1.28,3058.3333333333335
1.435,-1.28,3061.1111111111113
1.9,-1.2,3063.8888888888887
2.225,-1.055,3066.6666666666665
2.33,-0.915,3069.4444444444443
2.13,-0.795,3072.222222222222
1.58,-0.705,3075.0
0.94,-0.655,3077.777777777778
0.3,-0.655,3080.5555555555557
-0.34,-0.655,3083.3333333333335
-0.98,-0.655,3086.1111111111113
-1.62,-0.605,3088.8888888888887
-1.975,-0.57,3091.6666666666665
-1.625,-0.545,3094.4444444444443
-1.28,-0.495,3097.222222222222
-1.05,-0.48,3100.0
-0.98,-0.475,3102.777777777778
-1.025,-0.48,3105.5555555555557
-1.125,-0.495,3108.3333333333335
-1.25,-0.52,3111.1111111111113
-1.355,-0.545,3113.8888888888887
-1.395,-0.525,3116.6666666666665
-1.405,-0.51,3119.4444444444443
-1.38,-0.475,3122.222222222222
-1.35,-0.45,3125.0
-1.335,-0.44,3127.777777777778
-1.31,-0.425,3130.5555555555557
-1.31,-0.43,3133.3333333333335
-1.3,-0.455,3136.1111111111113
-1.335,-0.47,3138.8888888888887
-1.325,-0.49,3141.6666666666665
-1.35,-0.5,3144.4444444444443
-1.34,-0.495,3147.222222222222
-1.35,-0.495,3150.0
-1.335,-0.485,3152.777777777778
-1.34,-0.49,3155.5555555555557
-1.34,-0.465,3158.3333333333335
-1.31,-0.45,3161.1111111111113
-1.305,-0.445,3163.8888888888887
-1.255,-0.39,3166.6666666666665
-1.255,-0.4,3169.4444444444443
-1.26,-0.425,3172.222222222222
-1.245,-0.42,3175.0
-1.245,-0.445,3177.777777777778
-1.25,-0.45,3180.5555555555557
-1.245,-0.475,3183.3333333333335
-1.24,-0.46,3186.1111111111113
-1.23,-0.46,3188.8888888888887
-1.22,-0.45,3191.6666666666665
-1.185,-0.42,3194.4444444444443
-1.185,-0.395,3197.222222222222
-1.15,-0.41,3200.0
-1.13,-0.415,3202.777777777778
-1.125,-0.425,3205.5555555555557
-1.125,-0.45,3208.3333333333335
-1.105,-0.45,3211.1111111111113
-1.105,-0.45,3213.8888888888887
-1.09,-0.45,3216.6666666666665
-1.08,-0.45,3219.4444444444443
-1.065,-0.44,3222.222222222222
-1.05,-0.41,3225.0
-1.025,-0.415,3227.777777777778
-1.01,-0.42,3230.5555555555557
-0.975,-0.39,3233.3333333333335
-0.975,-0.405,3236.1111111111113
-0.95,-0.395,3238.8888888888887
-0.955,-0.4,3241.6666666666665
-0.9,-0.405,3244.4444444444443
-0.875,-0.405,3247.222222222222
-0.84,-0.39,3250.0
-0.82,-0.38,3252.777777777778
-0.81,-0.375,3255.5555555555557
-0.775,-0.375,3258.3333333333335
-0.75,-0.37,3261.1111111111113
-0.705,-0.355,3263.8888888888887
-0.655,-0.345,3266.6666666666665
-0.61,-0.35,3269.4444444444443
-0.6,-0.365,3272.222222222222
-0.595,-0.38,3275.0
-0.595,-0.395,3277.777777777778
-0.58,-0.385,3280.5555555555557
-0.555,-0.375,3283.3333333333335
-0.545,-0.38,3286.1111111111113
-0.54,-0.375,3288.8888888888887
-0.505,-0.375,3291.6666666666665
-0.475,-0.36,3294.4444444444443
-0.45,-0.355,3297.222222222222
-0.43,-0.335,3300.0
-0.43,-0.33,3302.777777777778
-0.43,-0.355,3305.5555555555557
-0.445,-0.34,3308.3333333333335
-0.47,-0.365,3311.1111111111113
-0.495,-0.375,3313.8888888888887
-0.52,-0.41,3316.6666666666665
-0.57,-0.41,3319.4444444444443
-0.61,-0.42,3322.222222222222
-0.675,-0.385,3325.0
-0.715,-0.365,3327.777777777778
-0.74,-0.365,3330.5555555555557
-0.785,-0.38,3333.3333333333335
-0.835,-0.38,3336.1111111111113
-0.915,-0.415,3338.8888888888887
-0.965,-0.445,3341.6666666666665
-0.995,-0.45,3344.4444444444443
-1.035,-0.47,3347.222222222222
-1.1,-0.46,3350.0
-1.155,-0.445,3352.777777777778
-1.195,-0.45,3355.5555555555557
-1.225,-0.435,3358.3333333333335
-1.24,-0.435,3361.1111111111113
-1.26,-0.44,3363.8888888888887
-1.275,-0.445,3366.6666666666665
-1.295,-0.455,3369.4444444444443
-1.31,-0.47,3372.222222222222
-1.335,-0.48,3375.0
-1.35,-0.465,3377.777777777778
-1.38,-0.47,3380.5555555555557
-1.38,-0.48,3383.3333333333335
-1.395,-0.47,3386.1111111111113
-1.4,-0.46,3388.8888888888887
-1.385,-0.465,3391.6666666666665
-1.38,-0.45,3394.4444444444443
-1.395,-0.46,3397.222222222222
-1.365,-0.445,3400.0
-1.365,-0.46,3402.777777777778
-1.365,-0.46,3405.5555555555557
-1.37,-0.48,3408.3333333333335
-1.395,-0.475,3411.1111111111113
-1.39,-0.475,3413.8888888888887
-1.405,-0.45,3416.6666666666665
-1.415,-0.46,3419.4444444444443
-1.415,-0.46,3422.222222222222
-1.4,-0.445,3425.0
-1.375,-0.46,3427.777777777778
-1.365,-0.455,3430.5555555555557
-1.35,-0.455,3433.3333333333335
-1.345,-0.475,3436.1111111111113
-1.345,-0.5,3438.8888888888887
-1.35,-0.49,3441.6666666666665
-1.345,-0.5,3444.4444444444443
-1.355,-0.5,3447.222222222222
-1.35,-0.49,3450.0
-1.355,-0.49,3452.777777777778
-1.365,-0.465,3455.5555555555557
-1.37,-0.45,3458.3333333333335
-1.36,-0.445,3461.1111111111113
-1.345,-0.445,3463.8888888888887
-1.34,-0.445,3466.6666666666665
-1.33,-0.455,3469.4444444444443
-1.33,-0.47,3472.222222222222
-1.335,-0.455,3475.0
-1.345,-0.47,3477.777777777778
-1.36,-0.475,3480.5555555555557
-1.365,-0.47,3483.3333333333335
-1.365,-0.475,3486.1111111111113
-1.375,-0.475,3488.8888888888887
-1.365,-0.465,3491.6666666666665
-1.35,-0.47,3494.4444444444443
-1.35,-0.465,3497.222222222222
-1.35,-0.45,3500.0
-1.36,-0.445,3502.777777777778
-1.395,-0.45,3505.5555555555557
-1.405,-0.47,3508.3333333333335
-1.42,-0.48,3511.1111111111113
-1.42,-0.49,3513.8888888888887
-1.435,-0.47,3516.6666666666665
-1.415,-0.485,3519.4444444444443
-1.43,-0.475,3522.222222222222
-1.435,-0.465,3525.0
-1.43,-0.46,3527.777777777778
-1.405,-0.46,3530.5555555555557
-1.385,-0.45,3533.3333333333335
-1.385,-0.465,3536.1111111111113
-1.385,-0.46,3538.8888888888887
-1.405,-0.47,3541.6666666666665
-1.41,-0.47,3544.4444444444443
-1.42,-0.485,3547.222222222222
-1.42,-0.455,3550.0
-1.445,-0.46,3552.777777777778
-1.445,-0.46,3555.5555555555557
-1.445,-0.45,3558.3333333333335
-1.43,-0.445,3561.1111111111113
-1.435,-0.445,3563.8888888888887
-1.42,-0.445,3566.6666666666665
-1.425,-0.445,3569.4444444444443
-1.405,-0.45,3572.222222222222
-1.415,-0.46,3575.0
-1.425,-0.475,3577.777777777778
-1.41,-0.48,3580.5555555555557
-1.425,-0.475,3583.3333333333335
-1.435,-0.49,3586.1111111111113
-1.44,-0.505,3588.8888888888887
-1.445,-0.475,3591.6666666666665
-1.44,-0.48,3594.4444444444443
-1.44,-0.45,3597.222222222222
-1.435,-0.445,3600.0
-1.435,-0.44,3602.777777777778
-1.425,-0.44,3605.5555555555557
-1.44,-0.455,3608.3333333333335
-1.43,-0.44,3611.1111111111113
-1.425,-0.44,3613.8888888888887
-1.4,-0.41,3616.6666666666665
-1.405,-0.405,3619.4444444444443
-1.39,-0.39,3622.222222222222
-1.36,-0.365,3625.0
-1.33,-0.38,3627.777777777778
-1.325,-0.365,3630.5555555555557
-1.305,-0.39,3633.3333333333335
-1.31,-0.39,3636.1111111111113
-1.31,-0.415,3638.8888888888887
-1.31,-0.425,3641.6666666666665
-1.33,-0.43,3644.4444444444443
-1.325,-0.445,3647.222222222222
-1.325,-0.46,3650.0
-1.33,-0.455,3652.777777777778
-1.325,-0.455,3655.5555555555557
-1.335,-0.445,3658.3333333333335
-1.305,-0.445,3661.1111111111113
-1.275,-0.42,3663.8888888888887
-1.245,-0.425,3666.6666666666665
-1.215,-0.42,3669.4444444444443
-1.205,-0.43,3672.222222222222
-1.195,-0.435,3675.0
-1.21,-0.455,3677.777777777778
-1.23,-0.485,3680.5555555555557
-1.245,-0.48,3683.3333333333335
-1.275,-0.48,3686.1111111111113
-1.3,-0.47,3688.8888888888887
-1.305,-0.475,3691.6666666666665
-1.295,-0.45,3694.4444444444443
-1.295,-0.45,3697.222222222222
-1.28,-0.435,3700.0
-1.295,-0.44,3702.777777777778
-1.315,-0.455,3705.5555555555557
-1.335,-0.475,3708.3333333333335
-1.37,-0.47,3711.1111111111113
-1.405,-0.48,3713.8888888888887
-1.41,-0.47,3716.6666666666665
-1.415,-0.47,3719.4444444444443
-1.435,-0.46,3722.222222222222
-1.43,-0.485,3725.0
-1.435,-0.455,3727.777777777778
-1.435,-0.465,3730.5555555555557
-1.42,-0.43,3733.3333333333335
-1.43,-0.425,3736.1111111111113
-1.43,-0.44,3738.8888888888887
-1.425,-0.475,3741.6666666666665
-1.42,-0.49,3744.4444444444443
-1.425,-0.5,3747.222222222222
-1.425,-0.49,3750.0
-1.435,-0.45,3752.777777777778
-1.425,-0.43,3755.5555555555557
-1.41,-0.42,3758.3333333333335
-1.4,-0.425,3761.1111111111113
-1.385,-0.435,3763.8888888888887
-1.365,-0.45,3766.6666666666665
-1.34,-0.51,3769.4444444444443
-1.28,-0.57,3772.222222222222
-1.23,-0.645,3775.0
-1.125,-0.72,3777.777777777778
-0.965,-0.8,3780.5555555555557
-0.69,-0.87,3783.3333333333335
-0.39,-0.95,3786.1111111111113
0.015,-1.02,3788.8888888888887
0.47,-1.09,3791.6666666666665
0.93,-1.13,3794.4444444444443
1.395,-1.135,3797.222222222222
1.845,-1.08,3800.0
2.12,-0.965,3802.777777777778
2.185,-0.81,3805.5555555555557
2.0,-0.69,3808.3333333333335
1.475,-0.59,3811.1111111111113
0.835,-0.56,3813.8888888888887
0.195,-0.555,3816.6666666666665
-0.445,-0.585,3819.4444444444443
-1.085,-0.55,3822.222222222222
-1.725,-0.52,3825.0
-2.095,-0.485,3827.777777777778
-1.77,-0.465,3830.5555555555557
-1.42,-0.455,3833.3333333333335
-1.16,-0.465,3836.1111111111113
-1.05,-0.455,3838.8888888888887
-1.045,-0.45,3841.6666666666665
-1.1,-0.445,3844.4444444444443
-1.195,-0.45,3847.222222222222
-1.265,-0.45,3850.0
-1.34,-0.44,3852.777777777778
-1.36,-0.45,3855.5555555555557
-1.37,-0.435,3858.3333333333335
-1.355,-0.435,3861.1111111111113
-1.31,-0.425,3863.8888888888887
-1.305,-0.4,3866.6666666666665
-1.295,-0.405,3869.4444444444443
-1.295,-0.395,3872.222222222222
-1.3,-0.39,3875.0
-1.305,-0.42,3877.777777777778
-1.3,-0.42,3880.5555555555557
-1.29,-0.425,3883.3333333333335
-1.285,-0.415,3886.1111111111113
-1.285,-0.43,3888.8888888888887
-1.275,-0.41,3891.6666666666665
-1.26,-0.405,3894.4444444444443
-1.255,-0.385,3897.222222222222
-1.225,-0.39,3900.0
-1.215,-0.385,3902.777777777778
-1.215,-0.375,3905.5555555555557
-1.21,-0.385,3908.3333333333335
-1.22,-0.39,3911.1111111111113
-1.225,-0.395,3913.8888888888887
-1.22,-0.405,3916.6666666666665
-1.21,-0.4,3919.4444444444443
-1.19,-0.4,3922.222222222222
-1.18,-0.385,3925.0
-1.135,-0.365,3927.777777777778
-1.105,-0.36,3930.5555555555557
-1.085,-0.37,3933.3333333333335
-1.055,-0.385,3936.1111111111113
-1.05,-0.41,3938.8888888888887
-1.05,-0.425,3941.6666666666665
-1.055,-0.415,3944.4444444444443
-1.065,-0.41,3947.222222222222
-1.06,-0.385,3950.0
-1.06,-0.39,3952.777777777778
-1.06,-0.36,3955.5555555555557
-1.045,-0.355,3958.3333333333335
-0.995,-0.34,3961.1111111111113
-0.97,-0.345,3963.8888888888887
-0.94,-0.345,3966.6666666666665
-0.915,-0.38,3969.4444444444443
-0.865,-0.375,3972.222222222222
-0.845,-0.375,3975.0
-0.83,-0.385,3977.777777777778
-0.81,-0.375,3980.5555555555557
-0.795,-0.355,3983.3333333333335
-0.79,-0.345,3986.1111111111113
-0.785,-0.34,3988.8888888888887
-0.735,-0.31,3991.6666666666665
-0.695,-0.31,3994.4444444444443
-0.655,-0.3,3997.222222222222
-0.61,-0.295,4000.0
-0.58,-0.305,4002.777777777778
-0.545,-0.305,4005.5555555555557
-0.52,-0.315,4008.3333333333335
-0.505,-0.315,4011.1111111111113
-0.495,-0.315,4013.8888888888887
-0.465,-0.31,4016.6666666666665
-0.46,-0.285,4019.4444444444443
-0.445,-0.27,4022.222222222222
-0.415,-0.265,4025.0
-0.395,-0.255,4027.777777777778
-0.39,-0.275,4030.5555555555557
-0.37,-0.275,4033.3333333333335
-0.38,-0.29,4036.1111111111113
-0.39,-0.3,4038.8888888888887
-0.405,-0.315,4041.6666666666665
-0.42,-0.32,4044.4444444444443
-0.44,-0.32,4047.222222222222
-0.47,-0.31,4050.0
-0.5,-0.315,4052.777777777778
-0.535,-0.315,4055.5555555555557
-0.56,-0.3,4058.3333333333335
-0.605,-0.32,4061.1111111111113
-0.645,-0.31,4063.8888888888887
-0.675,-0.305,4066.6666666666665
-0.71,-0.325,4069.4444444444443
-0.755,-0.34,4072.222222222222
-0.805,-0.38,4075.0
-0.865,-0.405,4077.777777777778
-0.925,-0.42,4080.5555555555557
-0.975,-0.405,4083.3333333333335
-1.04,-0.4,4086.1111111111113
-1.08,-0.405,4088.8888888888887
-1.125,-0.385,4091.6666666666665
-1.155,-0.4,4094.4444444444443
-1.175,-0.38,4097.222222222223
-1.17,-0.385,4100.0
-1.195,-0.38,4102.777777777777
-1.215,-0.39,4105.555555555556
-1.23,-0.395,4108.333333333333
-1.255,-0.42,4111.111111111111
-1.27,-0.45,4113.888888888889
-1.285,-0.455,4116.666666666667
-1.295,-0.44,4119.444444444444
-1.325,-0.425,4122.222222222223
-1.315,-0.4,4125.0
-1.32,-0.405,4127.777777777777
-1.315,-0.39,4130.555555555556
-1.28,-0.395,4133.333333333333
-1.285,-0.41,4136.111111111111
-1.275,-0.405,4138.888888888889
-1.265,-0.45,4141.666666666667
-1.28,-0.455,4144.444444444444
-1.29,-0.44,4147.222222222223
-1.28,-0.44,4150.0
-1.305,-0.43,4152.777777777777
-1.31,-0.41,4155.555555555556
-1.295,-0.39,4158.333333333333
-1.26,-0.405,4161.111111111111
-1.245,-0.41,4163.888888888889
-1.235,-0.405,4166.666666666667
-1.225,-0.405,4169.444444444444
-1.225,-0.4,4172.222222222223
-1.235,-0.385,4175.0
-1.225,-0.41,4177.777777777777
-1.23,-0.42,4180.555555555556
-1.225,-0.435,4183.333333333333
-1.235,-0.45,4186.111111111111
-1.25,-0.455,4188.888888888889
-1.25,-0.425,4191.666666666667
-1.24,-0.42,4194.444444444444
-1.245,-0.415,4197.222222222223
-1.23,-0.405,4200.0
-1.225,-0.405,4202.777777777777
-1.22,-0.41,4205.555555555556
-1.225,-0.4,4208.333333333333
-1.235,-0.4,4211.111111111111
-1.24,-0.395,4213.888888888889
-1.25,-0.39,4216.666666666667
-1.255,-0.425,4219.444444444444
-1.27,-0.44,4222.222222222223
-1.26,-0.445,4225.0
-1.25,-0.45,4227.777777777777
-1.25,-0.45,4230.555555555556
-1.24,-0.445,4233.333333333333
-1.265,-0.43,4236.111111111111
-1.26,-0.395,4238.888888888889
-1.265,-0.405,4241.666666666667
-1.275,-0.39,4244.444444444444
-1.29,-0.4,4247.222222222223
-1.315,-0.415,4250.0
-1.32,-0.445,4252.777777777777
-1.33,-0.46,4255.555555555556
-1.32,-0.445,4258.333333333333
-1.32,-0.45,4261.111111111111
-1.32,-0.435,4263.888888888889
-1.305,-0.405,4266.666666666667
-1.29,-0.405,4269.444444444444
-1.3,-0.395,4272.222222222223
-1.3,-0.41,4275.0
-1.3,-0.435,4277.777777777777
-1.31,-0.455,4280.555555555556
-1.33,-0.45,4283.333333333333
-1.34,-0.45,4286.111111111111
-1.35,-0.425,4288.888888888889
-1.36,-0.415,4291.666666666667
-1.345,-0.395,4294.444444444444
-1.335,-0.4,4297.222222222223
-1.325,-0.385,4300.0
-1.32,-0.405,4302.777777777777
-1.32,-0.395,4305.555555555556
-1.315,-0.42,4308.333333333333
-1.33,-0.43,4311.111111111111
-1.34,-0.465,4313.888888888889
-1.34,-0.49,4316.666666666667
-1.355,-0.48,4319.444444444444
-1.35,-0.47,4322.222222222223
-1.34,-0.45,4325.0
-1.33,-0.415,4327.777777777777
-1.325,-0.4,4330.555555555556
-1.33,-0.385,4333.333333333333
-1.325,-0.4,4336.111111111111
-1.33,-0.405,4338.888888888889
-1.325,-0.42,4341.666666666667
-1.34,-0.445,4344.444444444444
-1.34,-0.48,4347.222222222223
-1.36,-0.48,4350.0
-1.365,-0.465,4352.777777777777
-1.375,-0.445,4355.555555555556
-1.37,-0.42,4358.333333333333
-1.38,-0.395,4361.111111111111
-1.345,-0.375,4363.888888888889
-1.32,-0.355,4366.666666666667
-1.31,-0.37,4369.444444444444
-1.29,-0.385,4372.222222222223
-1.29,-0.395,4375.0
-1.28,-0.4,4377.777777777777
-1.265,-0.4,4380.555555555556
-1.265,-0.385,4383.333333333333
-1.285,-0.39,4386.111111111111
-1.275,-0.375,4388.888888888889
-1.285,-0.375,4391.666666666667
-1.28,-0.36,4394.444444444444
-1.26,-0.375,4397.222222222223
-1.235,-0.4,4400.0
-1.23,-0.44,4402.777777777777
-1.215,-0.465,4405.555555555556
-1.21,-0.47,4408.333333333333
-1.2,-0.455,4411.111111111111
-1.205,-0.435,4413.888888888889
-1.205,-0.43,4416.666666666667
-1.185,-0.435,4419.444444444444
-1.155,-0.41,4422.222222222223
-1.125,-0.43,4425.0
-1.12,-0.415,4427.777777777777
-1.125,-0.425,4430.555555555556
-1.125,-0.425,4433.333333333333
-1.155,-0.425,4436.111111111111
-1.185,-0.44,4438.888888888889
-1.21,-0.44,4441.666666666667
-1.24,-0.465,4444.444444444444
-1.26,-0.465,4447.222222222223
-1.27,-0.455,4450.0
-1.28,-0.45,4452.777777777777
-1.29,-0.455,4455.555555555556
-1.31,-0.44,4458.333333333333
-1.34,-0.455,4461.111111111111
-1.355,-0.45,4463.888888888889
-1.365,-0.43,4466.666666666667
-1.38,-0.45,4469.444444444444
-1.375,-0.47,4472.222222222223
-1.4,-0.475,4475.0
-1.42,-0.475,4477.777777777777
-1.4,-0.49,4480.555555555556
-1.405,-0.47,4483.333333333333
-1.39,-0.475,4486.111111111111
-1.4,-0.495,4488.888888888889
-1.4,-0.48,4491.666666666667
-1.41,-0.47,4494.444444444444
-1.4,-0.46,4497.222222222223
-1.37,-0.44,4500.0
-1.38,-0.42,4502.777777777777
-1.37,-0.39,4505.555555555556
-1.39,-0.41,4508.333333333333
-1.395,-0.415,4511.111111111111
-1.38,-0.45,4513.888888888889
-1.37,-0.51,4516.666666666667
-1.325,-0.57,4519.444444444444
-1.26,-0.61,4522.222222222223
-1.14,-0.66,4525.0
-0.96,-0.735,4527.777777777777
-0.73,-0.79,4530.555555555556
-0.44,-0.87,4533.333333333333
-0.085,-0.985,4536.111111111111
0.3,-1.09,4538.888888888889
0.71,-1.19,4541.666666666667
1.17,-1.25,4544.444444444444
1.625,-1.27,4547.222222222223
1.99,-1.215,4550.0
2.24,-1.065,4552.777777777777
2.31,-0.915,4555.555555555556
2.15,-0.735,4558.333333333333
1.67,-0.635,4561.111111111111
1.03,-0.575,4563.888888888889
0.39,-0.555,4566.666666666667
-0.25,-0.56,4569.444444444444
-0.89,-0.545,4572.222222222223
-1.53,-0.52,4575.0
-1.875,-0.505,4577.777777777777
-1.605,-0.495,4580.555555555556
-1.29,-0.47,4583.333333333333
-1.07,-0.46,4586.111111111111
-0.99,-0.43,4588.888888888889
-1.0,-0.415,4591.666666666667
-1.09,-0.395,4594.444444444444
-1.195,-0.365,4597.222222222223
-1.28,-0.365,4600.0
-1.31,-0.375,4602.777777777777
-1.34,-0.38,4605.555555555556
-1.325,-0.38,4608.333333333333
-1.325,-0.395,4611.111111111111
-1.3,-0.365,4613.888888888889
-1.31,-0.37,4616.666666666667
-1.305,-0.375,4619.444444444444
-1.32,-0.36,4622.222222222223
-1.315,-0.36,4625.0
-1.3,-0.35,4627.777777777777
-1.3,-0.345,4630.555555555556
-1.295,-0.355,4633.333333333333
-1.265,-0.36,4636.111111111111
-1.265,-0.37,4638.888888888889
-1.25,-0.395,4641.666666666667
-1.26,-0.415,4644.444444444444
-1.265,-0.4,4647.222222222223
-1.27,-0.41,4650.0
-1.27,-0.385,4652.777777777777
-1.26,-0.395,4655.555555555556
-1.26,-0.38,4658.333333333333
-1.24,-0.365,4661.111111111111
-1.215,-0.355,4663.888888888889
-1.2,-0.355,4666.666666666667
-1.17,-0.35,4669.444444444444
-1.165,-0.345,4672.222222222223
-1.17,-0.365,4675.0
-1.175,-0.355,4677.777777777777
-1.165,-0.34,4680.555555555556
-1.175,-0.35,4683.333333333333
-1.17,-0.345,4686.111111111111
-1.155,-0.33,4688.888888888889
-1.145,-0.315,4691.666666666667
-1.125,-0.335,4694.444444444444
-1.08,-0.32,4697.222222222223
-1.08,-0.34,4700.0
-1.03,-0.36,4702.777777777777
-1.03,-0.385,4705.555555555556
-1.015,-0.365,4708.333333333333
-1.015,-0.37,4711.111111111111
-1.01,-0.365,4713.888888888889
-1.0,-0.365,4716.666666666667
-0.995,-0.34,4719.444444444444
-0.975,-0.33,4722.222222222223
-0.95,-0.305,4725.0
-0.935,-0.295,4727.777777777777
-0.895,-0.285,4730.555555555556
-0.855,-0.285,4733.333333333333
-0.82,-0.28,4736.111111111111
-0.79,-0.275,4738.888888888889
-0.76,-0.3,4741.666666666667
-0.735,-0.31,4744.444444444444
-0.7,-0.315,4747.222222222223
-0.67,-0.325,4750.0
-0.64,-0.34,4752.777777777777
-0.625,-0.33,4755.555555555556
-0.595,-0.305,4758.333333333333
-0.555,-0.27,4761.111111111111
-0.54,-0.25,4763.888888888889
-0.51,-0.245,4766.666666666667
-0.5,-0.255,4769.444444444444
-0.45,-0.245,4772.222222222223
-0.425,-0.245,4775.0
-0.425,-0.265,4777.777777777777
-0.4,-0.28,4780.555555555556
-0.4,-0.285,4783.333333333333
-0.395,-0.275,4786.111111111111
-0.38,-0.26,4788.888888888889
-0.365,-0.27,4791.666666666667
-0.36,-0.26,4794.444444444444
-0.345,-0.255,4797.222222222223
-0.335,-0.26,4800.0
-0.37,-0.255,4802.777777777777
-0.4,-0.28,4805.555555555556
-0.435,-0.295,4808.333333333333
-0.485,-0.32,4811.111111111111
-0.515,-0.32,4813.888888888889
-0.55,-0.335,4816.666666666667
-0.595,-0.325,4819.444444444444
-0.65,-0.33,4822.222222222223
-0.7,-0.33,4825.0
-0.73,-0.325,4827.777777777777
-0.78,-0.335,4830.555555555556
-0.8,-0.305,4833.333333333333
-0.855,-0.315,4836.111111111111
-0.905,-0.35,4838.888888888889
-0.955,-0.37,4841.666666666667
-1.035,-0.4,4844.444444444444
-1.085,-0.41,4847.222222222223
-1.12,-0.425,4850.0
-1.165,-0.395,4852.777777777777
-1.195,-0.38,4855.555555555556
-1.215,-0.355,4858.333333333333
-1.225,-0.345,4861.111111111111
-1.23,-0.36,4863.888888888889
-1.23,-0.37,4866.666666666667
-1.235,-0.4,4869.444444444444
-1.255,-0.41,4872.222222222223
-1.26,-0.425,4875.0
-1.26,-0.405,4877.777777777777
-1.27,-0.415,4880.555555555556
-1.265,-0.37,4883.333333333333
-1.285,-0.385,4886.111111111111
-1.285,-0.37,4888.888888888889
-1.295,-0.37,4891.666666666667
-1.3,-0.37,4894.444444444444
-1.29,-0.375,4897.222222222223
-1.29,-0.36,4900.0
-1.29,-0.37,4902.777777777777
-1.265,-0.365,4905.555555555556
-1.275,-0.36,4908.333333333333
-1.275,-0.38,4911.111111111111
-1.28,-0.4,4913.888888888889
-1.27,-0.42,4916.666666666667
-1.28,-0.425,4919.444444444444
-1.27,-0.4,4922.222222222223
-1.26,-0.385,4925.0
-1.245,-0.36,4927.777777777777
-1.245,-0.325,4930.555555555556
-1.225,-0.33,4933.333333333333
-1.22,-0.315,4936.111111111111
-1.22,-0.35,4938.888888888889
-1.225,-0.37,4941.666666666667
-1.235,-0.39,4944.444444444444
-1.255,-0.42,4947.222222222223
-1.27,-0.405,4950.0
-1.275,-0.415,4952.777777777777
-1.28,-0.395,4955.555555555556
-1.265,-0.39,4958.333333333333
-1.255,-0.365,4961.111111111111
-1.235,-0.37,4963.888888888889
-1.225,-0.36,4966.666666666667
-1.215,-0.365,4969.444444444444
-1.245,-0.365,4972.222222222223
-1.255,-0.365,4975.0
-1.26,-0.38,4977.777777777777
-1.255,-0.4,4980.555555555556
-1.27,-0.415,4983.333333333333
-1.275,-0.415,4986.111111111111
-1.28,-0.41,4988.888888888889
-1.28,-0.405,4991.666666666667
-1.285,-0.39,4994.444444444444
-1.28,-0.37,4997.222222222223
-1.27,-0.36,5000.0
-1.265,-0.36,5002.777777777777
-1.255,-0.37,5005.555555555556
-1.275,-0.37,5008.333333333333
-1.285,-0.37,5011.111111111111
-1.3,-0.385,5013.888888888889
-1.33,-0.38,5016.666666666667
-1.34,-0.38,5019.444444444444
-1.35,-0.385,5022.222222222223
-1.345,-0.37,5025.0
-1.335,-0.395,5027.777777777777
-1.31,-0.39,5030.555555555556
-1.315,-0.4,5033.333333333333
-1.31,-0.43,5036.111111111111
-1.33,-0.39,5038.888888888889
-1.335,-0.4,5041.666666666667
-1.34,-0.375,5044.444444444444
-1.34,-0.375,5047.222222222223
-1.34,-0.375,5050.0
-1.345,-0.385,5052.777777777777
-1.375,-0.385,5055.555555555556
-1.38,-0.39,5058.333333333333
-1.375,-0.395,5061.111111111111
-1.37,-0.37,5063.888888888889
-1.38,-0.37,5066.666666666667
-1.335,-0.365,5069.444444444444
-1.335,-0.355,5072.222222222223
-1.345,-0.36,5075.0
-1.345,-0.4,5077.777777777777
-1.36,-0.41,5080.555555555556
-1.365,-0.415,5083.333333333333
-1.38,-0.415,5086.111111111111
-1.38,-0.405,5088.888888888889
-1.385,-0.39,5091.666666666667
-1.365,-0.385,5094.444444444444
-1.34,-0.385,5097.222222222223
-1.335,-0.36,5100.0
-1.335,-0.375,5102.777777777777
-1.355,-0.365,5105.555555555556
-1.36,-0.36,5108.333333333333
-1.35,-0.36,5111.111111111111
-1.36,-0.365,5113.888888888889
-1.335,-0.37,5116.666666666667
-1.33,-0.35,5119.444444444444
-1.325,-0.345,5122.222222222223
-1.31,-0.335,5125.0
-1.295,-0.315,5127.777777777777
-1.28,-0.315,5130.555555555556
-1.265,-0.31,5133.333333333333
-1.255,-0.325,5136.111111111111
-1.26,-0.355,5138.888888888889
-1.26,-0.375,5141.666666666667
-1.27,-0.385,5144.444444444444
-1.25,-0.38,5147.222222222223
-1.26,-0.37,5150.0
-1.22,-0.355,5152.777777777777
-1.22,-0.345,5155.555555555556
-1.195,-0.345,5158.333333333333
-1.175,-0.33,5161.111111111111
-1.155,-0.34,5163.888888888889
-1.135,-0.345,5166.666666666667
-1.13,-0.375,5169.444444444444
-1.14,-0.38,5172.222222222223
-1.17,-0.39,5175.0
-1.21,-0.395,5177.777777777777
-1.235,-0.39,5180.555555555556
-1.26,-0.38,5183.333333333333
-1.28,-0.4,5186.111111111111
-1.275,-0.4,5188.888888888889
-1.28,-0.385,5191.666666666667
-1.285,-0.39,5194.444444444444
-1.27,-0.365,5197.222222222223
-1.285,-0.365,5200.0
-1.295,-0.365,5202.777777777777
-1.33,-0.365,5205.555555555556
-1.375,-0.395,5208.333333333333
-1.41,-0.405,5211.111111111111
-1.41,-0.405,5213.888888888889
-1.44,-0.395,5216.666666666667
-1.45,-0.385,5219.444444444444
-1.44,-0.385,5222.222222222223
-1.41,-0.39,5225.0
-1.39,-0.38,5227.777777777777
-1.375,-0.385,5230.555555555556
-1.355,-0.37,5233.333333333333
-1.365,-0.365,5236.111111111111
-1.355,-0.355,5238.888888888889
-1.375,-0.365,5241.666666666667
-1.39,-0.365,5244.444444444444
-1.41,-0.385,5247.222222222223
-1.415,-0.375,5250.0
-1.425,-0.375,5252.777777777777
-1.415,-0.36,5255.555555555556
-1.4,-0.355,5258.333333333333
-1.385,-0.37,5261.111111111111
-1.355,-0.39,5263.888888888889
-1.32,-0.4,5266.666666666667
-1.26,-0.47,5269.444444444444
-1.185,-0.535,5272.222222222223
-1.07,-0.59,5275.0
-0.935,-0.685,5277.777777777777
-0.74,-0.775,5280.555555555556
-0.5,-0.835,5283.333333333333
-0.225,-0.895,5286.111111111111
0.09,-0.955,5288.888888888889
0.44,-1.01,5291.666666666667
0.84,-1.07,5294.444444444444
1.275,-1.075,5297.222222222223
1.68,-1.015,5300.0
1.99,-0.925,5302.777777777777
2.145,-0.79,5305.555555555556
2.04,-0.645,5308.333333333333
1.615,-0.54,5311.111111111111
0.975,-0.505,5313.888888888889
0.335,-0.51,5316.666666666667
-0.305,-0.55,5319.444444444444
-0.945,-0.57,5322.222222222223
-1.585,-0.52,5325.0
-2.055,-0.485,5327.777777777777
-1.815,-0.43,5330.555555555556
-1.475,-0.38,5333.333333333333
-1.22,-0.335,5336.111111111111
-1.055,-0.345,5338.888888888889
-1.02,-0.34,5341.666666666667
-1.09,-0.34,5344.444444444444
-1.19,-0.355,5347.222222222223
-1.295,-0.38,5350.0
-1.35,-0.385,5352.777777777777
-1.395,-0.395,5355.555555555556
-1.385,-0.38,5358.333333333333
-1.38,-0.36,5361.111111111111
-1.34,-0.36,5363.888888888889
-1.335,-0.33,5366.666666666667
-1.335,-0.32,5369.444444444444
-1.345,-0.325,5372.222222222223
-1.36,-0.32,5375.0
-1.35,-0.355,5377.777777777777
-1.34,-0.36,5380.555555555556
-1.35,-0.345,5383.333333333333
-1.34,-0.355,5386.111111111111
-1.335,-0.345,5388.888888888889
-1.315,-0.335,5391.666666666667
-1.3,-0.335,5394.444444444444
-1.285,-0.34,5397.222222222223
-1.27,-0.32,5400.0
-1.265,-0.32,5402.777777777777
-1.27,-0.305,5405.555555555556
-1.275,-0.33,5408.333333333333
-1.28,-0.335,5411.111111111111
-1.28,-0.335,5413.888888888889
-1.29,-0.33,5416.666666666667
-1.28,-0.35,5419.444444444444
-1.27,-0.345,5422.222222222223
-1.26,-0.335,5425.0
-1.25,-0.33,5427.777777777777
-1.215,-0.31,5430.555555555556
-1.205,-0.27,5433.333333333333
-1.175,-0.275,5436.111111111111
-1.16,-0.3,5438.888888888889
-1.155,-0.335,5441.666666666667
-1.16,-0.35,5444.444444444444
-1.15,-0.375,5447.222222222223
-1.135,-0.37,5450.0
-1.145,-0.32,5452.777777777777
-1.125,-0.305,5455.555555555556
-1.105,-0.27,5458.333333333333
-1.1,-0.27,5461.111111111111
-1.065,-0.265,5463.888888888889
-1.04,-0.28,5466.666666666667
-1.005,-0.3,5469.444444444444
-0.99,-0.305,5472.222222222223
-0.97,-0.325,5475.0
-0.97,-0.3,5477.777777777777
-0.965,-0.32,5480.555555555556
-0.96,-0.3,5483.333333333333
-0.955,-0.305,5486.111111111111
-0.915,-0.295,5488.888888888889
-0.885,-0.285,5491.666666666667
-0.83,-0.29,5494.444444444444
-0.795,-0.255,5497.222222222223
-0.76,-0.225,5500.0
-0.715,-0.2,5502.777777777777
-0.705,-0.18,5505.555555555556
-0.685,-0.205,5508.333333333333
-0.67,-0.21,5511.111111111111
-0.64,-0.23,5513.888888888889
-0.625,-0.245,5516.666666666667
-0.595,-0.275,5519.444444444444
-0.575,-0.27,5522.222222222223
-0.575,-0.28,5525.0
-0.57,-0.27,5527.777777777777
-0.545,-0.22,5530.555555555556
-0.52,-0.205,5533.333333333333
-0.515,-0.195,5536.111111111111
-0.49,-0.18,5538.888888888889
-0.49,-0.2,5541.666666666667
-0.51,-0.195,5544.444444444444
-0.515,-0.23,5547.222222222223
-0.54,-0.23,5550.0
-0.545,-0.235,5552.777777777777
-0.565,-0.24,5555.555555555556
-0.575,-0.245,5558.333333333333
-0.6,-0.265,5561.111111111111
-0.625,-0.27,5563.888888888889
-0.65,-0.27,5566.666666666667
-0.7,-0.275,5569.444444444444
-0.75,-0.26,5572.222222222223
-0.8,-0.27,5575.0
-0.855,-0.27,5577.777777777777
-0.895,-0.295,5580.555555555556
-0.945,-0.295,5583.333333333333
-1.01,-0.29,5586.111111111111
-1.05,-0.285,5588.888888888889
-1.09,-0.27,5591.666666666667
-1.115,-0.28,5594.444444444444
-1.16,-0.305,5597.222222222223
-1.17,-0.32,5600.0
-1.18,-0.345,5602.777777777777
-1.22,-0.34,5605.555555555556
-1.24,-0.37,5608.333333333333
-1.27,-0.375,5611.111111111111
-1.295,-0.39,5613.888888888889
-1.31,-0.365,5616.666666666667
-1.32,-0.37,5619.444444444444
-1.33,-0.35,5622.222222222223
-1.335,-0.345,5625.0
-1.325,-0.35,5627.777777777777
-1.335,-0.335,5630.555555555556
-1.335,-0.32,5633.333333333333
-1.32,-0.325,5636.111111111111
-1.335,-0.34,5638.888888888889
-1.335,-0.335,5641.666666666667
-1.345,-0.345,5644.444444444444
-1.345,-0.355,5647.222222222223
-1.345,-0.36,5650.0
-1.355,-0.375,5652.777777777777
-1.34,-0.365,5655.555555555556
-1.34,-0.36,5658.333333333333
-1.33,-0.33,5661.111111111111
-1.32,-0.335,5663.888888888889
-1.315,-0.315,5666.666666666667
-1.31,-0.335,5669.444444444444
-1.31,-0.345,5672.222222222223
-1.315,-0.38,5675.0
-1.32,-0.375,5677.777777777777
-1.33,-0.38,5680.555555555556
-1.335,-0.365,5683.333333333333
-1.35,-0.375,5686.111111111111
-1.37,-0.355,5688.888888888889
-1.35,-0.335,5691.666666666667
-1.335,-0.32,5694.444444444444
-1.305,-0.325,5697.222222222223
-1.295,-0.34,5700.0
-1.275,-0.345,5702.777777777777
-1.265,-0.34,5705.555555555556
-1.275,-0.355,5708.333333333333
-1.28,-0.355,5711.111111111111
-1.295,-0.36,5713.888888888889
-1.315,-0.375,5716.666666666667
-1.31,-0.355,5719.444444444444
-1.32,-0.36,5722.222222222223
-1.31,-0.345,5725.0
-1.305,-0.33,5727.777777777777
-1.295,-0.33,5730.555555555556
-1.3,-0.32,5733.333333333333
-1.29,-0.345,5736.111111111111
-1.305,-0.365,5738.888888888889
-1.305,-0.37,5741.666666666667
-1.31,-0.375,5744.444444444444
-1.32,-0.39,5747.222222222223
-1.31,-0.38,5750.0
-1.315,-0.395,5752.777777777777
-1.315,-0.365,5755.555555555556
-1.335,-0.36,5758.333333333333
-1.345,-0.345,5761.111111111111
-1.365,-0.34,5763.888888888889
-1.37,-0.335,5766.666666666667
-1.375,-0.345,5769.444444444444
-1.385,-0.35,5772.222222222223
-1.38,-0.375,5775.0
-1.395,-0.365,5777.777777777777
-1.39,-0.39,5780.555555555556
-1.4,-0.38,5783.333333333333
-1.4,-0.385,5786.111111111111
-1.41,-0.39,5788.888888888889
-1.42,-0.385,5791.666666666667
-1.4,-0.355,5794.444444444444
-1.405,-0.34,5797.222222222223
-1.4,-0.32,5800.0
-1.39,-0.34,5802.777777777777
-1.385,-0.365,5805.555555555556
-1.4,-0.38,5808.333333333333
-1.4,-0.39,5811.111111111111
-1.41,-0.395,5813.888888888889
-1.425,-0.385,5816.666666666667
-1.415,-0.395,5819.444444444444
-1.42,-0.395,5822.222222222223
-1.415,-0.385,5825.0
-1.4,-0.36,5827.777777777777
-1.405,-0.36,5830.555555555556
-1.39,-0.335,5833.333333333333
-1.38,-0.345,5836.111111111111
-1.385,-0.36,5838.888888888889
-1.385,-0.37,5841.666666666667
-1.395,-0.4,5844.444444444444
-1.415,-0.4,5847.222222222223
-1.415,-0.395,5850.0
-1.41,-0.395,5852.777777777777
-1.435,-0.365,5855.555555555556
-1.45,-0.37,5858.333333333333
-1.44,-0.345,5861.111111111111
-1.435,-0.35,5863.888888888889
-1.43,-0.335,5866.666666666667
-1.405,-0.32,5869.444444444444
-1.38,-0.325,5872.222222222223
-1.375,-0.315,5875.0
-1.335,-0.315,5877.777777777777
-1.32,-0.33,5880.555555555556
-1.33,-0.33,5883.333333333333
-1.33,-0.33,5886.111111111111
-1.335,-0.335,5888.888888888889
-1.34,-0.32,5891.666666666667
-1.34,-0.305,5894.444444444444
-1.345,-0.31,5897.222222222223
-1.32,-0.29,5900.0
-1.315,-0.29,5902.777777777777
-1.305,-0.3,5905.555555555556
-1.31,-0.345,5908.333333333333
-1.31,-0.365,5911.111111111111
-1.305,-0.38,5913.888888888889
-1.29,-0.395,5916.666666666667
-1.25,-0.385,5919.444444444444
-1.24,-0.37,5922.222222222223
-1.235,-0.335,5925.0
-1.235,-0.335,5927.777777777777
-1.22,-0.33,5930.555555555556
-1.23,-0.345,5933.333333333333
-1.235,-0.36,5936.111111111111
-1.25,-0.375,5938.888888888889
-1.26,-0.37,5941.666666666667
-1.3,-0.35,5944.444444444444
-1.325,-0.37,5947.222222222223
-1.33,-0.37,5950.0
-1.315,-0.37,5952.777777777777
-1.31,-0.41,5955.555555555556
-1.34,-0.4,5958.333333333333
-1.335,-0.415,5961.111111111111
-1.355,-0.405,5963.888888888889
-1.38,-0.395,5966.666666666667
-1.4,-0.39,5969.444444444444
-1.43,-0.395,5972.222222222223
-1.455,-0.405,5975.0
-1.46,-0.4,5977.777777777777
-1.475,-0.39,5980.555555555556
-1.48,-0.39,5983.333333333333
-1.48,-0.385,5986.111111111111
-1.465,-0.385,5988.888888888889
-1.465,-0.38,5991.666666666667
-1.455,-0.37,5994.444444444444
-1.445,-0.36,5997.222222222223
-1.42,-0.36,6000.0
-1.41,-0.35,6002.777777777777
-1.415,-0.34,6005.555555555556
-1.425,-0.325,6008.333333333333
-1.445,-0.355,6011.111111111111
-1.465,-0.375,6013.888888888889
-1.45,-0.405,6016.666666666667
-1.415,-0.455,6019.444444444444
-1.365,-0.495,6022.222222222223
-1.265,-0.56,6025.0
-1.125,-0.645,6027.777777777777
-0.935,-0.72,6030.555555555556
-0.665,-0.79,6033.333333333333
-0.33,-0.88,6036.111111111111
0.045,-0.955,6038.888888888889
0.47,-1.035,6041.666666666667
0.88,-1.115,6044.444444444444
1.29,-1.155,6047.222222222223
1.645,-1.135,6050.0
1.9,-1.085,6052.777777777777
2.065,-0.98,6055.555555555556
2.095,-0.84,6058.333333333333
1.91,-0.71,6061.111111111111
1.465,-0.615,6063.888888888889
0.825,-0.58,6066.666666666667
0.185,-0.535,6069.444444444444
-0.455,-0.535,6072.222222222223
-1.095,-0.525,6075.0
-1.735,-0.5,6077.777777777777
-1.995,-0.45,6080.555555555556
-1.735,-0.405,6083.333333333333
-1.45,-0.375,6086.111111111111
-1.23,-0.335,6088.888888888889
-1.145,-0.335,6091.666666666667
-1.145,-0.345,6094.444444444444
-1.22,-0.35,6097.222222222223
-1.31,-0.355,6100.0
-1.37,-0.365,6102.777777777777
-1.415,-0.365,6105.555555555556
-1.425,-0.36,6108.333333333333
-1.42,-0.365,6111.111111111111
-1.41,-0.365,6113.888888888889
-1.41,-0.37,6116.666666666667
-1.405,-0.35,6119.444444444444
-1.4,-0.325,6122.222222222223
-1.395,-0.31,6125.0
-1.4,-0.295,6127.777777777777
-1.385,-0.295,6130.555555555556
-1.39,-0.285,6133.333333333333
-1.35,-0.29,6136.111111111111
-1.33,-0.31,6138.888888888889
-1.325,-0.335,6141.666666666667
-1.325,-0.355,6144.444444444444
-1.33,-0.365,6147.222222222223
-1.34,-0.365,6150.0
-1.325,-0.35,6152.777777777777
-1.335,-0.345,6155.555555555556
-1.345,-0.34,6158.333333333333
-1.33,-0.335,6161.111111111111
-1.32,-0.305,6163.888888888889
-1.305,-0.295,6166.666666666667
-1.285,-0.285,6169.444444444444
-1.26,-0.29,6172.222222222223
-1.265,-0.28,6175.0
-1.255,-0.3,6177.777777777777
-1.255,-0.31,6180.555555555556
-1.265,-0.325,6183.333333333333
-1.24,-0.34,6186.111111111111
-1.235,-0.35,6188.888888888889
-1.225,-0.345,6191.666666666667
-1.19,-0.325,6194.444444444444
-1.165,-0.29,6197.222222222223
-1.13,-0.28,6200.0
-1.11,-0.255,6202.777777777777
-1.095,-0.25,6205.555555555556
-1.09,-0.235,6208.333333333333
-1.09,-0.26,6211.111111111111
-1.075,-0.275,6213.888888888889
-1.065,-0.295,6216.666666666667
-1.04,-0.305,6219.444444444444
-1.03,-0.305,6222.222222222223
-1.005,-0.34,6225.0
-0.975,-0.31,6227.777777777777
-0.955,-0.295,6230.555555555556
-0.95,-0.275,6233.333333333333
-0.915,-0.255,6236.111111111111
-0.88,-0.25,6238.888888888889
-0.845,-0.235,6241.666666666667
-0.83,-0.26,6244.444444444444
-0.805,-0.23,6247.222222222223
-0.81,-0.24,6250.0
-0.765,-0.23,6252.777777777777
-0.73,-0.25,6255.555555555556
-0.71,-0.235,6258.333333333333
-0.675,-0.23,6261.111111111111
-0.645,-0.22,6263.888888888889
-0.605,-0.19,6266.666666666667
-0.595,-0.195,6269.444444444444
-0.565,-0.18,6272.222222222223
-0.565,-0.185,6275.0
-0.57,-0.225,6277.777777777777
-0.585,-0.23,6280.555555555556
-0.6,-0.24,6283.333333333333
-0.605,-0.23,6286.111111111111
-0.62,-0.225,6288.888888888889
-0.615,-0.215,6291.666666666667
-0.605,-0.19,6294.444444444444
-0.595,-0.17,6297.222222222223
-0.625,-0.195,6300.0
-0.605,-0.215,6302.777777777777
-0.635,-0.235,6305.555555555556
-0.675,-0.245,6308.333333333333
-0.725,-0.265,6311.111111111111
-0.79,-0.285,6313.888888888889
-0.845,-0.305,6316.666666666667
-0.905,-0.32,6319.444444444444
-0.945,-0.335,6322.222222222223
-0.985,-0.34,6325.0
-1.015,-0.37,6327.777777777777
-1.06,-0.375,6330.555555555556
-1.1,-0.39,6333.333333333333
-1.105,-0.38,6336.111111111111
-1.125,-0.36,6338.888888888889
-1.16,-0.365,6341.666666666667
-1.19,-0.355,6344.444444444444
-1.21,-0.37,6347.222222222223
-1.25,-0.37,6350.0
-1.255,-0.385,6352.777777777777
-1.285,-0.395,6355.555555555556
-1.295,-0.39,6358.333333333333
-1.29,-0.37,6361.111111111111
-1.295,-0.36,6363.888888888889
-1.295,-0.355,6366.666666666667
-1.285,-0.355,6369.444444444444
-1.295,-0.36,6372.222222222223
-1.305,-0.39,6375.0
-1.34,-0.41,6377.777777777777
-1.34,-0.365,6380.555555555556
-1.335,-0.385,6383.333333333333
-1.34,-0.38,6386.111111111111
-1.345,-0.39,6388.888888888889
-1.345,-0.38,6391.666666666667
-1.325,-0.37,6394.444444444444
-1.31,-0.36,6397.222222222223
-1.3,-0.375,6400.0
-1.29,-0.38,6402.777777777777
-1.29,-0.38,6405.555555555556
-1.295,-0.39,6408.333333333333
-1.305,-0.41,6411.111111111111
-1.325,-0.395,6413.888888888889
-1.315,-0.41,6416.666666666667
-1.315,-0.415,6419.444444444444
-1.315,-0.405,6422.222222222223
-1.31,-0.405,6425.0
-1.3,-0.41,6427.777777777777
-1.275,-0.38,6430.555555555556
-1.27,-0.37,6433.333333333333
-1.29,-0.36,6436.111111111111
-1.28,-0.37,6438.888888888889
-1.28,-0.37,6441.666666666667
-1.27,-0.38,6444.444444444444
-1.275,-0.4,6447.222222222223
-1.285,-0.41,6450.0
-1.3,-0.43,6452.777777777777
-1.295,-0.445,6455.555555555556
-1.285,-0.42,6458.333333333333
-1.28,-0.395,6461.111111111111
-1.28,-0.385,6463.888888888889
-1.255,-0.38,6466.666666666667
-1.25,-0.375,6469.444444444444
-1.255,-0.37,6472.222222222223
-1.255,-0.37,6475.0
-1.265,-0.385,6477.777777777777
-1.28,-0.38,6480.555555555556
-1.295,-0.38,6483.333333333333
-1.29,-0.385,6486.111111111111
-1.29,-0.39,6488.888888888889
-1.305,-0.395,6491.666666666667
-1.295,-0.4,6494.444444444444
-1.305,-0.4,6497.222222222223
-1.285,-0.38,6500.0
-1.28,-0.385,6502.777777777777
-1.285,-0.4,6505.555555555556
-1.28,-0.41,6508.333333333333
-1.31,-0.425,6511.111111111111
-1.325,-0.42,6513.888888888889
-1.33,-0.425,6516.666666666667
-1.335,-0.42,6519.444444444444
-1.32,-0.4,6522.222222222223
-1.32,-0.39,6525.0
-1.305,-0.385,6527.777777777777
-1.3,-0.4,6530.555555555556
-1.3,-0.39,6533.333333333333
-1.31,-0.41,6536.111111111111
-1.315,-0.415,6538.888888888889
-1.335,-0.41,6541.666666666667
-1.34,-0.43,6544.444444444444
-1.335,-0.415,6547.222222222223
-1.335,-0.43,6550.0
-1.345,-0.42,6552.777777777777
-1.34,-0.44,6555.555555555556
-1.345,-0.43,6558.333333333333
-1.335,-0.405,6561.111111111111
-1.315,-0.4,6563.888888888889
-1.315,-0.39,6566.666666666667
-1.31,-0.395,6569.444444444444
-1.315,-0.385,6572.222222222223
-1.295,-0.395,6575.0
-1.315,-0.4,6577.777777777777
-1.325,-0.42,6580.555555555556
-1.32,-0.43,6583.333333333333
-1.335,-0.41,6586.111111111111
-1.345,-0.425,6588.888888888889
-1.335,-0.415,6591.666666666667
-1.34,-0.415,6594.444444444444
-1.325,-0.4,6597.222222222223
-1.325,-0.385,6600.0
-1.31,-0.38,6602.777777777777
-1.3,-0.37,6605.555555555556
-1.3,-0.365,6608.333333333333
-1.295,-0.37,6611.111111111111
-1.29,-0.365,6613.888888888889
-1.28,-0.375,6616.666666666667
-1.28,-0.36,6619.444444444444
-1.265,-0.355,6622.222222222223
-1.25,-0.36,6625.0
-1.24,-0.365,6627.777777777777
-1.235,-0.365,6630.555555555556
-1.225,-0.355,6633.333333333333
-1.22,-0.35,6636.111111111111
-1.21,-0.35,6638.888888888889
-1.21,-0.355,6641.666666666667
-1.22,-0.355,6644.444444444444
-1.225,-0.375,6647.222222222223
-1.21,-0.39,6650.0
-1.215,-0.395,6652.777777777777
-1.195,-0.41,6655.555555555556
-1.18,-0.385,6658.333333333333
-1.16,-0.385,6661.111111111111
-1.125,-0.365,6663.888888888889
-1.12,-0.365,6666.666666666667
-1.125,-0.36,6669.444444444444
-1.115,-0.375,6672.222222222223
-1.145,-0.385,6675.0
-1.16,-0.38,6677.777777777777
-1.175,-0.405,6680.555555555556
-1.205,-0.42,6683.333333333333
-1.215,-0.42,6686.111111111111
-1.225,-0.435,6688.888888888889
-1.215,-0.45,6691.666666666667
-1.225,-0.44,6694.444444444444
-1.21,-0.43,6697.222222222223
-1.22,-0.41,6700.0
-1.235,-0.405,6702.777777777777
-1.26,-0.41,6705.555555555556
-1.28,-0.42,6708.333333333333
-1.315,-0.435,6711.111111111111
-1.345,-0.445,6713.888888888889
-1.365,-0.45,6716.666666666667
-1.385,-0.445,6719.444444444444
-1.39,-0.435,6722.222222222223
-1.385,-0.44,6725.0
-1.38,-0.44,6727.777777777777
-1.37,-0.43,6730.555555555556
-1.355,-0.41,6733.333333333333
-1.34,-0.385,6736.111111111111
-1.33,-0.39,6738.888888888889
-1.33,-0.41,6741.666666666667
-1.345,-0.425,6744.444444444444
-1.345,-0.43,6747.222222222223
-1.355,-0.42,6750.0
-1.335,-0.42,6752.777777777777
-1.345,-0.425,6755.555555555556
-1.33,-0.43,6758.333333333333
-1.315,-0.45,6761.111111111111
-1.29,-0.5,6763.888888888889
-1.235,-0.565,6766.666666666667
-1.135,-0.665,6769.444444444444
-1.0,-0.775,6772.222222222223
-0.79,-0.86,6775.0
-0.51,-0.955,6777.777777777777
-0.15,-1.055,6780.555555555556
0.24,-1.13,6783.333333333333
0.685,-1.205,6786.111111111111
1.15,-1.235,6788.888888888889
1.63,-1.235,6791.666666666667
2.02,-1.175,6794.444444444444
2.285,-1.075,6797.222222222223
2.39,-0.945,6800.0
2.275,-0.84,6802.777777777777
1.905,-0.765,6805.555555555556
1.29,-0.71,6808.333333333333
0.65,-0.68,6811.111111111111
0.01,-0.675,6813.888888888889
-0.63,-0.655,6816.666666666667
-1.27,-0.625,6819.444444444444
-1.86,-0.565,6822.222222222223
-1.78,-0.515,6825.0
-1.52,-0.455,6827.777777777777
-1.255,-0.405,6830.555555555556
-1.065,-0.4,6833.333333333333
-0.985,-0.42,6836.111111111111
-1.0,-0.435,6838.888888888889
-1.085,-0.45,6841.666666666667
-1.195,-0.435,6844.444444444444
-1.265,-0.43,6847.222222222223
-1.31,-0.435,6850.0
-1.31,-0.425,6852.777777777777
-1.33,-0.405,6855.555555555556
-1.3,-0.37,6858.333333333333
-1.27,-0.37,6861.111111111111
-1.25,-0.37,6863.888888888889
-1.25,-0.375,6866.666666666667
-1.255,-0.385,6869.444444444444
-1.255,-0.385,6872.222222222223
-1.265,-0.39,6875.0
-1.26,-0.385,6877.777777777777
-1.27,-0.39,6880.555555555556
-1.27,-0.395,6883.333333333333
-1.26,-0.405,6886.111111111111
-1.265,-0.405,6888.888888888889
-1.245,-0.385,6891.666666666667
-1.23,-0.35,6894.444444444444
-1.215,-0.335,6897.222222222223
-1.2,-0.315,6900.0
-1.19,-0.31,6902.777777777777
-1.185,-0.345,6905.555555555556
-1.185,-0.37,6908.333333333333
-1.195,-0.385,6911.111111111111
-1.185,-0.39,6913.888888888889
-1.19,-0.36,6916.666666666667
-1.19,-0.335,6919.444444444444
-1.18,-0.34,6922.222222222223
-1.165,-0.34,6925.0
-1.16,-0.345,6927.777777777777
-1.135,-0.365,6930.555555555556
-1.105,-0.37,6933.333333333333
-1.08,-0.36,6936.111111111111
-1.075,-0.345,6938.888888888889
-1.07,-0.36,6941.666666666667
-1.045,-0.36,6944.444444444444
-1.05,-0.355,6947.222222222223
-1.035,-0.37,6950.0
-1.04,-0.375,6952.777777777777
-1.015,-0.36,6955.555555555556
-1.01,-0.345,6958.333333333333
-0.975,-0.315,6961.111111111111
-0.955,-0.305,6963.888888888889
-0.92,-0.295,6966.666666666667
-0.87,-0.305,6969.444444444444
-0.83,-0.295,6972.222222222223
-0.815,-0.3,6975.0
-0.81,-0.305,6977.777777777777
-0.795,-0.29,6980.555555555556
-0.78,-0.31,6983.333333333333
-0.735,-0.305,6986.111111111111
-0.745,-0.285,6988.888888888889
-0.72,-0.265,6991.666666666667
-0.68,-0.23,6994.444444444444
-0.645,-0.235,6997.222222222223
-0.59,-0.235,7000.0
-0.555,-0.235,7002.777777777777
-0.545,-0.25,7005.555555555556
-0.525,-0.26,7008.333333333333
-0.515,-0.26,7011.111111111111
-0.485,-0.25,7013.888888888889
-0.485,-0.27,7016.666666666667
-0.47,-0.255,7019.444444444444
-0.475,-0.27,7022.222222222223
-0.465,-0.245,7025.0
-0.46,-0.22,7027.777777777777
-0.465,-0.225,7030.555555555556
-0.475,-0.24,7033.333333333333
-0.485,-0.225,7036.111111111111
-0.48,-0.225,7038.888888888889
-0.505,-0.245,7041.666666666667
-0.54,-0.285,7044.444444444444
-0.585,-0.32,7047.222222222223
-0.615,-0.35,7050.0
-0.655,-0.37,7052.777777777777
-0.705,-0.375,7055.555555555556
-0.76,-0.345,7058.333333333333
-0.81,-0.35,7061.111111111111
-0.855,-0.345,7063.888888888889
-0.905,-0.36,7066.666666666667
-0.92,-0.39,7069.444444444444
-0.975,-0.39,7072.222222222223
-1.015,-0.41,7075.0
-1.065,-0.43,7077.777777777777
-1.105,-0.45,7080.555555555556
-1.15,-0.46,7083.333333333333
-1.185,-0.465,7086.111111111111
-1.195,-0.465,7088.888888888889
-1.225,-0.45,7091.666666666667
-1.215,-0.45,7094.444444444444
-1.22,-0.445,7097.222222222223
-1.23,-0.42,7100.0
-1.235,-0.415,7102.777777777777
-1.245,-0.415,7105.555555555556
-1.265,-0.43,7108.333333333333
-1.265,-0.43,7111.111111111111
-1.28,-0.455,7113.888888888889
-1.28,-0.445,7116.666666666667
-1.295,-0.46,7119.444444444444
-1.31,-0.455,7122.222222222223
-1.315,-0.45,7125.0
-1.31,-0.42,7127.777777777777
-1.29,-0.435,7130.555555555556
-1.28,-0.435,7133.333333333333
-1.28,-0.415,7136.111111111111
-1.275,-0.44,7138.888888888889
-1.265,-0.43,7141.666666666667
-1.275,-0.46,7144.444444444444
-1.29,-0.475,7147.222222222223
-1.285,-0.47,7150.0
-1.29,-0.49,7152.777777777777
-1.295,-0.5,7155.555555555556
-1.28,-0.48,7158.333333333333
-1.28,-0.46,7161.111111111111
-1.265,-0.45,7163.888888888889
-1.26,-0.435,7166.666666666667
-1.245,-0.415,7169.444444444444
-1.255,-0.43,7172.222222222223
-1.25,-0.43,7175.0
-1.24,-0.465,7177.777777777777
-1.25,-0.475,7180.555555555556
-1.25,-0.475,7183.333333333333
-1.25,-0.47,7186.111111111111
-1.265,-0.45,7188.888888888889
-1.265,-0.425,7191.666666666667
-1.28,-0.42,7194.444444444444
-1.265,-0.41,7197.222222222223
-1.265,-0.42,7200.0
-1.245,-0.43,7202.777777777777
-1.22,-0.45,7205.555555555556
-1.22,-0.465,7208.333333333333
-1.23,-0.47,7211.111111111111
-1.24,-0.47,7213.888888888889
-1.255,-0.44,7216.666666666667
-1.27,-0.455,7219.444444444444
-1.285,-0.44,7222.222222222223
-1.285,-0.445,7225.0
-1.285,-0.465,7227.777777777777
-1.265,-0.465,7230.555555555556
-1.275,-0.465,7233.333333333333
-1.27,-0.465,7236.111111111111
-1.295,-0.45,7238.888888888889
-1.3,-0.445,7241.666666666667
-1.315,-0.47,7244.444444444444
-1.32,-0.465,7247.222222222223
-1.295,-0.485,7250.0
-1.29,-0.505,7252.777777777777
-1.315,-0.515,7255.555555555556
-1.315,-0.5,7258.333333333333
-1.325,-0.495,7261.111111111111
-1.305,-0.465,7263.888888888889
-1.305,-0.45,7266.666666666667
-1.29,-0.435,7269.444444444444
-1.275,-0.44,7272.222222222223
-1.27,-0.465,7275.0
-1.28,-0.49,7277.777777777777
-1.3,-0.485,7280.555555555556
-1.31,-0.51,7283.333333333333
-1.32,-0.505,7286.111111111111
-1.33,-0.5,7288.888888888889
-1.335,-0.53,7291.666666666667
-1.33,-0.5,7294.444444444444
-1.32,-0.505,7297.222222222223
-1.32,-0.485,7300.0
-1.325,-0.49,7302.777777777777
-1.335,-0.49,7305.555555555556
-1.325,-0.49,7308.333333333333
-1.325,-0.5,7311.111111111111
-1.325,-0.485,7313.888888888889
-1.325,-0.5,7316.666666666667
-1.32,-0.5,7319.444444444444
-1.335,-0.49,7322.222222222223
-1.33,-0.5,7325.0
-1.33,-0.495,7327.777777777777
-1.32,-0.505,7330.555555555556
-1.305,-0.49,7333.333333333333
-1.3,-0.495,7336.111111111111
-1.3,-0.495,7338.888888888889
-1.315,-0.49,7341.666666666667
-1.3,-0.48,7344.444444444444
-1.315,-0.5,7347.222222222223
-1.33,-0.495,7350.0
-1.345,-0.485,7352.777777777777
-1.355,-0.49,7355.555555555556
-1.35,-0.475,7358.333333333333
-1.32,-0.455,7361.111111111111
-1.275,-0.445,7363.888888888889
-1.24,-0.43,7366.666666666667
-1.225,-0.42,7369.444444444444
-1.21,-0.405,7372.222222222223
-1.21,-0.4,7375.0
-1.21,-0.42,7377.777777777777
-1.23,-0.435,7380.555555555556
-1.23,-0.45,7383.333333333333
-1.24,-0.475,7386.111111111111
-1.245,-0.475,7388.888888888889
-1.23,-0.455,7391.666666666667
-1.21,-0.43,7394.444444444444
-1.19,-0.42,7397.222222222223
-1.17,-0.415,7400.0
-1.14,-0.43,7402.777777777777
-1.135,-0.465,7405.555555555556
-1.14,-0.48,7408.333333333333
-1.13,-0.5,7411.111111111111
-1.135,-0.515,7413.888888888889
-1.145,-0.505,7416.666666666667
-1.165,-0.5,7419.444444444444
-1.18,-0.485,7422.222222222223
-1.185,-0.48,7425.0
-1.19,-0.465,7427.777777777777
-1.19,-0.475,7430.555555555556
-1.205,-0.48,7433.333333333333
-1.18,-0.485,7436.111111111111
-1.195,-0.505,7438.888888888889
-1.205,-0.515,7441.666666666667
-1.215,-0.53,7444.444444444444
-1.24,-0.545,7447.222222222223
-1.275,-0.56,7450.0
-1.3,-0.545,7452.777777777777
-1.33,-0.55,7455.555555555556
-1.355,-0.535,7458.333333333333
-1.355,-0.525,7461.111111111111
-1.365,-0.515,7463.888888888889
-1.365,-0.51,7466.666666666667
-1.35,-0.51,7469.444444444444
-1.335,-0.545,7472.222222222223
-1.34,-0.555,7475.0
-1.33,-0.55,7477.777777777777
-1.345,-0.54,7480.555555555556
-1.345,-0.535,7483.333333333333
-1.36,-0.535,7486.111111111111
-1.365,-0.54,7488.888888888889
-1.365,-0.535,7491.666666666667
-1.36,-0.53,7494.444444444444
-1.335,-0.505,7497.222222222223
-1.32,-0.5,7500.0
-1.305,-0.495,7502.777777777777
-1.32,-0.495,7505.555555555556
-1.32,-0.495,7508.333333333333
-1.31,-0.55,7511.111111111111
-1.29,-0.59,7513.888888888889
-1.255,-0.655,7516.666666666667
-1.175,-0.73,7519.444444444444
-1.06,-0.785,7522.222222222223
-0.91,-0.86,7525.0
-0.7,-0.875,7527.777777777777
-0.445,-0.92,7530.555555555556
-0.185,-0.955,7533.333333333333
0.095,-1.03,7536.111111111111
0.375,-1.105,7538.888888888889
0.665,-1.19,7541.666666666667
1.0,-1.255,7544.444444444444
1.345,-1.245,7547.222222222223
1.64,-1.18,7550.0
1.835,-1.065,7552.777777777777
1.845,-0.93,7555.555555555556
1.575,-0.85,7558.333333333333
1.02,-0.78,7561.111111111111
0.38,-0.765,7563.888888888889
-0.26,-0.74,7566.666666666667
-0.9,-0.71,7569.444444444444
-1.54,-0.665,7572.222222222223
-1.91,-0.63,7575.0
-1.775,-0.59,7577.777777777777
-1.525,-0.585,7580.555555555556
-1.255,-0.575,7583.333333333333
-1.075,-0.585,7586.111111111111
-1.02,-0.565,7588.888888888889
-1.045,-0.55,7591.666666666667
-1.1,-0.545,7594.444444444444
-1.17,-0.535,7597.222222222223
-1.225,-0.52,7600.0
-1.245,-0.51,7602.777777777777
-1.26,-0.52,7605.555555555556
-1.245,-0.525,7608.333333333333
-1.25,-0.525,7611.111111111111
-1.235,-0.54,7613.888888888889
-1.25,-0.57,7616.666666666667
-1.255,-0.56,7619.444444444444
-1.265,-0.555,7622.222222222223
-1.265,-0.54,7625.0
-1.26,-0.52,7627.777777777777
-1.24,-0.5,7630.555555555556
-1.235,-0.49,7633.333333333333
-1.22,-0.48,7636.111111111111
-1.24,-0.5,7638.888888888889
-1.22,-0.515,7641.666666666667
-1.22,-0.54,7644.444444444444
-1.225,-0.56,7647.222222222223
-1.205,-0.57,7650.0
-1.19,-0.555,7652.777777777777
-1.195,-0.55,7655.555555555556
-1.175,-0.545,7658.333333333333
-1.16,-0.52,7661.111111111111
-1.17,-0.49,7663.888888888889
-1.13,-0.48,7666.666666666667
-1.14,-0.475,7669.444444444444
-1.11,-0.48,7672.222222222223
-1.125,-0.495,7675.0
-1.12,-0.515,7677.777777777777
-1.13,-0.51,7680.555555555556
-1.11,-0.52,7683.333333333333
-1.1,-0.515,7686.111111111111
-1.085,-0.515,7688.888888888889
-1.075,-0.525,7691.666666666667
-1.055,-0.515,7694.444444444444
-1.04,-0.49,7697.222222222223
-1.015,-0.495,7700.0
-1.0,-0.485,7702.777777777777
-0.985,-0.475,7705.555555555556
-0.975,-0.48,7708.333333333333
-0.955,-0.485,7711.111111111111
-0.935,-0.495,7713.888888888889
-0.92,-0.49,7716.666666666667
-0.895,-0.485,7719.444444444444
-0.89,-0.48,7722.222222222223
-0.875,-0.495,7725.0
-0.855,-0.49,7727.777777777777
-0.84,-0.475,7730.555555555556
-0.815,-0.45,7733.333333333333
-0.785,-0.42,7736.111111111111
-0.75,-0.425,7738.888888888889
-0.725,-0.41,7741.666666666667
-0.71,-0.43,7744.444444444444
-0.67,-0.465,7747.222222222223
-0.65,-0.465,7750.0
-0.615,-0.47,7752.777777777777
-0.605,-0.46,7755.555555555556
-0.58,-0.45,7758.333333333333
-0.55,-0.435,7761.111111111111
-0.515,-0.43,7763.888888888889
-0.49,-0.405,7766.666666666667
-0.435,-0.38,7769.444444444444
-0.41,-0.39,7772.222222222223
-0.38,-0.395,7775.0
-0.36,-0.395,7777.777777777777
-0.35,-0.41,7780.555555555556
-0.345,-0.405,7783.333333333333
-0.35,-0.395,7786.111111111111
-0.35,-0.41,7788.888888888889
-0.36,-0.39,7791.666666666667
-0.35,-0.405,7794.444444444444
-0.325,-0.39,7797.222222222223
-0.315,-0.385,7800.0
-0.29,-0.375,7802.777777777777
-0.295,-0.39,7805.555555555556
-0.315,-0.41,7808.333333333333
-0.335,-0.44,7811.111111111111
-0.38,-0.435,7813.888888888889
-0.445,-0.45,7816.666666666667
-0.495,-0.48,7819.444444444444
-0.545,-0.47,7822.222222222223
-0.6,-0.47,7825.0
-0.63,-0.48,7827.777777777777
-0.67,-0.49,7830.555555555556
-0.71,-0.47,7833.333333333333
-0.73,-0.47,7836.111111111111
-0.765,-0.485,7838.888888888889
-0.815,-0.505,7841.666666666667
-0.86,-0.535,7844.444444444444
-0.895,-0.56,7847.222222222223
-0.93,-0.57,7850.0
-0.95,-0.57,7852.777777777777
-0.985,-0.585,7855.555555555556
-0.995,-0.58,7858.333333333333
-0.99,-0.545,7861.111111111111
-1.005,-0.535,7863.888888888889
-1.01,-0.525,7866.666666666667
-1.03,-0.52,7869.444444444444
-1.045,-0.525,7872.222222222223
-1.05,-0.56,7875.0
-1.07,-0.565,7877.777777777777
-1.08,-0.575,7880.555555555556
-1.075,-0.605,7883.333333333333
-1.08,-0.595,7886.111111111111
-1.085,-0.58,7888.888888888889
-1.09,-0.575,7891.666666666667
-1.09,-0.55,7894.444444444444
-1.075,-0.555,7897.222222222223
-1.075,-0.55,7900.0
-1.05,-0.535,7902.777777777777
-1.04,-0.56,7905.555555555556
-1.035,-0.57,7908.333333333333
-1.05,-0.58,7911.111111111111
-1.065,-0.605,7913.888888888889
-1.07,-0.615,7916.666666666667
-1.085,-0.6,7919.444444444444
-1.08,-0.6,7922.222222222223
-1.075,-0.575,7925.0
-1.06,-0.575,7927.777777777777
-1.045,-0.545,7930.555555555556
-1.035,-0.53,7933.333333333333
-1.015,-0.535,7936.111111111111
-1.01,-0.55,7938.888888888889
-1.0,-0.555,7941.666666666667
-1.005,-0.55,7944.444444444444
-1.02,-0.575,7947.222222222223
-1.02,-0.59,7950.0
-1.025,-0.605,7952.777777777777
-1.025,-0.605,7955.555555555556
-1.03,-0.59,7958.333333333333
-1.03,-0.585,7961.111111111111
-1.015,-0.57,7963.888888888889
-0.985,-0.555,7966.666666666667
-0.97,-0.525,7969.444444444444
-0.965,-0.535,7972.222222222223
-0.985,-0.53,7975.0
-0.995,-0.55,7977.777777777777
-1.01,-0.585,7980.555555555556
-1.01,-0.59,7983.333333333333
-1.02,-0.6,7986.111111111111
-1.035,-0.61,7988.888888888889
-1.04,-0.615,7991.666666666667
-1.03,-0.615,7994.444444444444
-1.035,-0.58,7997.222222222223
-1.04,-0.565,8000.0
-1.035,-0.545,8002.777777777777
-1.02,-0.54,8005.555555555556
-1.02,-0.535,8008.333333333333
-1.03,-0.55,8011.111111111111
-1.05,-0.56,8013.888888888889
-1.05,-0.57,8016.666666666667
-1.065,-0.59,8019.444444444444
-1.06,-0.6,8022.222222222223
-1.065,-0.62,8025.0
-1.06,-0.615,8027.777777777777
-1.055,-0.585,8030.555555555556
-1.04,-0.6,8033.333333333333
-1.03,-0.6,8036.111111111111
-1.045,-0.58,8038.888888888889
-1.055,-0.585,8041.666666666667
-1.07,-0.595,8044.444444444444
-1.08,-0.61,8047.222222222223
-1.085,-0.62,8050.0
-1.075,-0.615,8052.777777777777
-1.09,-0.6,8055.555555555556
-1.085,-0.59,8058.333333333333
-1.085,-0.585,8061.111111111111
-1.075,-0.585,8063.888888888889
-1.07,-0.585,8066.666666666667
-1.05,-0.59,8069.444444444444
-1.055,-0.605,8072.222222222223
-1.055,-0.6,8075.0
-1.06,-0.62,8077.777777777777
-1.085,-0.63,8080.555555555556
-1.095,-0.64,8083.333333333333
-1.095,-0.635,8086.111111111111
-1.09,-0.62,8088.888888888889
-1.085,-0.595,8091.666666666667
-1.08,-0.585,8094.444444444444
-1.09,-0.58,8097.222222222223
-1.075,-0.595,8100.0
-1.04,-0.595,8102.777777777777
-1.055,-0.605,8105.555555555556
-1.05,-0.61,8108.333333333333
-1.07,-0.595,8111.111111111111
-1.065,-0.61,8113.888888888889
-1.055,-0.59,8116.666666666667
-1.045,-0.575,8119.444444444444
-1.025,-0.555,8122.222222222223
-0.99,-0.535,8125.0
-0.99,-0.52,8127.777777777777
-0.96,-0.51,8130.555555555556
-0.96,-0.525,8133.333333333333
-0.94,-0.545,8136.111111111111
-0.92,-0.57,8138.888888888889
-0.92,-0.57,8141.666666666667
-0.935,-0.575,8144.444444444444
-0.94,-0.585,8147.222222222223
-0.96,-0.575,8150.0
-0.95,-0.58,8152.777777777777
-0.94,-0.59,8155.555555555556
-0.915,-0.615,8158.333333333333
-0.89,-0.61,8161.111111111111
-0.87,-0.61,8163.888888888889
-0.87,-0.62,8166.666666666667
-0.86,-0.59,8169.444444444444
-0.875,-0.58,8172.222222222223
-0.875,-0.565,8175.0
-0.875,-0.565,8177.777777777777
-0.89,-0.605,8180.555555555556
-0.905,-0.61,8183.333333333333
-0.905,-0.615,8186.111111111111
-0.945,-0.63,8188.888888888889
-0.96,-0.62,8191.666666666667
-0.98,-0.605,8194.444444444445
-0.995,-0.61,8197.222222222223
-1.02,-0.595,8200.0
-1.025,-0.605,8202.777777777777
-1.045,-0.605,8205.555555555555
-1.06,-0.64,8208.333333333334
-1.06,-0.665,8211.111111111111
-1.085,-0.67,8213.888888888889
-1.1,-0.67,8216.666666666666
-1.13,-0.66,8219.444444444445
-1.145,-0.65,8222.222222222223
-1.13,-0.63,8225.0
-1.125,-0.625,8227.777777777777
-1.095,-0.615,8230.555555555555
-1.09,-0.62,8233.333333333334
-1.08,-0.615,8236.111111111111
-1.085,-0.615,8238.888888888889
-1.075,-0.615,8241.666666666666
-1.095,-0.615,8244.444444444445
-1.105,-0.615,8247.222222222223
-1.13,-0.63,8250.0
-1.135,-0.625,8252.777777777777
-1.135,-0.635,8255.555555555555
-1.13,-0.66,8258.333333333334
-1.085,-0.67,8261.111111111111
-1.03,-0.715,8263.888888888889
-0.945,-0.755,8266.666666666666
-0.83,-0.83,8269.444444444445
-0.68,-0.925,8272.222222222223
-0.47,-1.02,8275.0
-0.21,-1.12,8277.777777777777
0.12,-1.24,8280.555555555555
0.485,-1.31,8283.333333333334
0.89,-1.395,8286.111111111111
1.33,-1.445,8288.888888888889
1.735,-1.45,8291.666666666666
2.1,-1.4,8294.444444444445
2.345,-1.295,8297.222222222223
2.435,-1.17,8300.0
2.315,-1.035,8302.777777777777
1.9,-0.94,8305.555555555555
1.26,-0.87,8308.333333333334
0.62,-0.835,8311.111111111111
-0.02,-0.82,8313.888888888889
-0.66,-0.805,8316.666666666666
-1.3,-0.76,8319.444444444445
-1.675,-0.73,8322.222222222223
-1.425,-0.67,8325.0
-1.085,-0.625,8327.777777777777
-0.8,-0.635,8330.555555555555
-0.66,-0.63,8333.333333333334
-0.65,-0.64,8336.111111111111
-0.725,-0.625,8338.888888888889
-0.845,-0.635,8341.666666666666
-0.96,-0.65,8344.444444444445
-1.035,-0.64,8347.222222222223
-1.07,-0.635,8350.0
-1.085,-0.635,8352.777777777777
-1.08,-0.63,8355.555555555555
-1.06,-0.595,8358.333333333334
-1.045,-0.58,8361.111111111111
-1.03,-0.57,8363.888888888889
-1.025,-0.565,8366.666666666666
-1.015,-0.555,8369.444444444445
-1.005,-0.59,8372.222222222223
-1.0,-0.605,8375.0
-0.99,-0.605,8377.777777777777
-0.99,-0.625,8380.555555555555
-1.0,-0.615,8383.333333333334
-1.0,-0.605,8386.111111111111
-0.995,-0.605,8388.888888888889
-1.015,-0.61,8391.666666666666
-1.02,-0.595,8394.444444444445
-1.005,-0.58,8397.222222222223
-1.015,-0.58,8400.0
-0.99,-0.57,8402.777777777777
-0.985,-0.545,8405.555555555555
-0.965,-0.555,8408.333333333334
-0.96,-0.545,8411.111111111111
-0.96,-0.545,8413.888888888889
-0.96,-0.555,8416.666666666666
-0.95,-0.565,8419.444444444445
-0.935,-0.58,8422.222222222223
-0.92,-0.6,8425.0
-0.91,-0.59,8427.777777777777
-0.9,-0.565,8430.555555555555
-0.895,-0.565,8433.333333333334
-0.87,-0.53,8436.111111111111
-0.87,-0.51,8438.888888888889
-0.865,-0.525,8441.666666666666
-0.85,-0.53,8444.444444444445
-0.87,-0.55,8447.222222222223
-0.865,-0.56,8450.0
-0.84,-0.565,8452.777777777777
-0.83,-0.57,8455.555555555555
-0.81,-0.555,8458.333333333334
-0.8,-0.55,8461.111111111111
-0.775,-0.53,8463.888888888889
-0.74,-0.505,8466.666666666666
-0.705,-0.49,8469.444444444445
-0.68,-0.49,8472.222222222223
-0.665,-0.465,8475.0
-0.645,-0.48,8477.777777777777
-0.635,-0.505,8480.555555555555
-0.615,-0.485,8483.333333333334
-0.61,-0.495,8486.111111111111
-0.58,-0.485,8488.888888888889
-0.55,-0.48,8491.666666666666
-0.515,-0.465,8494.444444444445
-0.49,-0.46,8497.222222222223
-0.45,-0.455,8500.0
-0.43,-0.445,8502.777777777777
-0.375,-0.44,8505.555555555555
-0.34,-0.445,8508.333333333334
-0.32,-0.44,8511.111111111111
-0.305,-0.46,8513.888888888889
-0.29,-0.48,8516.666666666666
-0.29,-0.485,8519.444444444445
-0.265,-0.465,8522.222222222223
-0.255,-0.46,8525.0
-0.245,-0.425,8527.777777777777
-0.225,-0.425,8530.555555555555
-0.215,-0.41,8533.333333333334
-0.18,-0.39,8536.111111111111
-0.165,-0.395,8538.888888888889
-0.165,-0.435,8541.666666666666
-0.185,-0.445,8544.444444444445
-0.2,-0.46,8547.222222222223
-0.235,-0.485,8550.0
-0.255,-0.49,8552.777777777777
-0.29,-0.495,8555.555555555555
-0.33,-0.5,8558.333333333334
-0.39,-0.51,8561.111111111111
-0.42,-0.5,8563.888888888889
-0.455,-0.48,8566.666666666666
-0.5,-0.49,8569.444444444445
-0.54,-0.49,8572.222222222223
-0.585,-0.515,8575.0
-0.625,-0.54,8577.777777777777
-0.685,-0.575,8580.555555555555
-0.74,-0.59,8583.333333333334
-0.755,-0.615,8586.111111111111
-0.805,-0.615,8588.888888888889
-0.82,-0.61,8591.666666666666
-0.84,-0.58,8594.444444444445
-0.87,-0.585,8597.222222222223
-0.885,-0.605,8600.0
-0.91,-0.615,8602.777777777777
-0.925,-0.63,8605.555555555555
-0.95,-0.655,8608.333333333334
-0.975,-0.66,8611.111111111111
-0.99,-0.665,8613.888888888889
-1.025,-0.645,8616.666666666666
-1.025,-0.645,8619.444444444445
-1.015,-0.645,8622.222222222223
-1.04,-0.65,8625.0
-1.035,-0.64,8627.777777777777
-1.005,-0.625,8630.555555555555
-0.99,-0.63,8633.333333333334
-0.98,-0.62,8636.111111111111
-0.98,-0.62,8638.888888888889
-0.97,-0.62,8641.666666666666
-0.99,-0.635,8644.444444444445
-0.985,-0.645,8647.222222222223
-1.005,-0.655,8650.0
-1.01,-0.67,8652.777777777777
-1.02,-0.665,8655.555555555555
-1.01,-0.65,8658.333333333334
-1.025,-0.625,8661.111111111111
-1.01,-0.605,8663.888888888889
-1.025,-0.61,8666.666666666666
-1.01,-0.605,8669.444444444445
-1.01,-0.625,8672.222222222223
-1.01,-0.62,8675.0
-1.015,-0.635,8677.777777777777
-1.01,-0.64,8680.555555555555
-1.005,-0.635,8683.333333333334
-0.995,-0.64,8686.111111111111
-1.0,-0.62,8688.888888888889
-1.0,-0.61,8691.666666666666
-0.975,-0.625,8694.444444444445
-0.98,-0.625,8697.222222222223
-0.97,-0.625,8700.0
-0.96,-0.64,8702.777777777777
-0.97,-0.64,8705.555555555555
-0.98,-0.645,8708.333333333334
-0.99,-0.655,8711.111111111111
-1.02,-0.65,8713.888888888889
-1.015,-0.64,8716.666666666666
-1.01,-0.625,8719.444444444445
-1.01,-0.625,8722.222222222223
-1.015,-0.62,8725.0
-1.025,-0.64,8727.777777777777
-1.01,-0.625,8730.555555555555
-1.01,-0.62,8733.333333333334
-0.99,-0.625,8736.111111111111
-0.97,-0.63,8738.888888888889
-0.98,-0.65,8741.666666666666
-0.98,-0.645,8744.444444444445
-1.005,-0.675,8747.222222222223
-1.015,-0.69,8750.0
-1.03,-0.665,8752.777777777777
-1.035,-0.68,8755.555555555555
-1.03,-0.665,8758.333333333334
-1.015,-0.65,8761.111111111111
-1.01,-0.64,8763.888888888889
-1.0,-0.63,8766.666666666666
-0.99,-0.625,8769.444444444445
-1.01,-0.64,8772.222222222223
-1.035,-0.65,8775.0
-1.06,-0.685,8777.777777777777
-1.06,-0.685,8780.555555555555
-1.05,-0.695,8783.333333333334
-1.055,-0.68,8786.111111111111
-1.05,-0.68,8788.888888888889
-1.03,-0.67,8791.666666666666
-1.04,-0.655,8794.444444444445
-1.05,-0.655,8797.222222222223
-1.035,-0.655,8800.0
-1.04,-0.64,8802.777777777777
-1.03,-0.635,8805.555555555555
-1.02,-0.625,8808.333333333334
-1.025,-0.65,8811.111111111111
-1.05,-0.66,8813.888888888889
-1.06,-0.675,8816.666666666666
-1.055,-0.685,8819.444444444445
-1.06,-0.69,8822.222222222223
-1.05,-0.715,8825.0
-1.045,-0.675,8827.777777777777
-1.045,-0.7,8830.555555555555
-1.05,-0.675,8833.333333333334
-1.04,-0.665,8836.111111111111
-1.045,-0.66,8838.888888888889
-1.07,-0.64,8841.666666666666
-1.07,-0.645,8844.444444444445
-1.075,-0.66,8847.222222222223
-1.08,-0.675,8850.0
-1.09,-0.69,8852.777777777777
-1.085,-0.685,8855.555555555555
-1.08,-0.675,8858.333333333334
-1.065,-0.645,8861.111111111111
-1.05,-0.62,8863.888888888889
-1.025,-0.6,8866.666666666666
-0.985,-0.58,8869.444444444445
-0.95,-0.605,8872.222222222223
-0.94,-0.6,8875.0
-0.925,-0.635,8877.777777777777
-0.915,-0.63,8880.555555555555
-0.93,-0.645,8883.333333333334
-0.925,-0.65,8886.111111111111
-0.93,-0.63,8888.888888888889
-0.94,-0.625,8891.666666666666
-0.95,-0.635,8894.444444444445
-0.945,-0.61,8897.222222222223
-0.935,-0.615,8900.0
-0.92,-0.595,8902.777777777777
-0.895,-0.595,8905.555555555555
-0.855,-0.62,8908.333333333334
-0.85,-0.64,8911.111111111111
-0.835,-0.64,8913.888888888889
-0.84,-0.645,8916.666666666666
-0.86,-0.645,8919.444444444445
-0.875,-0.65,8922.222222222223
-0.885,-0.67,8925.0
-0.89,-0.65,8927.777777777777
-0.89,-0.655,8930.555555555555
-0.91,-0.645,8933.333333333334
-0.915,-0.665,8936.111111111111
-0.925,-0.67,8938.888888888889
-0.93,-0.68,8941.666666666666
-0.94,-0.68,8944.444444444445
-0.965,-0.685,8947.222222222223
-0.985,-0.66,8950.0
-1.0,-0.67,8952.777777777777
-1.035,-0.69,8955.555555555555
-1.07,-0.69,8958.333333333334
-1.085,-0.71,8961.111111111111
-1.1,-0.72,8963.888888888889
-1.1,-0.695,8966.666666666666
-1.095,-0.68,8969.444444444445
-1.11,-0.665,8972.222222222223
-1.105,-0.67,8975.0
-1.125,-0.685,8977.777777777777
-1.13,-0.69,8980.555555555555
-1.12,-0.7,8983.333333333334
-1.125,-0.7,8986.111111111111
-1.115,-0.7,8988.888888888889
-1.125,-0.7,8991.666666666666
-1.105,-0.69,8994.444444444445
-1.1,-0.67,8997.222222222223
-1.09,-0.665,9000.0
-1.085,-0.65,9002.777777777777
-1.07,-0.66,9005.555555555555
-1.075,-0.67,9008.333333333334
-1.08,-0.695,9011.111111111111
-1.05,-0.75,9013.888888888889
-0.995,-0.83,9016.666666666666
-0.88,-0.955,9019.444444444445
-0.695,-1.065,9022.222222222223
-0.41,-1.19,9025.0
-0.04,-1.305,9027.777777777777
0.435,-1.39,9030.555555555555
0.955,-1.47,9033.333333333334
1.49,-1.51,9036.111111111111
1.965,-1.49,9038.888888888889
2.31,-1.425,9041.666666666666
2.475,-1.31,9044.444444444445
2.4,-1.18,9047.222222222223
2.015,-1.065,9050.0
1.375,-1.0,9052.777777777777
0.735,-0.95,9055.555555555555
0.095,-0.935,9058.333333333334
-0.545,-0.895,9061.111111111111
-1.185,-0.845,9063.888888888889
-1.805,-0.78,9066.666666666666
-1.53,-0.735,9069.444444444445
-1.155,-0.695,9072.222222222223
-0.845,-0.66,9075.0
-0.69,-0.65,9077.777777777777
-0.685,-0.665,9080.555555555555
-0.775,-0.68,9083.333333333334
-0.91,-0.685,9086.111111111111
-1.01,-0.72,9088.888888888889
-1.085,-0.715,9091.666666666666
-1.11,-0.695,9094.444444444445
-1.105,-0.66,9097.222222222223
-1.085,-0.66,9100.0
-1.065,-0.615,9102.777777777777
-1.035,-0.605,9105.555555555555
-1.055,-0.64,9108.333333333334
-1.05,-0.645,9111.111111111111
-1.055,-0.675,9113.888888888889
-1.055,-0.685,9116.666666666666
-1.05,-0.695,9119.444444444445
-1.06,-0.68,9122.222222222223
-1.045,-0.66,9125.0
-1.055,-0.645,9127.777777777777
-1.05,-0.63,9130.555555555555
-1.025,-0.625,9133.333333333334
-1.01,-0.63,9136.111111111111
-1.015,-0.625,9138.888888888889
-1.005,-0.615,9141.666666666666
-0.985,-0.625,9144.444444444445
-0.98,-0.63,9147.222222222223
-0.98,-0.64,9150.0
-0.98,-0.65,9152.777777777777
-0.975,-0.66,9155.555555555555
-0.965,-0.645,9158.333333333334
-0.965,-0.61,9161.111111111111
-0.935,-0.575,9163.888888888889
-0.905,-0.555,9166.666666666666
-0.895,-0.55,9169.444444444445
-0.885,-0.555,9172.222222222223
-0.865,-0.585,9175.0
-0.87,-0.63,9177.777777777777
-0.85,-0.64,9180.555555555555
-0.865,-0.635,9183.333333333334
-0.875,-0.64,9186.111111111111
-0.86,-0.61,9188.888888888889
-0.855,-0.615,9191.666666666666
-0.84,-0.57,9194.444444444445
-0.82,-0.56,9197.222222222223
-0.8,-0.555,9200.0
-0.775,-0.565,9202.777777777777
-0.74,-0.565,9205.555555555555
-0.715,-0.55,9208.333333333334
-0.685,-0.55,9211.111111111111
-0.675,-0.54,9213.888888888889
-0.64,-0.545,9216.666666666666
-0.63,-0.55,9219.444444444445
-0.605,-0.545,9222.222222222223
-0.575,-0.54,9225.0
-0.555,-0.52,9227.777777777777
-0.52,-0.52,9230.555555555555
-0.475,-0.525,9233.333333333334
-0.455,-0.51,9236.111111111111
-0.425,-0.5,9238.888888888889
-0.415,-0.485,9241.666666666666
-0.405,-0.47,9244.444444444445
-0.39,-0.475,9247.222222222223
-0.37,-0.475,9250.0
-0.335,-0.485,9252.777777777777
-0.31,-0.5,9255.555555555555
-0.3,-0.495,9258.333333333334
-0.27,-0.495,9261.111111111111
-0.24,-0.485,9263.888888888889
-0.22,-0.475,9266.666666666666
-0.2,-0.48,9269.444444444445
-0.185,-0.48,9272.222222222223
-0.19,-0.5,9275.0
-0.195,-0.505,9277.777777777777
-0.195,-0.51,9280.555555555555
-0.215,-0.495,9283.333333333334
-0.235,-0.505,9286.111111111111
-0.25,-0.5,9288.888888888889
-0.285,-0.5,9291.666666666666
-0.305,-0.515,9294.444444444445
-0.34,-0.53,9297.222222222223
-0.355,-0.545,9300.0
-0.385,-0.56,9302.777777777777
-0.43,-0.57,9305.555555555555
-0.47,-0.6,9308.333333333334
-0.52,-0.61,9311.111111111111
-0.57,-0.625,9313.888888888889
-0.605,-0.62,9316.666666666666
-0.66,-0.63,9319.444444444445
-0.705,-0.65,9322.222222222223
-0.745,-0.665,9325.0
-0.78,-0.65,9327.777777777777
-0.815,-0.645,9330.555555555555
-0.845,-0.635,9333.333333333334
-0.86,-0.615,9336.111111111111
-0.88,-0.62,9338.888888888889
-0.9,-0.64,9341.666666666666
-0.925,-0.665,9344.444444444445
-0.945,-0.7,9347.222222222223
-0.965,-0.715,9350.0
-0.97,-0.725,9352.777777777777
-0.975,-0.72,9355.555555555555
-0.995,-0.695,9358.333333333334
-0.99,-0.67,9361.111111111111
-0.98,-0.67,9363.888888888889
-0.99,-0.665,9366.666666666666
-0.985,-0.66,9369.444444444445
-0.98,-0.685,9372.222222222223
-0.985,-0.69,9375.0
-0.995,-0.71,9377.777777777777
-1.025,-0.705,9380.555555555555
-1.04,-0.71,9383.333333333334
-1.04,-0.68,9386.111111111111
-1.035,-0.68,9388.888888888889
-1.035,-0.67,9391.666666666666
-1.05,-0.675,9394.444444444445
-1.06,-0.68,9397.222222222223
-1.03,-0.705,9400.0
-1.01,-0.695,9402.777777777777
-1.01,-0.7,9405.555555555555
-1.005,-0.69,9408.333333333334
-1.01,-0.675,9411.111111111111
-1.01,-0.665,9413.888888888889
-1.015,-0.69,9416.666666666666
-1.005,-0.695,9419.444444444445
-1.005,-0.71,9422.222222222223
-1.005,-0.71,9425.0
-1.01,-0.71,9427.777777777777
-0.995,-0.69,9430.555555555555
-1.005,-0.66,9433.333333333334
-0.995,-0.655,9436.111111111111
-0.995,-0.655,9438.888888888889
-1.015,-0.68,9441.666666666666
-1.0,-0.685,9444.444444444445
-1.005,-0.7,9447.222222222223
-1.015,-0.72,9450.0
-1.025,-0.69,9452.777777777777
-1.02,-0.67,9455.555555555555
-1.01,-0.665,9458.333333333334
-0.995,-0.66,9461.111111111111
-0.995,-0.655,9463.888888888889
-1.0,-0.665,9466.666666666666
-0.99,-0.665,9469.444444444445
-0.98,-0.695,9472.222222222223
-0.995,-0.72,9475.0
-1.005,-0.71,9477.777777777777
-1.02,-0.73,9480.555555555555
-1.02,-0.745,9483.333333333334
-1.03,-0.735,9486.111111111111
-1.045,-0.73,9488.888888888889
-1.045,-0.685,9491.666666666666
-1.06,-0.665,9494.444444444445
-1.05,-0.68,9497.222222222223
-1.07,-0.66,9500.0
-1.06,-0.64,9502.777777777777
-1.04,-0.66,9505.555555555555
-1.055,-0.67,9508.333333333334
-1.06,-0.695,9511.111111111111
-1.055,-0.72,9513.888888888889
-1.075,-0.725,9516.666666666666
-1.085,-0.725,9519.444444444445
-1.095,-0.715,9522.222222222223
-1.105,-0.7,9525.0
-1.115,-0.695,9527.777777777777
-1.105,-0.695,9530.555555555555
-1.105,-0.68,9533.333333333334
-1.1,-0.68,9536.111111111111
-1.09,-0.675,9538.888888888889
-1.115,-0.695,9541.666666666666
-1.125,-0.7,9544.444444444445
-1.13,-0.695,9547.222222222223
-1.135,-0.7,9550.0
-1.145,-0.7,9552.777777777777
-1.14,-0.71,9555.555555555555
-1.12,-0.715,9558.333333333334
-1.115,-0.695,9561.111111111111
-1.1,-0.705,9563.888888888889
-1.11,-0.695,9566.666666666666
-1.125,-0.68,9569.444444444445
-1.12,-0.675,9572.222222222223
-1.12,-0.67,9575.0
-1.125,-0.665,9577.777777777777
-1.125,-0.68,9580.555555555555
-1.15,-0.695,9583.333333333334
-1.155,-0.69,9586.111111111111
-1.18,-0.68,9588.888888888889
-1.18,-0.71,9591.666666666666
-1.17,-0.7,9594.444444444445
-1.145,-0.7,9597.222222222223
-1.135,-0.68,9600.0
-1.125,-0.675,9602.777777777777
-1.125,-0.655,9605.555555555555
-1.105,-0.655,9608.333333333334
-1.115,-0.655,9611.111111111111
-1.11,-0.67,9613.888888888889
-1.1,-0.655,9616.666666666666
-1.1,-0.665,9619.444444444445
-1.07,-0.655,9622.222222222223
-1.06,-0.675,9625.0
-1.05,-0.655,9627.777777777777
-1.045,-0.63,9630.555555555555
-1.045,-0.63,9633.333333333334
-1.035,-0.605,9636.111111111111
-1.05,-0.615,9638.888888888889
-1.04,-0.635,9641.666666666666
-1.055,-0.65,9644.444444444445
-1.04,-0.67,9647.222222222223
-1.04,-0.68,9650.0
-1.025,-0.68,9652.777777777777
-1.005,-0.695,9655.555555555555
-1.0,-0.685,9658.333333333334
-0.985,-0.675,9661.111111111111
-0.965,-0.66,9663.888888888889
-0.94,-0.67,9666.666666666666
-0.935,-0.66,9669.444444444445
-0.93,-0.655,9672.222222222223
-0.955,-0.665,9675.0
-0.955,-0.655,9677.777777777777
-0.975,-0.66,9680.555555555555
-1.005,-0.655,9683.333333333334
-1.015,-0.67,9686.111111111111
-1.035,-0.69,9688.888888888889
-1.05,-0.71,9691.666666666666
-1.055,-0.71,9694.444444444445
-1.045,-0.7,9697.222222222223
-1.06,-0.7,9700.0
-1.08,-0.68,9702.777777777777
-1.085,-0.67,9705.555555555555
-1.125,-0.7,9708.333333333334
-1.16,-0.72,9711.111111111111
-1.205,-0.75,9713.888888888889
-1.235,-0.76,9716.666666666666
-1.255,-0.76,9719.444444444445
-1.265,-0.735,9722.222222222223
-1.27,-0.71,9725.0
-1.245,-0.69,9727.777777777777
-1.22,-0.685,9730.555555555555
-1.205,-0.7,9733.333333333334
-1.19,-0.7,9736.111111111111
-1.195,-0.715,9738.888888888889
-1.185,-0.725,9741.666666666666
-1.17,-0.715,9744.444444444445
-1.17,-0.735,9747.222222222223
-1.16,-0.705,9750.0
-1.18,-0.71,9752.777777777777
-1.18,-0.695,9755.555555555555
-1.195,-0.69,9758.333333333334
-1.195,-0.69,9761.111111111111
-1.22,-0.7,9763.888888888889
-1.2,-0.74,9766.666666666666
-1.175,-0.78,9769.444444444445
-1.11,-0.845,9772.222222222223
-0.975,-0.93,9775.0
-0.805,-1.045,9777.777777777777
-0.55,-1.14,9780.555555555555
-0.23,-1.23,9783.333333333334
0.145,-1.34,9786.111111111111
0.6,-1.405,9788.888888888889
1.07,-1.475,9791.666666666666
1.57,-1.535,9794.444444444445
2.0,-1.525,9797.222222222223
2.31,-1.485,9800.0
2.485,-1.39,9802.777777777777
2.51,-1.275,9805.555555555555
2.345,-1.12,9808.333333333334
1.93,-1.03,9811.111111111111
1.29,-0.985,9813.888888888889
0.65,-0.95,9816.666666666666
0.01,-0.935,9819.444444444445
-0.63,-0.9,9822.222222222223
-1.27,-0.845,9825.0
-1.73,-0.78,9827.777777777777
-1.455,-0.705,9830.555555555555
-1.155,-0.67,9833.333333333334
-0.935,-0.645,9836.111111111111
-0.855,-0.63,9838.888888888889
-0.885,-0.67,9841.666666666666
-0.985,-0.685,9844.444444444445
-1.1,-0.705,9847.222222222223
-1.185,-0.7,9850.0
-1.22,-0.725,9852.777777777777
-1.215,-0.695,9855.555555555555
-1.215,-0.675,9858.333333333334
-1.18,-0.67,9861.111111111111
-1.165,-0.655,9863.888888888889
-1.145,-0.65,9866.666666666666
-1.145,-0.61,9869.444444444445
-1.145,-0.625,9872.222222222223
-1.16,-0.635,9875.0
-1.16,-0.635,9877.777777777777
-1.16,-0.665,9880.555555555555
-1.17,-0.65,9883.333333333334
-1.165,-0.655,9886.111111111111
-1.175,-0.64,9888.888888888889
-1.165,-0.625,9891.666666666666
-1.16,-0.62,9894.444444444445
-1.135,-0.615,9897.222222222223
-1.12,-0.61,9900.0
-1.1,-0.595,9902.777777777777
-1.085,-0.6,9905.555555555555
-1.08,-0.62,9908.333333333334
-1.075,-0.635,9911.111111111111
-1.09,-0.635,9913.888888888889
-1.085,-0.65,9916.666666666666
-1.085,-0.645,9919.444444444445
-1.075,-0.65,9922.222222222223
-1.065,-0.635,9925.0
-1.085,-0.625,9927.777777777777
-1.065,-0.595,9930.555555555555
-1.065,-0.605,9933.333333333334
-1.035,-0.595,9936.111111111111
-1.01,-0.6,9938.888888888889
-0.985,-0.605,9941.666666666666
-0.965,-0.605,9944.444444444445
-0.945,-0.615,9947.222222222223
-0.93,-0.605,9950.0
-0.93,-0.605,9952.777777777777
-0.925,-0.61,9955.555555555555
-0.915,-0.6,9958.333333333334
-0.91,-0.6,9961.111111111111
-0.88,-0.605,9963.888888888889
-0.86,-0.6,9966.666666666666
-0.82,-0.6,9969.444444444445
-0.795,-0.585,9972.222222222223
-0.775,-0.57,9975.0
-0.76,-0.565,9977.777777777777
-0.745,-0.56,9980.555555555555
-0.73,-0.56,9983.333333333334
-0.725,-0.545,9986.111111111111
-0.715,-0.535,9988.888888888889
-0.675,-0.535,9991.666666666666
-0.635,-0.525,9994.444444444445
-0.605,-0.505,9997.222222222223
-0.56,-0.52,10000.0
-0.535,-0.505,10002.777777777777
-0.49,-0.51,10005.555555555555
-0.47,-0.49,10008.333333333334
-0.47,-0.505,10011.111111111111
-0.46,-0.505,10013.888888888889
-0.465,-0.515,10016.666666666666
-0.46,-0.52,10019.444444444445
-0.445,-0.52,10022.222222222223
-0.43,-0.525,10025.0
-0.42,-0.52,10027.777777777777
-0.405,-0.52,10030.555555555555
-0.405,-0.51,10033.333333333334
-0.4,-0.52,10036.111111111111
-0.39,-0.52,10038.888888888889
-0.4,-0.53,10041.666666666666
-0.42,-0.53,10044.444444444445
-0.445,-0.56,10047.222222222223
-0.47,-0.575,10050.0
-0.515,-0.58,10052.777777777777
-0.575,-0.585,10055.555555555555
-0.605,-0.59,10058.333333333334
-0.665,-0.605,10061.111111111111
-0.7,-0.595,10063.888888888889
-0.74,-0.63,10066.666666666666
-0.79,-0.6,10069.444444444445
-0.815,-0.605,10072.222222222223
-0.865,-0.62,10075.0
-0.905,-0.63,10077.777777777777
-0.94,-0.64,10080.555555555555
-0.98,-0.65,10083.333333333334
-1.015,-0.665,10086.111111111111
-1.045,-0.665,10088.888888888889
-1.07,-0.68,10091.666666666666
-1.09,-0.67,10094.444444444445
-1.09,-0.685,10097.222222222223
-1.095,-0.68,10100.0
-1.12,-0.67,10102.777777777777
-1.105,-0.665,10105.555555555555
-1.13,-0.66,10108.333333333334
-1.135,-0.66,10111.111111111111
-1.135,-0.665,10113.888888888889
-1.16,-0.665,10116.666666666666
-1.16,-0.675,10119.444444444445
-1.17,-0.69,10122.222222222223
-1.165,-0.685,10125.0
-1.165,-0.695,10127.777777777777
-1.165,-0.685,10130.555555555555
-1.135,-0.67,10133.333333333334
-1.125,-0.665,10136.111111111111
-1.105,-0.67,10138.888888888889
-1.12,-0.66,10141.666666666666
-1.115,-0.66,10144.444444444445
-1.12,-0.67,10147.222222222223
-1.145,-0.685,10150.0
-1.135,-0.68,10152.777777777777
-1.135,-0.685,10155.555555555555
-1.13,-0.69,10158.333333333334
-1.14,-0.675,10161.111111111111
-1.125,-0.655,10163.888888888889
-1.11,-0.64,10166.666666666666
-1.105,-0.635,10169.444444444445
-1.085,-0.635,10172.222222222223
-1.075,-0.645,10175.0
-1.085,-0.65,10177.777777777777
-1.09,-0.67,10180.555555555555
-1.105,-0.69,10183.333333333334
-1.125,-0.695,10186.111111111111
-1.12,-0.72,10188.888888888889
-1.115,-0.705,10191.666666666666
-1.125,-0.7,10194.444444444445
-1.13,-0.69,10197.222222222223
-1.12,-0.68,10200.0
-1.12,-0.67,10202.777777777777
-1.095,-0.675,10205.555555555555
-1.09,-0.69,10208.333333333334
-1.09,-0.69,10211.111111111111
-1.1,-0.675,10213.888888888889
-1.11,-0.685,10216.666666666666
-1.12,-0.695,10219.444444444445
-1.13,-0.675,10222.222222222223
-1.135,-0.68,10225.0
-1.14,-0.695,10227.777777777777
-1.13,-0.685,10230.555555555555
-1.145,-0.69,10233.333333333334
-1.15,-0.675,10236.111111111111
-1.155,-0.69,10238.888888888889
-1.155,-0.685,10241.666666666666
-1.155,-0.69,10244.444444444445
-1.165,-0.69,10247.222222222223
-1.165,-0.7,10250.0
-1.17,-0.705,10252.777777777777
-1.19,-0.7,10255.555555555555
-1.175,-0.71,10258.333333333334
-1.18,-0.68,10261.111111111111
-1.16,-0.705,10263.888888888889
-1.165,-0.695,10266.666666666666
-1.165,-0.705,10269.444444444445
-1.155,-0.685,10272.222222222223
-1.15,-0.68,10275.0
-1.165,-0.68,10277.777777777777
-1.185,-0.71,10280.555555555555
-1.185,-0.71,10283.333333333334
-1.195,-0.715,10286.111111111111
-1.205,-0.71,10288.888888888889
-1.19,-0.725,10291.666666666666
-1.195,-0.725,10294.444444444445
-1.18,-0.73,10297.222222222223
-1.185,-0.7,10300.0
-1.17,-0.68,10302.777777777777
-1.18,-0.66,10305.555555555555
-1.195,-0.68,10308.333333333334
-1.195,-0.675,10311.111111111111
-1.2,-0.695,10313.888888888889
-1.195,-0.715,10316.666666666666
-1.21,-0.715,10319.444444444445
-1.205,-0.7,10322.222222222223
-1.22,-0.68,10325.0
-1.215,-0.69,10327.777777777777
-1.205,-0.675,10330.555555555555
-1.2,-0.685,10333.333333333334
-1.19,-0.675,10336.111111111111
-1.17,-0.69,10338.888888888889
-1.18,-0.675,10341.666666666666
-1.185,-0.665,10344.444444444445
-1.19,-0.685,10347.222222222223
-1.2,-0.69,10350.0
-1.235,-0.675,10352.777777777777
-1.21,-0.68,10355.555555555555
-1.2,-0.675,10358.333333333334
-1.18,-0.675,10361.111111111111
-1.165,-0.655,10363.888888888889
-1.14,-0.665,10366.666666666666
-1.11,-0.655,10369.444444444445
-1.095,-0.65,10372.222222222223
-1.095,-0.64,10375.0
-1.1,-0.63,10377.777777777777
-1.105,-0.65,10380.555555555555
-1.1,-0.665,10383.333333333334
-1.115,-0.67,10386.111111111111
-1.105,-0.67,10388.888888888889
-1.115,-0.66,10391.666666666666
-1.095,-0.65,10394.444444444445
-1.08,-0.64,10397.222222222223
-1.055,-0.63,10400.0
-1.035,-0.62,10402.777777777777
-1.005,-0.63,10405.555555555555
-0.99,-0.655,10408.333333333334
-0.985,-0.685,10411.111111111111
-1.0,-0.705,10413.888888888889
-1.025,-0.72,10416.666666666666
-1.04,-0.71,10419.444444444445
-1.055,-0.7,10422.222222222223
-1.06,-0.685,10425.0
-1.055,-0.685,10427.777777777777
-1.055,-0.7,10430.555555555555
-1.05,-0.695,10433.333333333334
-1.05,-0.7,10436.111111111111
-1.07,-0.7,10438.888888888889
-1.075,-0.695,10441.666666666666
-1.1,-0.695,10444.444444444445
-1.125,-0.695,10447.222222222223
-1.155,-0.71,10450.0
-1.18,-0.72,10452.777777777777
-1.195,-0.73,10455.555555555555
-1.215,-0.76,10458.333333333334
-1.235,-0.765,10461.111111111111
-1.255,-0.745,10463.888888888889
-1.27,-0.72,10466.666666666666
-1.265,-0.695,10469.444444444445
-1.26,-0.7,10472.222222222223
-1.245,-0.7,10475.0
-1.215,-0.72,10477.777777777777
-1.205,-0.73,10480.555555555555
-1.225,-0.735,10483.333333333334
-1.235,-0.715,10486.111111111111
-1.225,-0.71,10488.888888888889
-1.235,-0.695,10491.666666666666
-1.225,-0.685,10494.444444444445
-1.22,-0.685,10497.222222222223
-1.24,-0.675,10500.0
-1.245,-0.69,10502.777777777777
-1.23,-0.71,10505.555555555555
-1.21,-0.715,10508.333333333334
-1.16,-0.75,10511.111111111111
-1.08,-0.83,10513.888888888889
-0.97,-0.885,10516.666666666666
-0.815,-0.995,10519.444444444445
-0.615,-1.075,10522.222222222223
-0.35,-1.17,10525.0
0.005,-1.275,10527.777777777777
0.395,-1.305,10530.555555555555
0.83,-1.375,10533.333333333334
1.31,-1.405,10536.111111111111
1.755,-1.4,10538.888888888889
2.105,-1.385,10541.666666666666
2.295,-1.28,10544.444444444445
2.315,-1.19,10547.222222222223
2.09,-1.075,10550.0
1.61,-1.005,10552.777777777777
0.97,-0.96,10555.555555555555
0.33,-0.92,10558.333333333334
-0.31,-0.87,10561.111111111111
-0.95,-0.85,10563.888888888889
-1.59,-0.795,10566.666666666666
-1.675,-0.745,10569.444444444445
-1.4,-0.71,10572.222222222223
-1.12,-0.68,10575.0
-0.895,-0.67,10577.777777777777
-0.81,-0.67,10580.555555555555
-0.82,-0.68,10583.333333333334
-0.905,-0.68,10586.111111111111
-0.985,-0.68,10588.888888888889
-1.07,-0.665,10591.666666666666
-1.13,-0.665,10594.444444444445
-1.15,-0.66,10597.222222222223
-1.15,-0.63,10600.0
-1.125,-0.61,10602.777777777777
-1.125,-0.605,10605.555555555555
-1.095,-0.59,10608.333333333334
-1.09,-0.615,10611.111111111111
-1.1,-0.62,10613.888888888889
-1.11,-0.635,10616.666666666666
-1.12,-0.64,10619.444444444445
-1.11,-0.65,10622.222222222223
-1.115,-0.63,10625.0
-1.1,-0.62,10627.777777777777
-1.085,-0.61,10630.555555555555
-1.08,-0.595,10633.333333333334
-1.055,-0.6,10636.111111111111
-1.035,-0.605,10638.888888888889
-1.035,-0.61,10641.666666666666
-1.04,-0.605,10644.444444444445
-1.04,-0.62,10647.222222222223
-1.035,-0.63,10650.0
-1.035,-0.62,10652.777777777777
-1.03,-0.625,10655.555555555555
-1.03,-0.605,10658.333333333334
-1.02,-0.625,10661.111111111111
-1.005,-0.59,10663.888888888889
-0.995,-0.585,10666.666666666666
-0.975,-0.57,10669.444444444445
-0.955,-0.575,10672.222222222223
-0.935,-0.58,10675.0
-0.96,-0.585,10677.777777777777
-0.94,-0.6,10680.555555555555
-0.93,-0.6,10683.333333333334
-0.92,-0.61,10686.111111111111
-0.91,-0.6,10688.888888888889
-0.885,-0.595,10691.666666666666
-0.865,-0.575,10694.444444444445
-0.845,-0.56,10697.222222222223
-0.825,-0.565,10700.0
-0.805,-0.55,10702.777777777777
-0.76,-0.55,10705.555555555555
-0.765,-0.56,10708.333333333334
-0.75,-0.585,10711.111111111111
-0.745,-0.605,10713.888888888889
-0.72,-0.58,10716.666666666666
-0.74,-0.585,10719.444444444445
-0.72,-0.56,10722.222222222223
-0.7,-0.545,10725.0
-0.67,-0.535,10727.777777777777
-0.63,-0.525,10730.555555555555
-0.595,-0.525,10733.333333333334
-0.55,-0.515,10736.111111111111
-0.5,-0.51,10738.888888888889
-0.45,-0.515,10741.666666666666
-0.43,-0.525,10744.444444444445
-0.415,-0.52,10747.222222222223
-0.41,-0.51,10750.0
-0.415,-0.525,10752.777777777777
-0.4,-0.525,10755.555555555555
-0.395,-0.535,10758.333333333334
-0.385,-0.535,10761.111111111111
-0.355,-0.525,10763.888888888889
-0.34,-0.51,10766.666666666666
-0.34,-0.495,10769.444444444445
-0.32,-0.49,10772.222222222223
-0.305,-0.505,10775.0
-0.32,-0.49,10777.777777777777
-0.32,-0.515,10780.555555555555
-0.32,-0.535,10783.333333333334
-0.335,-0.545,10786.111111111111
-0.345,-0.545,10788.888888888889
-0.375,-0.555,10791.666666666666
-0.4,-0.555,10794.444444444445
-0.425,-0.56,10797.222222222223
-0.465,-0.555,10800.0
-0.495,-0.575,10802.777777777777
-0.535,-0.595,10805.555555555555
-0.575,-0.6,10808.333333333334
-0.625,-0.625,10811.111111111111
-0.675,-0.645,10813.888888888889
-0.725,-0.655,10816.666666666666
-0.77,-0.665,10819.444444444445
-0.8,-0.67,10822.222222222223
-0.855,-0.675,10825.0
-0.88,-0.67,10827.777777777777
-0.895,-0.665,10830.555555555555
-0.91,-0.665,10833.333333333334
-0.925,-0.65,10836.111111111111
-0.93,-0.66,10838.888888888889
-0.965,-0.635,10841.666666666666
-0.99,-0.645,10844.444444444445
-0.995,-0.665,10847.222222222223
-1.025,-0.68,10850.0
-1.03,-0.685,10852.777777777777
-1.05,-0.68,10855.555555555555
-1.055,-0.67,10858.333333333334
-1.075,-0.67,10861.111111111111
-1.07,-0.645,10863.888888888889
-1.07,-0.655,10866.666666666666
-1.05,-0.65,10869.444444444445
-1.03,-0.67,10872.222222222223
-1.04,-0.685,10875.0
-1.04,-0.705,10877.777777777777
-1.045,-0.7,10880.555555555555
-1.06,-0.715,10883.333333333334
-1.07,-0.715,10886.111111111111
-1.075,-0.7,10888.888888888889
-1.06,-0.715,10891.666666666666
-1.06,-0.695,10894.444444444445
-1.05,-0.69,10897.222222222223
-1.04,-0.675,10900.0
-1.03,-0.67,10902.777777777777
-1.025,-0.66,10905.555555555555
-1.015,-0.665,10908.333333333334
-1.02,-0.68,10911.111111111111
-1.04,-0.695,10913.888888888889
-1.035,-0.7,10916.666666666666
-1.035,-0.725,10919.444444444445
-1.035,-0.725,10922.222222222223
-1.05,-0.725,10925.0
-1.04,-0.715,10927.777777777777
-1.02,-0.705,10930.555555555555
-0.995,-0.68,10933.333333333334
-0.995,-0.66,10936.111111111111
-0.99,-0.665,10938.888888888889
-0.98,-0.685,10941.666666666666
-0.98,-0.695,10944.444444444445
-0.99,-0.72,10947.222222222223
-1.0,-0.73,10950.0
-1.015,-0.725,10952.777777777777
-1.03,-0.72,10955.555555555555
-1.045,-0.72,10958.333333333334
-1.045,-0.715,10961.111111111111
-1.055,-0.7,10963.888888888889
-1.05,-0.705,10966.666666666666
-1.04,-0.695,10969.444444444445
-1.02,-0.675,10972.222222222223
-1.025,-0.665,10975.0
-1.03,-0.69,10977.777777777777
-1.045,-0.715,10980.555555555555
-1.045,-0.73,10983.333333333334
-1.045,-0.755,10986.111111111111
-1.045,-0.75,10988.888888888889
-1.065,-0.76,10991.666666666666
-1.095,-0.74,10994.444444444445
-1.085,-0.76,10997.222222222223
-1.09,-0.74,11000.0
-1.065,-0.715,11002.777777777777
-1.055,-0.71,11005.555555555555
-1.055,-0.695,11008.333333333334
-1.08,-0.705,11011.111111111111
-1.06,-0.725,11013.888888888889
-1.065,-0.745,11016.666666666666
-1.085,-0.76,11019.444444444445
-1.1,-0.77,11022.222222222223
-1.11,-0.765,11025.0
-1.11,-0.74,11027.777777777777
-1.11,-0.73,11030.555555555555
-1.095,-0.695,11033.333333333334
-1.09,-0.68,11036.111111111111
-1.085,-0.68,11038.888888888889
-1.09,-0.675,11041.666666666666
-1.085,-0.69,11044.444444444445
-1.085,-0.71,11047.222222222223
-1.1,-0.72,11050.0
-1.12,-0.715,11052.777777777777
-1.125,-0.75,11055.555555555555
-1.135,-0.755,11058.333333333334
-1.13,-0.76,11061.111111111111
-1.115,-0.765,11063.888888888889
-1.095,-0.76,11066.666666666666
-1.095,-0.745,11069.444444444445
-1.085,-0.715,11072.222222222223
-1.08,-0.705,11075.0
-1.095,-0.725,11077.777777777777
-1.105,-0.74,11080.555555555555
-1.115,-0.765,11083.333333333334
-1.14,-0.77,11086.111111111111
-1.145,-0.755,11088.888888888889
-1.13,-0.76,11091.666666666666
-1.135,-0.74,11094.444444444445
-1.135,-0.725,11097.222222222223
-1.135,-0.71,11100.0
-1.115,-0.68,11102.777777777777
-1.085,-0.665,11105.555555555555
-1.075,-0.665,11108.333333333334
-1.045,-0.655,11111.111111111111
-1.035,-0.66,11113.888888888889
-1.03,-0.675,11116.666666666666
-1.025,-0.69,11119.444444444445
-1.01,-0.71,11122.222222222223
-1.015,-0.7,11125.0
-1.02,-0.705,11127.777777777777
-0.995,-0.685,11130.555555555555
-1.0,-0.66,11133.333333333334
-0.98,-0.67,11136.111111111111
