MLII,V2,time_ms
-0.925,-0.47,0.0
-0.925,-0.47,2.7777777777777777
-0.925,-0.47,5.555555555555555
-0.925,-0.47,8.333333333333334
-0.925,-0.47,11.11111111111111
-0.925,-0.47,13.88888888888889
-0.925,-0.47,16.666666666666668
-0.92,-0.47,19.444444444444443
-0.92,-0.47,22.22222222222222
-0.94,-0.485,25.0
-0.94,-0.49,27.77777777777778
-0.955,-0.51,30.555555555555557
-0.97,-0.515,33.333333333333336
-0.97,-0.515,36.111111111111114
-0.98,-0.515,38.888888888888886
-0.98,-0.505,41.666666666666664
-0.965,-0.5,44.44444444444444
-0.95,-0.505,47.22222222222222
-0.94,-0.48,50.0
-0.91,-0.475,52.77777777777778
-0.925,-0.505,55.55555555555556
-0.93,-0.5,58.333333333333336
-0.945,-0.53,61.111111111111114
-0.95,-0.51,63.888888888888886
-0.96,-0.53,66.66666666666667
-0.96,-0.535,69.44444444444444
-0.965,-0.515,72.22222222222223
-0.97,-0.525,75.0
-0.965,-0.51,77.77777777777777
-0.97,-0.505,80.55555555555556
-0.985,-0.495,83.33333333333333
-0.95,-0.5,86.11111111111111
-0.95,-0.525,88.88888888888889
-0.95,-0.505,91.66666666666667
-0.93,-0.525,94.44444444444444
-0.925,-0.54,97.22222222222223
-0.94,-0.535,100.0
-0.95,-0.545,102.77777777777777
-0.97,-0.54,105.55555555555556
-0.955,-0.54,108.33333333333333
-0.96,-0.515,111.11111111111111
-0.96,-0.505,113.88888888888889
-0.945,-0.505,116.66666666666667
-0.93,-0.51,119.44444444444444
-0.925,-0.505,122.22222222222223
-0.94,-0.52,125.0
-0.94,-0.525,127.77777777777777
-0.94,-0.525,130.55555555555554
-0.955,-0.545,133.33333333333334
-0.95,-0.545,136.11111111111111
-0.98,-0.55,138.88888888888889
-0.96,-0.53,141.66666666666666
-0.965,-0.53,144.44444444444446
-0.945,-0.51,147.22222222222223
-0.95,-0.515,150.0
-0.945,-0.5,152.77777777777777
-0.945,-0.51,155.55555555555554
-0.955,-0.525,158.33333333333334
-0.96,-0.53,161.11111111111111
-0.955,-0.53,163.88888888888889
-0.97,-0.545,166.66666666666666
-0.98,-0.555,169.44444444444446
-0.97,-0.54,172.22222222222223
-0.975,-0.52,175.0
-0.965,-0.525,177.77777777777777
-0.95,-0.515,180.55555555555554
-0.95,-0.515,183.33333333333334
-0.935,-0.51,186.11111111111111
-0.93,-0.515,188.88888888888889
-0.93,-0.525,191.66666666666666
-0.94,-0.535,194.44444444444446
-0.935,-0.55,197.22222222222223
-0.95,-0.57,200.0
-0.97,-0.555,202.77777777777777
-0.965,-0.56,205.55555555555554
-0.965,-0.555,208.33333333333334
-0.97,-0.53,211.11111111111111
-0.97,-0.52,213.88888888888889
-0.96,-0.52,216.66666666666666
-0.93,-0.52,219.44444444444446
-0.95,-0.53,222.22222222222223
-0.96,-0.525,225.0
-0.975,-0.545,227.77777777777777
-0.955,-0.535,230.55555555555554
-0.96,-0.565,233.33333333333334
-0.96,-0.56,236.11111111111111
-0.96,-0.56,238.88888888888889
-0.97,-0.55,241.66666666666666
-0.955,-0.535,244.44444444444446
-0.94,-0.52,247.22222222222223
-0.94,-0.525,250.0
-0.93,-0.525,252.77777777777777
-0.925,-0.51,255.55555555555554
-0.93,-0.53,258.3333333333333
-0.925,-0.535,261.1111111111111
-0.935,-0.555,263.8888888888889
-0.96,-0.58,266.6666666666667
-0.95,-0.56,269.44444444444446
-0.96,-0.575,272.22222222222223
-0.955,-0.57,275.0
-0.945,-0.535,277.77777777777777
-0.94,-0.555,280.55555555555554
-0.925,-0.55,283.3333333333333
-0.92,-0.52,286.1111111111111
-0.925,-0.55,288.8888888888889
-0.92,-0.535,291.6666666666667
-0.925,-0.555,294.44444444444446
-0.935,-0.555,297.22222222222223
-0.935,-0.57,300.0
-0.935,-0.565,302.77777777777777
-0.96,-0.57,305.55555555555554
-0.945,-0.545,308.3333333333333
-0.905,-0.55,311.1111111111111
-0.885,-0.54,313.8888888888889
-0.855,-0.525,316.6666666666667
-0.825,-0.51,319.44444444444446
-0.825,-0.53,322.22222222222223
-0.815,-0.535,325.0
-0.825,-0.535,327.77777777777777
-0.81,-0.55,330.55555555555554
-0.835,-0.555,333.3333333333333
-0.835,-0.53,336.1111111111111
-0.835,-0.515,338.8888888888889
-0.785,-0.495,341.6666666666667
-0.78,-0.48,344.44444444444446
-0.76,-0.45,347.22222222222223
-0.75,-0.435,350.0
-0.76,-0.415,352.77777777777777
-0.745,-0.4,355.55555555555554
-0.75,-0.39,358.3333333333333
-0.775,-0.39,361.1111111111111
-0.78,-0.365,363.8888888888889
-0.8,-0.36,366.6666666666667
-0.825,-0.355,369.44444444444446
-0.845,-0.36,372.22222222222223
-0.84,-0.36,375.0
-0.835,-0.355,377.77777777777777
-0.825,-0.35,380.55555555555554
-0.835,-0.345,383.3333333333333
-0.85,-0.345,386.1111111111111
-0.865,-0.375,388.8888888888889
-0.895,-0.38,391.6666666666667
-0.92,-0.415,394.44444444444446
-0.93,-0.43,397.22222222222223
-0.94,-0.47,400.0
-0.945,-0.49,402.77777777777777
-0.955,-0.495,405.55555555555554
-0.98,-0.49,408.3333333333333
-0.97,-0.505,411.1111111111111
-0.97,-0.5,413.8888888888889
-0.97,-0.475,416.6666666666667
-0.935,-0.485,419.44444444444446
-0.965,-0.48,422.22222222222223
-0.96,-0.51,425.0
-0.96,-0.515,427.77777777777777
-0.965,-0.545,430.55555555555554
-0.985,-0.545,433.3333333333333
-0.985,-0.555,436.1111111111111
-0.99,-0.55,438.8888888888889
-0.995,-0.54,441.6666666666667
-0.975,-0.53,444.44444444444446
-0.985,-0.52,447.22222222222223
-0.97,-0.52,450.0
-0.955,-0.51,452.77777777777777
-0.945,-0.535,455.55555555555554
-0.945,-0.535,458.3333333333333
-0.955,-0.55,461.1111111111111
-0.95,-0.565,463.8888888888889
-0.97,-0.56,466.6666666666667
-0.985,-0.585,469.44444444444446
-0.975,-0.575,472.22222222222223
-0.95,-0.545,475.0
-0.905,-0.55,477.77777777777777
-0.83,-0.535,480.55555555555554
-0.75,-0.5,483.3333333333333
-0.62,-0.425,486.1111111111111
-0.5,-0.285,488.8888888888889
-0.34,-0.095,491.6666666666667
-0.175,0.12,494.44444444444446
-0.035,0.37,497.22222222222223
0.03,0.625,500.0
0.01,0.89,502.77777777777777
-0.11,1.085,505.55555555555554
-0.33,1.19,508.3333333333333
-0.58,1.175,511.1111111111111
-0.865,1.005,513.8888888888889
-1.155,0.72,516.6666666666666
-1.415,0.38,519.4444444444445
-1.625,-0.06,522.2222222222222
-1.755,-0.425,525.0
-1.76,-0.725,527.7777777777778
-1.68,-0.865,530.5555555555555
-1.565,-0.86,533.3333333333334
-1.445,-0.785,536.1111111111111
-1.33,-0.68,538.8888888888889
-1.245,-0.585,541.6666666666666
-1.165,-0.53,544.4444444444445
-1.1,-0.515,547.2222222222222
-1.015,-0.495,550.0
-0.94,-0.485,552.7777777777778
-0.885,-0.475,555.5555555555555
-0.86,-0.49,558.3333333333334
-0.865,-0.49,561.1111111111111
-0.87,-0.49,563.8888888888889
-0.885,-0.49,566.6666666666666
-0.89,-0.505,569.4444444444445
-0.905,-0.5,572.2222222222222
-0.91,-0.49,575.0
-0.89,-0.485,577.7777777777778
-0.85,-0.475,580.5555555555555
-0.845,-0.45,583.3333333333334
-0.835,-0.46,586.1111111111111
-0.845,-0.45,588.8888888888889
-0.835,-0.465,591.6666666666666
-0.84,-0.47,594.4444444444445
-0.85,-0.485,597.2222222222222
-0.83,-0.49,600.0
-0.845,-0.495,602.7777777777778
-0.845,-0.485,605.5555555555555
-0.855,-0.475,608.3333333333334
-0.82,-0.455,611.1111111111111
-0.81,-0.435,613.8888888888889
-0.81,-0.435,616.6666666666666
-0.79,-0.44,619.4444444444445
-0.785,-0.435,622.2222222222222
-0.785,-0.445,625.0
-0.775,-0.435,627.7777777777778
-0.79,-0.45,630.5555555555555
-0.78,-0.445,633.3333333333334
-0.8,-0.445,636.1111111111111
-0.785,-0.435,638.8888888888889
-0.785,-0.45,641.6666666666666
-0.78,-0.42,644.4444444444445
-0.76,-0.41,647.2222222222222
-0.755,-0.39,650.0
-0.73,-0.395,652.7777777777778
-0.72,-0.385,655.5555555555555
-0.72,-0.4,658.3333333333334
-0.725,-0.415,661.1111111111111
-0.73,-0.405,663.8888888888889
-0.725,-0.415,666.6666666666666
-0.725,-0.4,669.4444444444445
-0.72,-0.405,672.2222222222222
-0.74,-0.38,675.0
-0.725,-0.365,677.7777777777778
-0.705,-0.35,680.5555555555555
-0.685,-0.335,683.3333333333334
-0.66,-0.335,686.1111111111111
-0.68,-0.315,688.8888888888889
-0.665,-0.305,691.6666666666666
-0.655,-0.325,694.4444444444445
-0.645,-0.325,697.2222222222222
-0.65,-0.325,700.0
-0.625,-0.3,702.7777777777778
-0.63,-0.29,705.5555555555555
-0.615,-0.265,708.3333333333334
-0.59,-0.24,711.1111111111111
-0.57,-0.215,713.8888888888889
-0.56,-0.175,716.6666666666666
-0.53,-0.18,719.4444444444445
-0.515,-0.16,722.2222222222222
-0.505,-0.14,725.0
-0.485,-0.14,727.7777777777778
-0.47,-0.135,730.5555555555555
-0.48,-0.135,733.3333333333334
-0.45,-0.12,736.1111111111111
-0.45,-0.085,738.8888888888889
-0.44,-0.065,741.6666666666666
-0.395,-0.035,744.4444444444445
-0.38,-0.01,747.2222222222222
-0.335,0.02,750.0
-0.305,0.055,752.7777777777778
-0.305,0.05,755.5555555555555
-0.29,0.07,758.3333333333334
-0.275,0.065,761.1111111111111
-0.275,0.09,763.8888888888889
-0.25,0.07,766.6666666666666
-0.255,0.08,769.4444444444445
-0.25,0.1,772.2222222222222
-0.24,0.125,775.0
-0.22,0.145,777.7777777777778
-0.2,0.165,780.5555555555555
-0.195,0.185,783.3333333333334
-0.175,0.185,786.1111111111111
-0.17,0.195,788.8888888888889
-0.17,0.185,791.6666666666666
-0.175,0.19,794.4444444444445
-0.18,0.175,797.2222222222222
-0.195,0.17,800.0
-0.195,0.165,802.7777777777778
-0.23,0.135,805.5555555555555
-0.235,0.125,808.3333333333334
-0.265,0.14,811.1111111111111
-0.265,0.125,813.8888888888889
-0.28,0.115,816.6666666666666
-0.3,0.075,819.4444444444445
-0.335,0.03,822.2222222222222
-0.36,0.0,825.0
-0.4,-0.035,827.7777777777778
-0.43,-0.085,830.5555555555555
-0.47,-0.125,833.3333333333334
-0.505,-0.17,836.1111111111111
-0.54,-0.2,838.8888888888889
-0.565,-0.225,841.6666666666666
-0.59,-0.25,844.4444444444445
-0.61,-0.28,847.2222222222222
-0.63,-0.3,850.0
-0.65,-0.325,852.7777777777778
-0.665,-0.37,855.5555555555555
-0.69,-0.4,858.3333333333334
-0.735,-0.43,861.1111111111111
-0.75,-0.45,863.8888888888889
-0.775,-0.485,866.6666666666666
-0.795,-0.495,869.4444444444445
-0.79,-0.495,872.2222222222222
-0.82,-0.525,875.0
-0.81,-0.49,877.7777777777778
-0.81,-0.51,880.5555555555555
-0.81,-0.5,883.3333333333334
-0.815,-0.515,886.1111111111111
-0.815,-0.515,888.8888888888889
-0.82,-0.55,891.6666666666666
-0.825,-0.545,894.4444444444445
-0.845,-0.555,897.2222222222222
-0.865,-0.57,900.0
-0.87,-0.56,902.7777777777778
-0.89,-0.565,905.5555555555555
-0.885,-0.565,908.3333333333334
-0.875,-0.545,911.1111111111111
-0.87,-0.55,913.8888888888889
-0.87,-0.545,916.6666666666666
-0.85,-0.545,919.4444444444445
-0.86,-0.545,922.2222222222222
-0.855,-0.55,925.0
-0.855,-0.57,927.7777777777778
-0.86,-0.575,930.5555555555555
-0.87,-0.57,933.3333333333334
-0.87,-0.58,936.1111111111111
-0.87,-0.575,938.8888888888889
-0.865,-0.57,941.6666666666666
-0.865,-0.565,944.4444444444445
-0.85,-0.54,947.2222222222222
-0.84,-0.525,950.0
-0.845,-0.525,952.7777777777778
-0.82,-0.53,955.5555555555555
-0.86,-0.52,958.3333333333334
-0.87,-0.555,961.1111111111111
-0.86,-0.555,963.8888888888889
-0.865,-0.555,966.6666666666666
-0.87,-0.55,969.4444444444445
-0.865,-0.55,972.2222222222222
-0.86,-0.535,975.0
-0.845,-0.53,977.7777777777778
-0.84,-0.53,980.5555555555555
-0.82,-0.505,983.3333333333334
-0.82,-0.505,986.1111111111111
-0.82,-0.52,988.8888888888889
-0.83,-0.51,991.6666666666666
-0.825,-0.53,994.4444444444445
-0.835,-0.53,997.2222222222222
-0.85,-0.545,1000.0
-0.87,-0.55,1002.7777777777778
-0.875,-0.56,1005.5555555555555
-0.875,-0.53,1008.3333333333334
-0.88,-0.535,1011.1111111111111
-0.875,-0.525,1013.8888888888889
-0.875,-0.525,1016.6666666666666
-0.865,-0.535,1019.4444444444445
-0.855,-0.525,1022.2222222222222
-0.855,-0.525,1025.0
-0.865,-0.545,1027.7777777777778
-0.88,-0.55,1030.5555555555557
-0.875,-0.56,1033.3333333333333
-0.89,-0.595,1036.111111111111
-0.895,-0.58,1038.888888888889
-0.9,-0.58,1041.6666666666667
-0.89,-0.57,1044.4444444444443
-0.895,-0.555,1047.2222222222222
-0.885,-0.55,1050.0
-0.885,-0.555,1052.7777777777778
-0.885,-0.555,1055.5555555555557
-0.89,-0.575,1058.3333333333333
-0.9,-0.595,1061.111111111111
-0.915,-0.6,1063.888888888889
-0.915,-0.62,1066.6666666666667
-0.92,-0.625,1069.4444444444443
-0.935,-0.61,1072.2222222222222
-0.92,-0.605,1075.0
-0.925,-0.595,1077.7777777777778
-0.905,-0.58,1080.5555555555557
-0.9,-0.59,1083.3333333333333
-0.895,-0.565,1086.111111111111
-0.905,-0.585,1088.888888888889
-0.915,-0.6,1091.6666666666667
-0.93,-0.605,1094.4444444444443
-0.93,-0.61,1097.2222222222222
-0.95,-0.61,1100.0
-0.945,-0.62,1102.7777777777778
-0.975,-0.625,1105.5555555555557
-0.955,-0.605,1108.3333333333333
-0.93,-0.61,1111.111111111111
-0.935,-0.605,1113.888888888889
-0.91,-0.59,1116.6666666666667
-0.905,-0.59,1119.4444444444443
-0.895,-0.595,1122.2222222222222
-0.91,-0.595,1125.0
-0.905,-0.615,1127.7777777777778
-0.915,-0.615,1130.5555555555557
-0.915,-0.62,1133.3333333333333
-0.935,-0.615,1136.111111111111
-0.93,-0.64,1138.888888888889
-0.935,-0.62,1141.6666666666667
-0.93,-0.6,1144.4444444444443
-0.92,-0.605,1147.2222222222222
-0.915,-0.59,1150.0
-0.905,-0.6,1152.7777777777778
-0.92,-0.6,1155.5555555555557
-0.92,-0.6,1158.3333333333333
-0.925,-0.62,1161.111111111111
-0.915,-0.625,1163.888888888889
-0.93,-0.64,1166.6666666666667
-0.94,-0.62,1169.4444444444443
-0.945,-0.62,1172.2222222222222
-0.95,-0.615,1175.0
-0.93,-0.59,1177.7777777777778
-0.92,-0.615,1180.5555555555557
-0.92,-0.59,1183.3333333333333
-0.91,-0.58,1186.111111111111
-0.92,-0.585,1188.888888888889
-0.915,-0.605,1191.6666666666667
-0.92,-0.625,1194.4444444444443
-0.94,-0.62,1197.2222222222222
-0.95,-0.65,1200.0
-0.945,-0.65,1202.7777777777778
-0.94,-0.63,1205.5555555555557
-0.945,-0.635,1208.3333333333333
-0.945,-0.62,1211.111111111111
-0.94,-0.615,1213.888888888889
-0.925,-0.61,1216.6666666666667
-0.93,-0.615,1219.4444444444443
-0.92,-0.62,1222.2222222222222
-0.925,-0.635,1225.0
-0.935,-0.635,1227.7777777777778
-0.935,-0.64,1230.5555555555557
-0.945,-0.64,1233.3333333333333
-0.945,-0.675,1236.111111111111
-0.975,-0.66,1238.888888888889
-0.975,-0.665,1241.6666666666667
-0.96,-0.65,1244.4444444444443
-0.935,-0.635,1247.2222222222222
-0.925,-0.63,1250.0
-0.915,-0.635,1252.7777777777778
-0.925,-0.625,1255.5555555555557
-0.925,-0.635,1258.3333333333333
-0.92,-0.645,1261.111111111111
-0.925,-0.655,1263.888888888889
-0.935,-0.67,1266.6666666666667
-0.935,-0.665,1269.4444444444443
-0.95,-0.665,1272.2222222222222
-0.94,-0.665,1275.0
-0.935,-0.645,1277.7777777777778
-0.925,-0.645,1280.5555555555557
-0.925,-0.635,1283.3333333333333
-0.915,-0.62,1286.111111111111
-0.92,-0.62,1288.888888888889
-0.925,-0.635,1291.6666666666667
-0.92,-0.62,1294.4444444444443
-0.935,-0.62,1297.2222222222222
-0.945,-0.62,1300.0
-0.955,-0.62,1302.7777777777778
-0.955,-0.635,1305.5555555555557
-0.955,-0.625,1308.3333333333333
-0.95,-0.605,1311.111111111111
-0.93,-0.59,1313.888888888889
-0.93,-0.585,1316.6666666666667
-0.915,-0.58,1319.4444444444443
-0.92,-0.59,1322.2222222222222
-0.93,-0.595,1325.0
-0.945,-0.615,1327.7777777777778
-0.955,-0.615,1330.5555555555557
-0.97,-0.615,1333.3333333333333
-0.98,-0.62,1336.111111111111
-0.96,-0.62,1338.888888888889
-0.975,-0.645,1341.6666666666667
-0.945,-0.61,1344.4444444444443
-0.94,-0.61,1347.2222222222222
-0.935,-0.595,1350.0
-0.915,-0.585,1352.7777777777778
-0.92,-0.6,1355.5555555555557
-0.93,-0.61,1358.3333333333333
-0.925,-0.615,1361.111111111111
-0.94,-0.62,1363.888888888889
-0.94,-0.63,1366.6666666666667
-0.935,-0.64,1369.4444444444443
-0.945,-0.625,1372.2222222222222
-0.94,-0.645,1375.0
-0.935,-0.605,1377.7777777777778
-0.925,-0.605,1380.5555555555557
-0.92,-0.59,1383.3333333333333
-0.92,-0.605,1386.111111111111
-0.915,-0.605,1388.888888888889
-0.93,-0.61,1391.6666666666667
-0.92,-0.615,1394.4444444444443
-0.92,-0.625,1397.2222222222222
-0.93,-0.64,1400.0
-0.94,-0.64,1402.7777777777778
-0.945,-0.615,1405.5555555555557
-0.935,-0.62,1408.3333333333333
-0.93,-0.61,1411.111111111111
-0.925,-0.605,1413.888888888889
-0.915,-0.6,1416.6666666666667
-0.91,-0.595,1419.4444444444443
-0.905,-0.6,1422.2222222222222
-0.905,-0.615,1425.0
-0.915,-0.63,1427.7777777777778
-0.935,-0.625,1430.5555555555557
-0.935,-0.635,1433.3333333333333
-0.945,-0.635,1436.111111111111
-0.93,-0.63,1438.888888888889
-0.905,-0.62,1441.6666666666667
-0.885,-0.625,1444.4444444444443
-0.86,-0.615,1447.2222222222222
-0.845,-0.6,1450.0
-0.815,-0.595,1452.7777777777778
-0.81,-0.605,1455.5555555555557
-0.8,-0.605,1458.3333333333333
-0.805,-0.615,1461.111111111111
-0.83,-0.605,1463.888888888889
-0.82,-0.605,1466.6666666666667
-0.825,-0.595,1469.4444444444443
-0.8,-0.59,1472.2222222222222
-0.795,-0.57,1475.0
-0.785,-0.555,1477.7777777777778
-0.76,-0.525,1480.5555555555557
-0.735,-0.505,1483.3333333333333
-0.72,-0.49,1486.111111111111
-0.725,-0.465,1488.888888888889
-0.74,-0.465,1491.6666666666667
-0.75,-0.45,1494.4444444444443
-0.77,-0.445,1497.2222222222222
-0.8,-0.47,1500.0
-0.81,-0.48,1502.7777777777778
-0.82,-0.475,1505.5555555555557
-0.81,-0.47,1508.3333333333333
-0.825,-0.48,1511.111111111111
-0.825,-0.46,1513.888888888889
-0.845,-0.46,1516.6666666666667
-0.84,-0.465,1519.4444444444443
-0.875,-0.505,1522.2222222222222
-0.885,-0.515,1525.0
-0.92,-0.525,1527.7777777777778
-0.925,-0.565,1530.5555555555557
-0.945,-0.585,1533.3333333333333
-0.95,-0.62,1536.111111111111
-0.95,-0.615,1538.888888888889
-0.955,-0.635,1541.6666666666667
-0.945,-0.615,1544.4444444444443
-0.945,-0.62,1547.2222222222222
-0.94,-0.62,1550.0
-0.925,-0.61,1552.7777777777778
-0.93,-0.625,1555.5555555555557
-0.945,-0.62,1558.3333333333333
-0.945,-0.65,1561.111111111111
-0.95,-0.645,1563.888888888889
-0.96,-0.67,1566.6666666666667
-0.98,-0.67,1569.4444444444443
-0.97,-0.68,1572.2222222222222
-0.97,-0.66,1575.0
-0.97,-0.675,1577.7777777777778
-0.96,-0.645,1580.5555555555557
-0.96,-0.635,1583.3333333333333
-0.945,-0.65,1586.111111111111
-0.955,-0.625,1588.888888888889
-0.95,-0.64,1591.6666666666667
-0.955,-0.63,1594.4444444444443
-0.965,-0.635,1597.2222222222222
-0.96,-0.655,1600.0
-0.96,-0.66,1602.7777777777778
-0.955,-0.66,1605.5555555555557
-0.945,-0.64,1608.3333333333333
-0.92,-0.635,1611.111111111111
-0.91,-0.635,1613.888888888889
-0.86,-0.635,1616.6666666666667
-0.785,-0.61,1619.4444444444443
-0.715,-0.58,1622.2222222222222
-0.6,-0.495,1625.0
-0.49,-0.38,1627.7777777777778
-0.355,-0.2,1630.5555555555557
-0.225,0.035,1633.3333333333333
-0.1,0.28,1636.111111111111
-0.045,0.55,1638.888888888889
-0.09,0.8,1641.6666666666667
-0.21,0.975,1644.4444444444443
-0.43,1.06,1647.2222222222222
-0.69,1.005,1650.0
-0.97,0.82,1652.7777777777778
-1.24,0.51,1655.5555555555557
-1.49,0.105,1658.3333333333333
-1.665,-0.31,1661.111111111111
-1.73,-0.66,1663.888888888889
-1.7,-0.895,1666.6666666666667
-1.6,-0.975,1669.4444444444443
-1.49,-0.94,1672.2222222222222
-1.375,-0.84,1675.0
-1.275,-0.745,1677.7777777777778
-1.2,-0.69,1680.5555555555557
-1.12,-0.62,1683.3333333333333
-1.035,-0.615,1686.111111111111
-0.98,-0.61,1688.888888888889
-0.93,-0.605,1691.6666666666667
-0.885,-0.595,1694.4444444444443
-0.89,-0.59,1697.2222222222222
-0.89,-0.585,1700.0
-0.87,-0.59,1702.7777777777778
-0.895,-0.6,1705.5555555555557
-0.91,-0.605,1708.3333333333333
-0.895,-0.595,1711.111111111111
-0.87,-0.575,1713.888888888889
-0.855,-0.58,1716.6666666666667
-0.84,-0.565,1719.4444444444443
-0.82,-0.585,1722.2222222222222
-0.83,-0.56,1725.0
-0.82,-0.585,1727.7777777777778
-0.835,-0.575,1730.5555555555557
-0.845,-0.59,1733.3333333333333
-0.84,-0.585,1736.111111111111
-0.845,-0.57,1738.888888888889
-0.835,-0.59,1741.6666666666667
-0.83,-0.565,1744.4444444444443
-0.83,-0.57,1747.2222222222222
-0.81,-0.54,1750.0
-0.79,-0.545,1752.7777777777778
-0.79,-0.54,1755.5555555555557
-0.79,-0.555,1758.3333333333333
-0.79,-0.565,1761.111111111111
-0.8,-0.565,1763.888888888889
-0.8,-0.565,1766.6666666666667
-0.8,-0.57,1769.4444444444443
-0.8,-0.555,1772.2222222222222
-0.81,-0.535,1775.0
-0.785,-0.535,1777.7777777777778
-0.78,-0.52,1780.5555555555557
-0.775,-0.52,1783.3333333333333
-0.755,-0.495,1786.111111111111
-0.755,-0.515,1788.888888888889
-0.76,-0.505,1791.6666666666667
-0.755,-0.5,1794.4444444444443
-0.755,-0.535,1797.2222222222222
-0.76,-0.53,1800.0
-0.77,-0.535,1802.7777777777778
-0.755,-0.49,1805.5555555555557
-0.765,-0.495,1808.3333333333333
-0.755,-0.47,1811.111111111111
-0.745,-0.47,1813.888888888889
-0.73,-0.475,1816.6666666666667
-0.705,-0.46,1819.4444444444443
-0.74,-0.455,1822.2222222222222
-0.71,-0.455,1825.0
-0.705,-0.45,1827.7777777777778
-0.715,-0.47,1830.5555555555557
-0.71,-0.47,1833.3333333333333
-0.71,-0.45,1836.111111111111
-0.705,-0.46,1838.888888888889
-0.69,-0.44,1841.6666666666667
-0.665,-0.415,1844.4444444444443
-0.645,-0.395,1847.2222222222222
-0.61,-0.375,1850.0
-0.595,-0.365,1852.7777777777778
-0.59,-0.36,1855.5555555555557
-0.595,-0.365,1858.3333333333333
-0.58,-0.365,1861.111111111111
-0.575,-0.355,1863.888888888889
-0.565,-0.345,1866.6666666666667
-0.56,-0.33,1869.4444444444443
-0.55,-0.315,1872.2222222222222
-0.53,-0.295,1875.0
-0.515,-0.255,1877.7777777777778
-0.48,-0.225,1880.5555555555557
-0.465,-0.205,1883.3333333333333
-0.43,-0.18,1886.111111111111
-0.405,-0.165,1888.888888888889
-0.375,-0.155,1891.6666666666667
-0.39,-0.14,1894.4444444444443
-0.38,-0.13,1897.2222222222222
-0.365,-0.12,1900.0
-0.345,-0.105,1902.7777777777778
-0.345,-0.085,1905.5555555555557
-0.315,-0.075,1908.3333333333333
-0.3,-0.035,1911.111111111111
-0.28,-0.025,1913.888888888889
-0.25,-0.005,1916.6666666666667
-0.25,0.01,1919.4444444444443
-0.24,0.03,1922.2222222222222
-0.23,0.015,1925.0
-0.225,0.015,1927.7777777777778
-0.22,0.02,1930.5555555555557
-0.235,0.005,1933.3333333333333
-0.235,0.015,1936.111111111111
-0.23,0.01,1938.888888888889
-0.225,0.015,1941.6666666666667
-0.245,0.035,1944.4444444444443
-0.24,0.035,1947.2222222222222
-0.25,0.055,1950.0
-0.25,0.03,1952.7777777777778
-0.26,0.0,1955.5555555555557
-0.27,-0.015,1958.3333333333333
-0.305,-0.05,1961.111111111111
-0.335,-0.075,1963.888888888889
-0.375,-0.115,1966.6666666666667
-0.415,-0.145,1969.4444444444443
-0.45,-0.18,1972.2222222222222
-0.48,-0.195,1975.0
-0.5,-0.23,1977.7777777777778
-0.505,-0.245,1980.5555555555557
-0.55,-0.28,1983.3333333333333
-0.575,-0.315,1986.111111111111
-0.585,-0.34,1988.888888888889
-0.615,-0.385,1991.6666666666667
-0.645,-0.425,1994.4444444444443
-0.68,-0.455,1997.2222222222222
-0.72,-0.475,2000.0
-0.75,-0.515,2002.7777777777778
-0.775,-0.55,2005.5555555555557
-0.775,-0.57,2008.3333333333333
-0.8,-0.56,2011.111111111111
-0.81,-0.595,2013.888888888889
-0.81,-0.6,2016.6666666666667
-0.815,-0.59,2019.4444444444443
-0.82,-0.625,2022.2222222222222
-0.84,-0.64,2025.0
-0.865,-0.66,2027.7777777777778
-0.875,-0.675,2030.5555555555557
-0.885,-0.71,2033.3333333333333
-0.9,-0.705,2036.111111111111
-0.89,-0.695,2038.888888888889
-0.895,-0.71,2041.6666666666667
-0.9,-0.69,2044.4444444444443
-0.885,-0.685,2047.2222222222222
-0.885,-0.685,2050.0
-0.885,-0.685,2052.777777777778
-0.89,-0.695,2055.5555555555557
-0.88,-0.705,2058.3333333333335
-0.885,-0.715,2061.1111111111113
-0.895,-0.71,2063.8888888888887
-0.91,-0.725,2066.6666666666665
-0.905,-0.74,2069.4444444444443
-0.91,-0.72,2072.222222222222
-0.895,-0.715,2075.0
-0.89,-0.69,2077.777777777778
-0.89,-0.7,2080.5555555555557
-0.88,-0.69,2083.3333333333335
-0.865,-0.67,2086.1111111111113
-0.865,-0.695,2088.8888888888887
-0.865,-0.69,2091.6666666666665
-0.855,-0.69,2094.4444444444443
-0.885,-0.695,2097.222222222222
-0.87,-0.685,2100.0
-0.88,-0.695,2102.777777777778
-0.9,-0.7,2105.5555555555557
-0.895,-0.695,2108.3333333333335
-0.885,-0.685,2111.1111111111113
-0.87,-0.665,2113.8888888888887
-0.87,-0.655,2116.6666666666665
-0.855,-0.66,2119.4444444444443
-0.85,-0.665,2122.222222222222
-0.85,-0.66,2125.0
-0.855,-0.665,2127.777777777778
-0.865,-0.675,2130.5555555555557
-0.87,-0.68,2133.3333333333335
-0.875,-0.67,2136.1111111111113
-0.895,-0.685,2138.8888888888887
-0.905,-0.685,2141.6666666666665
-0.895,-0.675,2144.4444444444443
-0.895,-0.67,2147.222222222222
-0.9,-0.645,2150.0
-0.875,-0.645,2152.777777777778
-0.885,-0.64,2155.5555555555557
-0.885,-0.65,2158.3333333333335
-0.885,-0.675,2161.1111111111113
-0.9,-0.675,2163.8888888888887
-0.91,-0.705,2166.6666666666665
-0.915,-0.715,2169.4444444444443
-0.93,-0.72,2172.222222222222
-0.94,-0.705,2175.0
-0.935,-0.685,2177.777777777778
-0.93,-0.685,2180.5555555555557
-0.915,-0.675,2183.3333333333335
-0.91,-0.675,2186.1111111111113
-0.92,-0.685,2188.8888888888887
-0.905,-0.69,2191.6666666666665
-0.925,-0.7,2194.4444444444443
-0.945,-0.71,2197.222222222222
-0.94,-0.72,2200.0
-0.96,-0.735,2202.777777777778
-0.975,-0.72,2205.5555555555557
-0.965,-0.72,2208.3333333333335
-0.96,-0.72,2211.1111111111113
-0.955,-0.705,2213.8888888888887
-0.955,-0.7,2216.6666666666665
-0.97,-0.7,2219.4444444444443
-0.945,-0.71,2222.222222222222
-0.945,-0.71,2225.0
-0.945,-0.725,2227.777777777778
-0.965,-0.73,2230.5555555555557
-0.97,-0.74,2233.3333333333335
-0.98,-0.755,2236.1111111111113
-0.995,-0.75,2238.8888888888887
-1.01,-0.76,2241.6666666666665
-1.02,-0.74,2244.4444444444443
-0.995,-0.725,2247.222222222222
-0.99,-0.725,2250.0
-0.97,-0.7,2252.777777777778
-0.97,-0.725,2255.5555555555557
-0.97,-0.735,2258.3333333333335
-0.965,-0.725,2261.1111111111113
-0.99,-0.74,2263.8888888888887
-0.995,-0.75,2266.6666666666665
-1.005,-0.76,2269.4444444444443
-1.015,-0.76,2272.222222222222
-1.0,-0.74,2275.0
-0.995,-0.73,2277.777777777778
-0.99,-0.73,2280.5555555555557
-0.99,-0.73,2283.3333333333335
-0.99,-0.71,2286.1111111111113
-1.0,-0.73,2288.8888888888887
-0.995,-0.71,2291.6666666666665
-1.0,-0.725,2294.4444444444443
-1.0,-0.73,2297.222222222222
-1.005,-0.73,2300.0
-1.02,-0.74,2302.777777777778
-1.035,-0.74,2305.5555555555557
-1.03,-0.74,2308.3333333333335
-1.025,-0.725,2311.1111111111113
-1.02,-0.715,2313.8888888888887
-1.01,-0.71,2316.6666666666665
-0.995,-0.695,2319.4444444444443
-1.005,-0.705,2322.222222222222
-1.0,-0.72,2325.0
-1.01,-0.74,2327.777777777778
-1.03,-0.735,2330.5555555555557
-1.025,-0.725,2333.3333333333335
-1.03,-0.75,2336.1111111111113
-1.045,-0.75,2338.8888888888887
-1.045,-0.73,2341.6666666666665
-1.025,-0.725,2344.4444444444443
-1.035,-0.72,2347.222222222222
-1.02,-0.705,2350.0
-1.005,-0.7,2352.777777777778
-1.005,-0.71,2355.5555555555557
-1.005,-0.715,2358.3333333333335
-1.01,-0.735,2361.1111111111113
-1.02,-0.74,2363.8888888888887
-1.015,-0.745,2366.6666666666665
-1.035,-0.74,2369.4444444444443
-1.04,-0.75,2372.222222222222
-1.045,-0.73,2375.0
-1.05,-0.72,2377.777777777778
-1.03,-0.72,2380.5555555555557
-1.025,-0.7,2383.3333333333335
-1.015,-0.69,2386.1111111111113
-1.02,-0.705,2388.8888888888887
-1.015,-0.715,2391.6666666666665
-1.01,-0.73,2394.4444444444443
-1.04,-0.74,2397.222222222222
-1.035,-0.75,2400.0
-1.05,-0.765,2402.777777777778
-1.05,-0.76,2405.5555555555557
-1.05,-0.74,2408.3333333333335
-1.045,-0.76,2411.1111111111113
-1.045,-0.74,2413.8888888888887
-1.02,-0.735,2416.6666666666665
-1.0,-0.72,2419.4444444444443
-1.0,-0.705,2422.222222222222
-1.015,-0.715,2425.0
-1.01,-0.72,2427.777777777778
-1.01,-0.73,2430.5555555555557
-1.02,-0.755,2433.3333333333335
-1.035,-0.75,2436.1111111111113
-1.06,-0.75,2438.8888888888887
-1.06,-0.735,2441.6666666666665
-1.03,-0.715,2444.4444444444443
-1.04,-0.715,2447.222222222222
-1.03,-0.705,2450.0
-1.01,-0.71,2452.777777777778
-1.015,-0.715,2455.5555555555557
-1.02,-0.715,2458.3333333333335
-1.0,-0.725,2461.1111111111113
-1.01,-0.7,2463.8888888888887
-1.015,-0.72,2466.6666666666665
-1.03,-0.72,2469.4444444444443
-1.03,-0.71,2472.222222222222
-1.035,-0.69,2475.0
-1.035,-0.705,2477.777777777778
-1.035,-0.685,2480.5555555555557
-1.03,-0.68,2483.3333333333335
-1.025,-0.68,2486.1111111111113
-1.0,-0.67,2488.8888888888887
-1.005,-0.695,2491.6666666666665
-1.025,-0.7,2494.4444444444443
-1.03,-0.695,2497.222222222222
-1.025,-0.71,2500.0
-1.045,-0.71,2502.777777777778
-1.05,-0.73,2505.5555555555557
-1.04,-0.705,2508.3333333333335
-1.04,-0.71,2511.1111111111113
-1.01,-0.69,2513.8888888888887
-1.01,-0.685,2516.6666666666665
-1.005,-0.675,2519.4444444444443
-1.01,-0.675,2522.222222222222
-1.01,-0.68,2525.0
-1.02,-0.69,2527.777777777778
-1.02,-0.695,2530.5555555555557
-1.01,-0.71,2533.3333333333335
-1.02,-0.695,2536.1111111111113
-1.025,-0.705,2538.8888888888887
-1.04,-0.685,2541.6666666666665
-1.02,-0.69,2544.4444444444443
-1.015,-0.67,2547.222222222222
-1.005,-0.67,2550.0
-0.99,-0.675,2552.777777777778
-0.995,-0.67,2555.5555555555557
-0.98,-0.675,2558.3333333333335
-0.98,-0.685,2561.1111111111113
-0.985,-0.69,2563.8888888888887
-1.0,-0.69,2566.6666666666665
-1.0,-0.695,2569.4444444444443
-0.995,-0.69,2572.222222222222
-0.985,-0.68,2575.0
-0.965,-0.665,2577.777777777778
-0.955,-0.675,2580.5555555555557
-0.93,-0.66,2583.3333333333335
-0.925,-0.655,2586.1111111111113
-0.925,-0.675,2588.8888888888887
-0.92,-0.675,2591.6666666666665
-0.93,-0.67,2594.4444444444443
-0.92,-0.675,2597.222222222222
-0.9,-0.67,2600.0
-0.895,-0.66,2602.777777777778
-0.885,-0.65,2605.5555555555557
-0.875,-0.625,2608.3333333333335
-0.875,-0.6,2611.1111111111113
-0.845,-0.595,2613.8888888888887
-0.825,-0.57,2616.6666666666665
-0.82,-0.56,2619.4444444444443
-0.805,-0.54,2622.222222222222
-0.81,-0.54,2625.0
-0.82,-0.52,2627.777777777778
-0.84,-0.505,2630.5555555555557
-0.865,-0.505,2633.3333333333335
-0.89,-0.52,2636.1111111111113
-0.9,-0.525,2638.8888888888887
-0.915,-0.53,2641.6666666666665
-0.905,-0.525,2644.4444444444443
-0.895,-0.525,2647.222222222222
-0.91,-0.51,2650.0
-0.915,-0.51,2652.777777777778
-0.94,-0.545,2655.5555555555557
-0.96,-0.545,2658.3333333333335
-0.975,-0.555,2661.1111111111113
-1.005,-0.59,2663.8888888888887
-1.005,-0.61,2666.6666666666665
-1.01,-0.625,2669.4444444444443
-1.01,-0.63,2672.222222222222
-1.03,-0.635,2675.0
-1.035,-0.63,2677.777777777778
-1.04,-0.63,2680.5555555555557
-1.015,-0.63,2683.3333333333335
-1.015,-0.625,2686.1111111111113
-1.025,-0.63,2688.8888888888887
-1.02,-0.63,2691.6666666666665
-1.025,-0.65,2694.4444444444443
-1.045,-0.68,2697.222222222222
-1.045,-0.675,2700.0
-1.055,-0.685,2702.777777777778
-1.06,-0.685,2705.5555555555557
-1.06,-0.69,2708.3333333333335
-1.06,-0.675,2711.1111111111113
-1.045,-0.67,2713.8888888888887
-1.04,-0.66,2716.6666666666665
-1.035,-0.65,2719.4444444444443
-1.015,-0.645,2722.222222222222
-1.01,-0.66,2725.0
-1.005,-0.65,2727.777777777778
-1.035,-0.665,2730.5555555555557
-1.02,-0.66,2733.3333333333335
-1.035,-0.66,2736.1111111111113
-1.035,-0.68,2738.8888888888887
-1.02,-0.66,2741.6666666666665
-0.98,-0.655,2744.4444444444443
-0.91,-0.635,2747.222222222222
-0.83,-0.585,2750.0
-0.715,-0.495,2752.777777777778
-0.6,-0.345,2755.5555555555557
-0.46,-0.16,2758.3333333333335
-0.335,0.07,2761.1111111111113
-0.215,0.305,2763.8888888888887
-0.165,0.56,2766.6666666666665
-0.2,0.765,2769.4444444444443
-0.335,0.925,2772.222222222222
-0.815,0.945,2775.0
-1.095,0.795,2777.777777777778
-1.375,0.54,2780.5555555555557
-1.605,0.17,2783.3333333333335
-1.795,-0.235,2786.1111111111113
-1.905,-0.66,2788.8888888888887
-1.925,-1.01,2791.6666666666665
-1.86,-1.195,2794.4444444444443
-1.76,-1.235,2797.222222222222
-1.645,-1.125,2800.0
-1.55,-1.0,2802.777777777778
-1.465,-0.89,2805.5555555555557
-1.395,-0.8,2808.3333333333335
-1.31,-0.75,2811.1111111111113
-1.225,-0.715,2813.8888888888887
-1.155,-0.68,2816.6666666666665
-1.075,-0.67,2819.4444444444443
-1.02,-0.625,2822.222222222222
-0.985,-0.615,2825.0
-0.995,-0.605,2827.777777777778
-0.99,-0.59,2830.5555555555557
-1.0,-0.59,2833.3333333333335
-1.005,-0.595,2836.1111111111113
-1.005,-0.585,2838.8888888888887
-0.99,-0.58,2841.6666666666665
-0.99,-0.575,2844.4444444444443
-0.975,-0.565,2847.222222222222
-0.96,-0.565,2850.0
-0.94,-0.565,2852.777777777778
-0.92,-0.565,2855.5555555555557
-0.925,-0.56,2858.3333333333335
-0.935,-0.56,2861.1111111111113
-0.935,-0.56,2863.8888888888887
-0.93,-0.56,2866.6666666666665
-0.945,-0.545,2869.4444444444443
-0.92,-0.535,2872.222222222222
-0.93,-0.52,2875.0
-0.925,-0.505,2877.777777777778
-0.91,-0.5,2880.5555555555557
-0.89,-0.495,2883.3333333333335
-0.88,-0.485,2886.1111111111113
-0.87,-0.49,2888.8888888888887
-0.87,-0.505,2891.6666666666665
-0.895,-0.5,2894.4444444444443
-0.89,-0.51,2897.222222222222
-0.905,-0.505,2900.0
-0.905,-0.505,2902.777777777778
-0.895,-0.5,2905.5555555555557
-0.895,-0.485,2908.3333333333335
-0.875,-0.47,2911.1111111111113
-0.875,-0.445,2913.8888888888887
-0.85,-0.445,2916.6666666666665
-0.855,-0.44,2919.4444444444443
-0.84,-0.435,2922.222222222222
-0.845,-0.44,2925.0
-0.87,-0.44,2927.777777777778
-0.865,-0.465,2930.5555555555557
-0.865,-0.435,2933.3333333333335
-0.855,-0.445,2936.1111111111113
-0.855,-0.43,2938.8888888888887
-0.835,-0.425,2941.6666666666665
-0.82,-0.4,2944.4444444444443
-0.795,-0.385,2947.222222222222
-0.81,-0.37,2950.0
-0.79,-0.37,2952.777777777778
-0.785,-0.37,2955.5555555555557
-0.78,-0.36,2958.3333333333335
-0.785,-0.35,2961.1111111111113
-0.795,-0.355,2963.8888888888887
-0.79,-0.345,2966.6666666666665
-0.77,-0.335,2969.4444444444443
-0.77,-0.33,2972.222222222222
-0.745,-0.31,2975.0
-0.735,-0.29,2977.777777777778
-0.725,-0.275,2980.5555555555557
-0.695,-0.23,2983.3333333333335
-0.66,-0.22,2986.1111111111113
-0.645,-0.225,2988.8888888888887
-0.65,-0.21,2991.6666666666665
-0.635,-0.19,2994.4444444444443
-0.62,-0.185,2997.222222222222
-0.615,-0.155,3000.0
-0.61,-0.155,3002.777777777778
-0.585,-0.115,3005.5555555555557
-0.565,-0.085,3008.3333333333335
-0.535,-0.075,3011.1111111111113
-0.51,-0.05,3013.8888888888887
-0.49,-0.035,3016.6666666666665
-0.47,-0.005,3019.4444444444443
-0.445,0.01,3022.222222222222
-0.43,0.02,3025.0
-0.43,0.035,3027.777777777778
-0.43,0.04,3030.5555555555557
-0.415,0.07,3033.3333333333335
-0.4,0.075,3036.1111111111113
-0.39,0.105,3038.8888888888887
-0.375,0.14,3041.6666666666665
-0.355,0.16,3044.4444444444443
-0.33,0.165,3047.222222222222
-0.295,0.205,3050.0
-0.285,0.21,3052.777777777778
-0.285,0.225,3055.5555555555557
-0.265,0.21,3058.3333333333335
-0.28,0.2,3061.1111111111113
-0.28,0.195,3063.8888888888887
-0.285,0.21,3066.6666666666665
-0.315,0.21,3069.4444444444443
-0.295,0.215,3072.222222222222
-0.31,0.205,3075.0
-0.295,0.215,3077.777777777778
-0.3,0.195,3080.5555555555557
-0.305,0.2,3083.3333333333335
-0.32,0.155,3086.1111111111113
-0.345,0.12,3088.8888888888887
-0.37,0.085,3091.6666666666665
-0.4,0.05,3094.4444444444443
-0.43,-0.01,3097.222222222222
-0.48,-0.045,3100.0
-0.525,-0.09,3102.777777777778
-0.56,-0.13,3105.5555555555557
-0.595,-0.16,3108.3333333333335
-0.615,-0.185,3111.1111111111113
-0.64,-0.23,3113.8888888888887
-0.655,-0.255,3116.6666666666665
-0.675,-0.305,3119.4444444444443
-0.71,-0.35,3122.222222222222
-0.73,-0.38,3125.0
-0.76,-0.415,3127.777777777778
-0.775,-0.455,3130.5555555555557
-0.8,-0.47,3133.3333333333335
-0.83,-0.5,3136.1111111111113
-0.845,-0.52,3138.8888888888887
-0.86,-0.525,3141.6666666666665
-0.865,-0.53,3144.4444444444443
-0.87,-0.53,3147.222222222222
-0.86,-0.535,3150.0
-0.865,-0.555,3152.777777777778
-0.88,-0.555,3155.5555555555557
-0.89,-0.58,3158.3333333333335
-0.91,-0.6,3161.1111111111113
-0.915,-0.62,3163.8888888888887
-0.935,-0.61,3166.6666666666665
-0.93,-0.63,3169.4444444444443
-0.93,-0.62,3172.222222222222
-0.93,-0.62,3175.0
-0.915,-0.625,3177.777777777778
-0.915,-0.615,3180.5555555555557
-0.905,-0.6,3183.3333333333335
-0.905,-0.615,3186.1111111111113
-0.91,-0.615,3188.8888888888887
-0.9,-0.625,3191.6666666666665
-0.935,-0.65,3194.4444444444443
-0.935,-0.645,3197.222222222222
-0.96,-0.65,3200.0
-0.95,-0.66,3202.777777777778
-0.94,-0.65,3205.5555555555557
-0.93,-0.635,3208.3333333333335
-0.925,-0.64,3211.1111111111113
-0.91,-0.62,3213.8888888888887
-0.895,-0.605,3216.6666666666665
-0.895,-0.605,3219.4444444444443
-0.875,-0.61,3222.222222222222
-0.885,-0.615,3225.0
-0.895,-0.615,3227.777777777778
-0.895,-0.635,3230.5555555555557
-0.91,-0.65,3233.3333333333335
-0.915,-0.625,3236.1111111111113
-0.91,-0.625,3238.8888888888887
-0.895,-0.595,3241.6666666666665
-0.905,-0.59,3244.4444444444443
-0.9,-0.58,3247.222222222222
-0.885,-0.57,3250.0
-0.88,-0.575,3252.777777777778
-0.875,-0.59,3255.5555555555557
-0.885,-0.585,3258.3333333333335
-0.89,-0.61,3261.1111111111113
-0.885,-0.615,3263.8888888888887
-0.895,-0.61,3266.6666666666665
-0.91,-0.595,3269.4444444444443
-0.9,-0.605,3272.222222222222
-0.905,-0.59,3275.0
-0.895,-0.575,3277.777777777778
-0.89,-0.58,3280.5555555555557
-0.89,-0.565,3283.3333333333335
-0.88,-0.58,3286.1111111111113
-0.875,-0.58,3288.8888888888887
-0.905,-0.6,3291.6666666666665
-0.9,-0.595,3294.4444444444443
-0.91,-0.615,3297.222222222222
-0.93,-0.61,3300.0
-0.925,-0.62,3302.777777777778
-0.935,-0.615,3305.5555555555557
-0.93,-0.605,3308.3333333333335
-0.935,-0.61,3311.1111111111113
-0.92,-0.595,3313.8888888888887
-0.905,-0.585,3316.6666666666665
-0.9,-0.6,3319.4444444444443
-0.905,-0.615,3322.222222222222
-0.905,-0.635,3325.0
-0.935,-0.65,3327.777777777778
-0.94,-0.675,3330.5555555555557
-0.95,-0.675,3333.3333333333335
-0.955,-0.67,3336.1111111111113
-0.955,-0.665,3338.8888888888887
-0.965,-0.66,3341.6666666666665
-0.945,-0.65,3344.4444444444443
-0.935,-0.645,3347.222222222222
-0.93,-0.64,3350.0
-0.935,-0.635,3352.777777777778
-0.945,-0.655,3355.5555555555557
-0.935,-0.66,3358.3333333333335
-0.945,-0.655,3361.1111111111113
-0.94,-0.675,3363.8888888888887
-0.965,-0.685,3366.6666666666665
-0.97,-0.695,3369.4444444444443
-0.965,-0.68,3372.222222222222
-0.96,-0.675,3375.0
-0.955,-0.655,3377.777777777778
-0.955,-0.65,3380.5555555555557
-0.955,-0.655,3383.3333333333335
-0.945,-0.665,3386.1111111111113
-0.945,-0.665,3388.8888888888887
-0.95,-0.68,3391.6666666666665
-0.97,-0.695,3394.4444444444443
-0.96,-0.685,3397.222222222222
-0.97,-0.7,3400.0
-0.97,-0.7,3402.777777777778
-0.975,-0.695,3405.5555555555557
-0.965,-0.69,3408.3333333333335
-0.965,-0.675,3411.1111111111113
-0.955,-0.665,3413.8888888888887
-0.955,-0.645,3416.6666666666665
-0.955,-0.665,3419.4444444444443
-0.955,-0.665,3422.222222222222
-0.965,-0.67,3425.0
-0.965,-0.68,3427.777777777778
-0.975,-0.68,3430.5555555555557
-0.98,-0.675,3433.3333333333335
-1.0,-0.685,3436.1111111111113
-0.985,-0.685,3438.8888888888887
-0.975,-0.68,3441.6666666666665
-0.975,-0.665,3444.4444444444443
-0.955,-0.655,3447.222222222222
-0.95,-0.645,3450.0
-0.95,-0.65,3452.777777777778
-0.955,-0.665,3455.5555555555557
-0.965,-0.665,3458.3333333333335
-0.97,-0.665,3461.1111111111113
-0.96,-0.68,3463.8888888888887
-0.965,-0.685,3466.6666666666665
-0.98,-0.68,3469.4444444444443
-0.975,-0.68,3472.222222222222
-0.975,-0.66,3475.0
-0.975,-0.655,3477.777777777778
-0.965,-0.645,3480.5555555555557
-0.95,-0.64,3483.3333333333335
-0.96,-0.67,3486.1111111111113
-0.97,-0.66,3488.8888888888887
-0.98,-0.66,3491.6666666666665
-0.945,-0.67,3494.4444444444443
-0.965,-0.68,3497.222222222222
-0.98,-0.675,3500.0
-0.99,-0.685,3502.777777777778
-0.985,-0.69,3505.5555555555557
-0.975,-0.67,3508.3333333333335
-0.98,-0.66,3511.1111111111113
-0.965,-0.65,3513.8888888888887
-0.96,-0.65,3516.6666666666665
-0.95,-0.655,3519.4444444444443
-0.955,-0.67,3522.222222222222
-0.955,-0.68,3525.0
-0.955,-0.665,3527.777777777778
-0.97,-0.675,3530.5555555555557
-0.97,-0.68,3533.3333333333335
-0.965,-0.68,3536.1111111111113
-0.98,-0.68,3538.8888888888887
-0.97,-0.67,3541.6666666666665
-0.96,-0.665,3544.4444444444443
-0.955,-0.655,3547.222222222222
-0.95,-0.65,3550.0
-0.94,-0.64,3552.777777777778
-0.945,-0.655,3555.5555555555557
-0.945,-0.67,3558.3333333333335
-0.97,-0.685,3561.1111111111113
-0.965,-0.67,3563.8888888888887
-0.97,-0.675,3566.6666666666665
-0.975,-0.675,3569.4444444444443
-0.975,-0.66,3572.222222222222
-0.975,-0.675,3575.0
-0.96,-0.65,3577.777777777778
-0.95,-0.645,3580.5555555555557
-0.95,-0.635,3583.3333333333335
-0.95,-0.63,3586.1111111111113
-0.93,-0.64,3588.8888888888887
-0.925,-0.655,3591.6666666666665
-0.935,-0.655,3594.4444444444443
-0.94,-0.675,3597.222222222222
-0.95,-0.665,3600.0
-0.96,-0.67,3602.777777777778
-0.96,-0.66,3605.5555555555557
-0.955,-0.65,3608.3333333333335
-0.97,-0.635,3611.1111111111113
-0.96,-0.625,3613.8888888888887
-0.95,-0.62,3616.6666666666665
-0.955,-0.625,3619.4444444444443
-0.945,-0.625,3622.222222222222
-0.945,-0.635,3625.0
-0.94,-0.65,3627.777777777778
-0.945,-0.65,3630.5555555555557
-0.965,-0.655,3633.3333333333335
-0.96,-0.645,3636.1111111111113
-0.96,-0.645,3638.8888888888887
-0.95,-0.625,3641.6666666666665
-0.95,-0.63,3644.4444444444443
-0.95,-0.635,3647.222222222222
-0.93,-0.62,3650.0
-0.93,-0.625,3652.777777777778
-0.93,-0.61,3655.5555555555557
-0.93,-0.63,3658.3333333333335
-0.94,-0.64,3661.1111111111113
-0.935,-0.645,3663.8888888888887
-0.96,-0.67,3666.6666666666665
-0.955,-0.675,3669.4444444444443
-0.95,-0.675,3672.222222222222
-0.945,-0.645,3675.0
-0.945,-0.65,3677.777777777778
-0.93,-0.63,3680.5555555555557
-0.925,-0.61,3683.3333333333335
-0.91,-0.615,3686.1111111111113
-0.915,-0.63,3688.8888888888887
-0.92,-0.615,3691.6666666666665
-0.92,-0.63,3694.4444444444443
-0.91,-0.625,3697.222222222222
-0.895,-0.645,3700.0
-0.905,-0.635,3702.777777777778
-0.875,-0.62,3705.5555555555557
-0.875,-0.615,3708.3333333333335
-0.845,-0.605,3711.1111111111113
-0.83,-0.615,3713.8888888888887
-0.835,-0.59,3716.6666666666665
-0.815,-0.595,3719.4444444444443
-0.81,-0.595,3722.222222222222
-0.8,-0.57,3725.0
-0.805,-0.56,3727.777777777778
-0.78,-0.565,3730.5555555555557
-0.79,-0.53,3733.3333333333335
-0.78,-0.54,3736.1111111111113
-0.775,-0.52,3738.8888888888887
-0.77,-0.49,3741.6666666666665
-0.77,-0.46,3744.4444444444443
-0.77,-0.445,3747.222222222222
-0.785,-0.425,3750.0
-0.81,-0.42,3752.777777777778
-0.8,-0.445,3755.5555555555557
-0.81,-0.445,3758.3333333333335
-0.815,-0.455,3761.1111111111113
-0.83,-0.455,3763.8888888888887
-0.845,-0.48,3766.6666666666665
-0.845,-0.475,3769.4444444444443
-0.875,-0.49,3772.222222222222
-0.9,-0.48,3775.0
-0.905,-0.48,3777.777777777778
-0.91,-0.5,3780.5555555555557
-0.925,-0.515,3783.3333333333335
-0.92,-0.535,3786.1111111111113
-0.925,-0.55,3788.8888888888887
-0.92,-0.585,3791.6666666666665
-0.915,-0.58,3794.4444444444443
-0.94,-0.605,3797.222222222222
-0.955,-0.61,3800.0
-0.975,-0.615,3802.777777777778
-0.97,-0.595,3805.5555555555557
-0.97,-0.585,3808.3333333333335
-0.955,-0.59,3811.1111111111113
-0.955,-0.59,3813.8888888888887
-0.955,-0.57,3816.6666666666665
-0.96,-0.59,3819.4444444444443
-0.96,-0.605,3822.222222222222
-0.935,-0.605,3825.0
-0.95,-0.61,3827.777777777778
-0.96,-0.64,3830.5555555555557
-0.965,-0.625,3833.3333333333335
-0.965,-0.62,3836.1111111111113
-0.97,-0.61,3838.8888888888887
-0.965,-0.62,3841.6666666666665
-0.945,-0.6,3844.4444444444443
-0.945,-0.6,3847.222222222222
-0.935,-0.585,3850.0
-0.925,-0.6,3852.777777777778
-0.93,-0.6,3855.5555555555557
-0.92,-0.605,3858.3333333333335
-0.925,-0.6,3861.1111111111113
-0.935,-0.625,3863.8888888888887
-0.905,-0.64,3866.6666666666665
-0.86,-0.635,3869.4444444444443
-0.795,-0.615,3872.222222222222
-0.7,-0.545,3875.0
-0.575,-0.43,3877.777777777778
-0.435,-0.265,3880.5555555555557
-0.265,-0.045,3883.3333333333335
-0.15,0.18,3886.1111111111113
-0.035,0.44,3888.8888888888887
-0.02,0.69,3891.6666666666665
-0.06,0.92,3894.4444444444443
-0.205,1.095,3897.222222222222
-0.425,1.165,3900.0
-0.7,1.075,3902.777777777778
-0.98,0.845,3905.5555555555557
-1.245,0.53,3908.3333333333335
-1.475,0.14,3911.1111111111113
-1.62,-0.24,3913.8888888888887
-1.66,-0.575,3916.6666666666665
-1.615,-0.81,3919.4444444444443
-1.5,-0.86,3922.222222222222
-1.375,-0.82,3925.0
-1.265,-0.735,3927.777777777778
-1.165,-0.665,3930.5555555555557
-1.105,-0.605,3933.3333333333335
-1.045,-0.58,3936.1111111111113
-0.985,-0.58,3938.8888888888887
-0.915,-0.58,3941.6666666666665
-0.905,-0.575,3944.4444444444443
-0.87,-0.555,3947.222222222222
-0.835,-0.54,3950.0
-0.835,-0.54,3952.777777777778
-0.84,-0.545,3955.5555555555557
-0.855,-0.57,3958.3333333333335
-0.87,-0.58,3961.1111111111113
-0.855,-0.59,3963.8888888888887
-0.845,-0.575,3966.6666666666665
-0.855,-0.585,3969.4444444444443
-0.835,-0.575,3972.222222222222
-0.825,-0.58,3975.0
-0.82,-0.56,3977.777777777778
-0.81,-0.54,3980.5555555555557
-0.805,-0.53,3983.3333333333335
-0.795,-0.53,3986.1111111111113
-0.795,-0.525,3988.8888888888887
-0.785,-0.52,3991.6666666666665
-0.785,-0.525,3994.4444444444443
-0.795,-0.525,3997.222222222222
-0.805,-0.515,4000.0
-0.805,-0.535,4002.777777777778
-0.805,-0.525,4005.5555555555557
-0.82,-0.505,4008.3333333333335
-0.79,-0.49,4011.1111111111113
-0.785,-0.485,4013.8888888888887
-0.76,-0.465,4016.6666666666665
-0.75,-0.465,4019.4444444444443
-0.74,-0.475,4022.222222222222
-0.745,-0.465,4025.0
-0.74,-0.485,4027.777777777778
-0.765,-0.48,4030.5555555555557
-0.765,-0.475,4033.3333333333335
-0.78,-0.49,4036.1111111111113
-0.76,-0.47,4038.8888888888887
-0.76,-0.46,4041.6666666666665
-0.745,-0.45,4044.4444444444443
-0.735,-0.43,4047.222222222222
-0.725,-0.425,4050.0
-0.72,-0.415,4052.777777777778
-0.705,-0.415,4055.5555555555557
-0.705,-0.43,4058.3333333333335
-0.71,-0.43,4061.1111111111113
-0.71,-0.43,4063.8888888888887
-0.705,-0.425,4066.6666666666665
-0.735,-0.425,4069.4444444444443
-0.705,-0.415,4072.222222222222
-0.695,-0.395,4075.0
-0.685,-0.39,4077.777777777778
-0.665,-0.37,4080.5555555555557
-0.65,-0.35,4083.3333333333335
-0.645,-0.35,4086.1111111111113
-0.63,-0.345,4088.8888888888887
-0.635,-0.355,4091.6666666666665
-0.635,-0.355,4094.4444444444443
-0.645,-0.35,4097.222222222223
-0.64,-0.33,4100.0
-0.615,-0.335,4102.777777777777
-0.6,-0.31,4105.555555555556
-0.59,-0.295,4108.333333333333
-0.58,-0.275,4111.111111111111
-0.55,-0.25,4113.888888888889
-0.535,-0.24,4116.666666666667
-0.515,-0.225,4119.444444444444
-0.51,-0.24,4122.222222222223
-0.495,-0.22,4125.0
-0.48,-0.21,4127.777777777777
-0.475,-0.2,4130.555555555556
-0.465,-0.195,4133.333333333333
-0.455,-0.195,4136.111111111111
-0.44,-0.17,4138.888888888889
-0.435,-0.135,4141.666666666667
-0.41,-0.115,4144.444444444444
-0.375,-0.08,4147.222222222223
-0.355,-0.07,4150.0
-0.33,-0.05,4152.777777777777
-0.305,-0.035,4155.555555555556
-0.3,-0.025,4158.333333333333
-0.3,-0.005,4161.111111111111
-0.285,-0.005,4163.888888888889
-0.295,0.01,4166.666666666667
-0.26,0.035,4169.444444444444
-0.25,0.045,4172.222222222223
-0.25,0.06,4175.0
-0.215,0.1,4177.777777777777
-0.195,0.115,4180.555555555556
-0.2,0.125,4183.333333333333
-0.175,0.135,4186.111111111111
-0.175,0.145,4188.888888888889
-0.15,0.125,4191.666666666667
-0.16,0.125,4194.444444444444
-0.165,0.12,4197.222222222223
-0.17,0.135,4200.0
-0.185,0.13,4202.777777777777
-0.185,0.145,4205.555555555556
-0.195,0.13,4208.333333333333
-0.19,0.125,4211.111111111111
-0.21,0.125,4213.888888888889
-0.215,0.11,4216.666666666667
-0.23,0.075,4219.444444444444
-0.255,0.065,4222.222222222223
-0.3,0.015,4225.0
-0.33,-0.02,4227.777777777777
-0.375,-0.07,4230.555555555556
-0.4,-0.085,4233.333333333333
-0.43,-0.125,4236.111111111111
-0.445,-0.15,4238.888888888889
-0.475,-0.175,4241.666666666667
-0.505,-0.2,4244.444444444444
-0.52,-0.235,4247.222222222223
-0.55,-0.245,4250.0
-0.555,-0.285,4252.777777777777
-0.58,-0.335,4255.555555555556
-0.605,-0.35,4258.333333333333
-0.65,-0.39,4261.111111111111
-0.685,-0.42,4263.888888888889
-0.705,-0.43,4266.666666666667
-0.725,-0.46,4269.444444444444
-0.74,-0.475,4272.222222222223
-0.74,-0.48,4275.0
-0.75,-0.49,4277.777777777777
-0.76,-0.495,4280.555555555556
-0.765,-0.5,4283.333333333333
-0.76,-0.515,4286.111111111111
-0.775,-0.515,4288.888888888889
-0.785,-0.56,4291.666666666667
-0.79,-0.565,4294.444444444444
-0.8,-0.58,4297.222222222223
-0.81,-0.59,4300.0
-0.825,-0.595,4302.777777777777
-0.83,-0.6,4305.555555555556
-0.825,-0.59,4308.333333333333
-0.825,-0.58,4311.111111111111
-0.815,-0.59,4313.888888888889
-0.805,-0.58,4316.666666666667
-0.815,-0.6,4319.444444444444
-0.805,-0.595,4322.222222222223
-0.82,-0.61,4325.0
-0.82,-0.6,4327.777777777777
-0.83,-0.63,4330.555555555556
-0.845,-0.63,4333.333333333333
-0.845,-0.635,4336.111111111111
-0.845,-0.635,4338.888888888889
-0.85,-0.615,4341.666666666667
-0.84,-0.61,4344.444444444444
-0.815,-0.615,4347.222222222223
-0.8,-0.62,4350.0
-0.8,-0.605,4352.777777777777
-0.795,-0.6,4355.555555555556
-0.79,-0.62,4358.333333333333
-0.795,-0.625,4361.111111111111
-0.8,-0.625,4363.888888888889
-0.815,-0.64,4366.666666666667
-0.82,-0.62,4369.444444444444
-0.855,-0.63,4372.222222222223
-0.84,-0.63,4375.0
-0.83,-0.59,4377.777777777777
-0.8,-0.59,4380.555555555556
-0.785,-0.6,4383.333333333333
-0.78,-0.59,4386.111111111111
-0.785,-0.605,4388.888888888889
-0.785,-0.62,4391.666666666667
-0.79,-0.62,4394.444444444444
-0.805,-0.61,4397.222222222223
-0.815,-0.63,4400.0
-0.83,-0.635,4402.777777777777
-0.84,-0.62,4405.555555555556
-0.825,-0.615,4408.333333333333
-0.815,-0.61,4411.111111111111
-0.815,-0.6,4413.888888888889
-0.81,-0.585,4416.666666666667
-0.815,-0.6,4419.444444444444
-0.82,-0.61,4422.222222222223
-0.835,-0.605,4425.0
-0.82,-0.645,4427.777777777777
-0.84,-0.645,4430.555555555556
-0.855,-0.65,4433.333333333333
-0.855,-0.66,4436.111111111111
-0.865,-0.635,4438.888888888889
-0.85,-0.64,4441.666666666667
-0.855,-0.63,4444.444444444444
-0.845,-0.625,4447.222222222223
-0.84,-0.615,4450.0
-0.85,-0.605,4452.777777777777
-0.85,-0.625,4455.555555555556
-0.855,-0.64,4458.333333333333
-0.875,-0.64,4461.111111111111
-0.89,-0.645,4463.888888888889
-0.885,-0.625,4466.666666666667
-0.895,-0.65,4469.444444444444
-0.895,-0.645,4472.222222222223
-0.895,-0.625,4475.0
-0.885,-0.63,4477.777777777777
-0.905,-0.635,4480.555555555556
-0.88,-0.615,4483.333333333333
-0.885,-0.615,4486.111111111111
-0.87,-0.625,4488.888888888889
-0.885,-0.64,4491.666666666667
-0.88,-0.65,4494.444444444444
-0.89,-0.665,4497.222222222223
-0.905,-0.67,4500.0
-0.905,-0.68,4502.777777777777
-0.91,-0.67,4505.555555555556
-0.9,-0.67,4508.333333333333
-0.915,-0.66,4511.111111111111
-0.905,-0.655,4513.888888888889
-0.905,-0.645,4516.666666666667
-0.885,-0.665,4519.444444444444
-0.895,-0.665,4522.222222222223
-0.9,-0.67,4525.0
-0.9,-0.69,4527.777777777777
-0.905,-0.69,4530.555555555556
-0.91,-0.7,4533.333333333333
-0.91,-0.71,4536.111111111111
-0.91,-0.695,4538.888888888889
-0.905,-0.68,4541.666666666667
-0.93,-0.685,4544.444444444444
-0.905,-0.675,4547.222222222223
-0.9,-0.68,4550.0
-0.9,-0.68,4552.777777777777
-0.905,-0.67,4555.555555555556
-0.905,-0.69,4558.333333333333
-0.935,-0.695,4561.111111111111
-0.925,-0.705,4563.888888888889
-0.92,-0.725,4566.666666666667
-0.935,-0.73,4569.444444444444
-0.94,-0.7,4572.222222222223
-0.925,-0.71,4575.0
-0.935,-0.685,4577.777777777777
-0.91,-0.7,4580.555555555556
-0.91,-0.68,4583.333333333333
-0.915,-0.67,4586.111111111111
-0.92,-0.68,4588.888888888889
-0.92,-0.685,4591.666666666667
-0.92,-0.685,4594.444444444444
-0.93,-0.7,4597.222222222223
-0.92,-0.705,4600.0
-0.94,-0.705,4602.777777777777
-0.945,-0.7,4605.555555555556
-0.94,-0.68,4608.333333333333
-0.935,-0.69,4611.111111111111
-0.945,-0.685,4613.888888888889
-0.935,-0.67,4616.666666666667
-0.925,-0.665,4619.444444444444
-0.935,-0.675,4622.222222222223
-0.92,-0.69,4625.0
-0.935,-0.68,4627.777777777777
-0.935,-0.69,4630.555555555556
-0.935,-0.69,4633.333333333333
-0.945,-0.715,4636.111111111111
-0.94,-0.71,4638.888888888889
-0.95,-0.68,4641.666666666667
-0.925,-0.68,4644.444444444444
-0.935,-0.675,4647.222222222223
-0.925,-0.655,4650.0
-0.925,-0.685,4652.777777777777
-0.925,-0.685,4655.555555555556
-0.925,-0.69,4658.333333333333
-0.945,-0.715,4661.111111111111
-0.945,-0.72,4663.888888888889
-0.945,-0.705,4666.666666666667
-0.96,-0.715,4669.444444444444
-0.955,-0.705,4672.222222222223
-0.945,-0.705,4675.0
-0.94,-0.685,4677.777777777777
-0.92,-0.685,4680.555555555556
-0.915,-0.685,4683.333333333333
-0.91,-0.69,4686.111111111111
-0.91,-0.7,4688.888888888889
-0.91,-0.7,4691.666666666667
-0.93,-0.715,4694.444444444444
-0.925,-0.715,4697.222222222223
-0.93,-0.71,4700.0
-0.95,-0.7,4702.777777777777
-0.955,-0.7,4705.555555555556
-0.935,-0.695,4708.333333333333
-0.92,-0.705,4711.111111111111
-0.94,-0.67,4713.888888888889
-0.925,-0.7,4716.666666666667
-0.915,-0.695,4719.444444444444
-0.91,-0.7,4722.222222222223
-0.91,-0.7,4725.0
-0.925,-0.715,4727.777777777777
-0.93,-0.725,4730.555555555556
-0.95,-0.725,4733.333333333333
-0.95,-0.73,4736.111111111111
-0.96,-0.72,4738.888888888889
-0.95,-0.71,4741.666666666667
-0.935,-0.68,4744.444444444444
-0.94,-0.685,4747.222222222223
-0.93,-0.68,4750.0
-0.93,-0.685,4752.777777777777
-0.92,-0.695,4755.555555555556
-0.93,-0.695,4758.333333333333
-0.925,-0.695,4761.111111111111
-0.925,-0.715,4763.888888888889
-0.93,-0.7,4766.666666666667
-0.94,-0.695,4769.444444444444
-0.94,-0.705,4772.222222222223
-0.92,-0.685,4775.0
-0.915,-0.69,4777.777777777777
-0.925,-0.675,4780.555555555556
-0.91,-0.665,4783.333333333333
-0.915,-0.675,4786.111111111111
-0.91,-0.675,4788.888888888889
-0.9,-0.67,4791.666666666667
-0.91,-0.68,4794.444444444444
-0.93,-0.7,4797.222222222223
-0.925,-0.69,4800.0
-0.945,-0.695,4802.777777777777
-0.95,-0.7,4805.555555555556
-0.945,-0.675,4808.333333333333
-0.935,-0.66,4811.111111111111
-0.915,-0.665,4813.888888888889
-0.905,-0.655,4816.666666666667
-0.9,-0.66,4819.444444444444
-0.895,-0.655,4822.222222222223
-0.89,-0.675,4825.0
-0.895,-0.67,4827.777777777777
-0.9,-0.695,4830.555555555556
-0.925,-0.685,4833.333333333333
-0.935,-0.68,4836.111111111111
-0.925,-0.68,4838.888888888889
-0.92,-0.68,4841.666666666667
-0.92,-0.665,4844.444444444444
-0.92,-0.67,4847.222222222223
-0.915,-0.665,4850.0
-0.895,-0.68,4852.777777777777
-0.895,-0.67,4855.555555555556
-0.895,-0.67,4858.333333333333
-0.9,-0.685,4861.111111111111
-0.9,-0.675,4863.888888888889
-0.905,-0.695,4866.666666666667
-0.9,-0.695,4869.444444444444
-0.885,-0.685,4872.222222222223
-0.885,-0.695,4875.0
-0.865,-0.66,4877.777777777777
-0.85,-0.65,4880.555555555556
-0.83,-0.655,4883.333333333333
-0.83,-0.66,4886.111111111111
-0.81,-0.66,4888.888888888889
-0.83,-0.665,4891.666666666667
-0.82,-0.67,4894.444444444444
-0.82,-0.665,4897.222222222223
-0.82,-0.64,4900.0
-0.81,-0.655,4902.777777777777
-0.795,-0.65,4905.555555555556
-0.785,-0.62,4908.333333333333
-0.755,-0.595,4911.111111111111
-0.73,-0.57,4913.888888888889
-0.73,-0.565,4916.666666666667
-0.71,-0.56,4919.444444444444
-0.7,-0.545,4922.222222222223
-0.71,-0.52,4925.0
-0.745,-0.52,4927.777777777777
-0.75,-0.515,4930.555555555556
-0.785,-0.515,4933.333333333333
-0.82,-0.53,4936.111111111111
-0.815,-0.52,4938.888888888889
-0.82,-0.505,4941.666666666667
-0.81,-0.505,4944.444444444444
-0.81,-0.515,4947.222222222223
-0.82,-0.505,4950.0
-0.82,-0.505,4952.777777777777
-0.835,-0.53,4955.555555555556
-0.855,-0.545,4958.333333333333
-0.895,-0.57,4961.111111111111
-0.91,-0.595,4963.888888888889
-0.915,-0.62,4966.666666666667
-0.925,-0.64,4969.444444444444
-0.925,-0.65,4972.222222222223
-0.925,-0.64,4975.0
-0.915,-0.635,4977.777777777777
-0.93,-0.645,4980.555555555556
-0.92,-0.635,4983.333333333333
-0.92,-0.64,4986.111111111111
-0.935,-0.645,4988.888888888889
-0.95,-0.655,4991.666666666667
-0.965,-0.675,4994.444444444444
-0.965,-0.675,4997.222222222223
-0.995,-0.68,5000.0
-0.98,-0.69,5002.777777777777
-0.985,-0.685,5005.555555555556
-0.975,-0.675,5008.333333333333
-0.955,-0.66,5011.111111111111
-0.97,-0.665,5013.888888888889
-0.94,-0.65,5016.666666666667
-0.925,-0.655,5019.444444444444
-0.94,-0.67,5022.222222222223
-0.96,-0.67,5025.0
-0.95,-0.695,5027.777777777777
-0.95,-0.685,5030.555555555556
-0.975,-0.695,5033.333333333333
-0.965,-0.685,5036.111111111111
-0.96,-0.67,5038.888888888889
-0.96,-0.665,5041.666666666667
-0.925,-0.675,5044.444444444444
-0.9,-0.675,5047.222222222223
-0.86,-0.67,5050.0
-0.79,-0.65,5052.777777777777
-0.705,-0.59,5055.555555555556
-0.605,-0.5,5058.333333333333
-0.495,-0.35,5061.111111111111
-0.355,-0.165,5063.888888888889
-0.23,0.05,5066.666666666667
-0.145,0.3,5069.444444444444
-0.11,0.565,5072.222222222223
-0.18,0.775,5075.0
-0.31,0.925,5077.777777777777
-0.53,0.97,5080.555555555556
-0.77,0.875,5083.333333333333
-1.01,0.65,5086.111111111111
-1.28,0.315,5088.888888888889
-1.495,-0.065,5091.666666666667
-1.67,-0.455,5094.444444444444
-1.71,-0.785,5097.222222222223
-1.695,-0.995,5100.0
-1.6,-1.05,5102.777777777777
-1.49,-0.99,5105.555555555556
-1.38,-0.885,5108.333333333333
-1.255,-0.765,5111.111111111111
-1.155,-0.725,5113.888888888889
-1.095,-0.675,5116.666666666667
-1.015,-0.66,5119.444444444444
-0.96,-0.645,5122.222222222223
-0.9,-0.645,5125.0
-0.89,-0.64,5127.777777777777
-0.875,-0.645,5130.555555555556
-0.875,-0.645,5133.333333333333
-0.885,-0.64,5136.111111111111
-0.9,-0.655,5138.888888888889
-0.915,-0.64,5141.666666666667
-0.905,-0.635,5144.444444444444
-0.88,-0.63,5147.222222222223
-0.85,-0.625,5150.0
-0.84,-0.625,5152.777777777777
-0.835,-0.625,5155.555555555556
-0.845,-0.625,5158.333333333333
-0.835,-0.625,5161.111111111111
-0.825,-0.635,5163.888888888889
-0.845,-0.625,5166.666666666667
-0.835,-0.62,5169.444444444444
-0.85,-0.615,5172.222222222223
-0.84,-0.595,5175.0
-0.84,-0.575,5177.777777777777
-0.825,-0.575,5180.555555555556
-0.83,-0.56,5183.333333333333
-0.815,-0.58,5186.111111111111
-0.805,-0.57,5188.888888888889
-0.82,-0.575,5191.666666666667
-0.815,-0.6,5194.444444444444
-0.82,-0.6,5197.222222222223
-0.825,-0.59,5200.0
-0.83,-0.595,5202.777777777777
-0.82,-0.585,5205.555555555556
-0.805,-0.565,5208.333333333333
-0.79,-0.535,5211.111111111111
-0.785,-0.545,5213.888888888889
-0.77,-0.52,5216.666666666667
-0.775,-0.51,5219.444444444444
-0.765,-0.515,5222.222222222223
-0.765,-0.515,5225.0
-0.77,-0.535,5227.777777777777
-0.765,-0.53,5230.555555555556
-0.795,-0.54,5233.333333333333
-0.79,-0.53,5236.111111111111
-0.795,-0.545,5238.888888888889
-0.795,-0.5,5241.666666666667
-0.765,-0.49,5244.444444444444
-0.75,-0.495,5247.222222222223
-0.755,-0.465,5250.0
-0.73,-0.49,5252.777777777777
-0.735,-0.475,5255.555555555556
-0.725,-0.475,5258.333333333333
-0.72,-0.465,5261.111111111111
-0.725,-0.49,5263.888888888889
-0.73,-0.475,5266.666666666667
-0.73,-0.48,5269.444444444444
-0.725,-0.46,5272.222222222223
-0.735,-0.445,5275.0
-0.705,-0.42,5277.777777777777
-0.685,-0.395,5280.555555555556
-0.675,-0.37,5283.333333333333
-0.65,-0.37,5286.111111111111
-0.635,-0.37,5288.888888888889
-0.635,-0.35,5291.666666666667
-0.625,-0.36,5294.444444444444
-0.625,-0.345,5297.222222222223
-0.61,-0.325,5300.0
-0.615,-0.32,5302.777777777777
-0.6,-0.305,5305.555555555556
-0.575,-0.28,5308.333333333333
-0.56,-0.25,5311.111111111111
-0.545,-0.235,5313.888888888889
-0.525,-0.2,5316.666666666667
-0.485,-0.195,5319.444444444444
-0.475,-0.17,5322.222222222223
-0.46,-0.15,5325.0
-0.425,-0.15,5327.777777777777
-0.425,-0.14,5330.555555555556
-0.405,-0.14,5333.333333333333
-0.43,-0.105,5336.111111111111
-0.395,-0.09,5338.888888888889
-0.375,-0.07,5341.666666666667
-0.365,-0.035,5344.444444444444
-0.345,-0.015,5347.222222222223
-0.295,0.005,5350.0
-0.265,0.045,5352.777777777777
-0.255,0.055,5355.555555555556
-0.245,0.05,5358.333333333333
-0.25,0.05,5361.111111111111
-0.26,0.075,5363.888888888889
-0.26,0.075,5366.666666666667
-0.27,0.08,5369.444444444444
-0.26,0.09,5372.222222222223
-0.26,0.11,5375.0
-0.255,0.1,5377.777777777777
-0.26,0.11,5380.555555555556
-0.27,0.11,5383.333333333333
-0.26,0.09,5386.111111111111
-0.265,0.075,5388.888888888889
-0.29,0.055,5391.666666666667
-0.32,0.0,5394.444444444444
-0.345,-0.03,5397.222222222223
-0.39,-0.065,5400.0
-0.405,-0.095,5402.777777777777
-0.455,-0.12,5405.555555555556
-0.49,-0.165,5408.333333333333
-0.51,-0.185,5411.111111111111
-0.53,-0.22,5413.888888888889
-0.57,-0.26,5416.666666666667
-0.6,-0.31,5419.444444444444
-0.62,-0.33,5422.222222222223
-0.65,-0.385,5425.0
-0.69,-0.43,5427.777777777777
-0.715,-0.465,5430.555555555556
-0.755,-0.49,5433.333333333333
-0.765,-0.52,5436.111111111111
-0.79,-0.545,5438.888888888889
-0.81,-0.565,5441.666666666667
-0.815,-0.555,5444.444444444444
-0.82,-0.56,5447.222222222223
-0.81,-0.565,5450.0
-0.82,-0.55,5452.777777777777
-0.84,-0.575,5455.555555555556
-0.855,-0.595,5458.333333333333
-0.86,-0.59,5461.111111111111
-0.88,-0.61,5463.888888888889
-0.885,-0.62,5466.666666666667
-0.89,-0.63,5469.444444444444
-0.895,-0.63,5472.222222222223
-0.895,-0.63,5475.0
-0.895,-0.63,5477.777777777777
-0.89,-0.63,5480.555555555556
-0.88,-0.625,5483.333333333333
-0.885,-0.63,5486.111111111111
-0.885,-0.65,5488.888888888889
-0.87,-0.66,5491.666666666667
-0.88,-0.66,5494.444444444444
-0.895,-0.67,5497.222222222223
-0.9,-0.67,5500.0
-0.89,-0.685,5502.777777777777
-0.905,-0.665,5505.555555555556
-0.915,-0.67,5508.333333333333
-0.915,-0.645,5511.111111111111
-0.885,-0.63,5513.888888888889
-0.895,-0.625,5516.666666666667
-0.875,-0.63,5519.444444444444
-0.9,-0.645,5522.222222222223
-0.915,-0.635,5525.0
-0.91,-0.66,5527.777777777777
-0.91,-0.685,5530.555555555556
-0.905,-0.65,5533.333333333333
-0.91,-0.665,5536.111111111111
-0.91,-0.64,5538.888888888889
-0.925,-0.645,5541.666666666667
-0.91,-0.63,5544.444444444444
-0.895,-0.63,5547.222222222223
-0.895,-0.61,5550.0
-0.89,-0.62,5552.777777777777
-0.88,-0.62,5555.555555555556
-0.895,-0.615,5558.333333333333
-0.89,-0.615,5561.111111111111
-0.9,-0.615,5563.888888888889
-0.905,-0.635,5566.666666666667
-0.915,-0.635,5569.444444444444
-0.925,-0.635,5572.222222222223
-0.925,-0.625,5575.0
-0.91,-0.62,5577.777777777777
-0.895,-0.59,5580.555555555556
-0.895,-0.59,5583.333333333333
-0.87,-0.585,5586.111111111111
-0.885,-0.59,5588.888888888889
-0.885,-0.585,5591.666666666667
-0.905,-0.595,5594.444444444444
-0.92,-0.62,5597.222222222223
-0.93,-0.64,5600.0
-0.92,-0.635,5602.777777777777
-0.935,-0.615,5605.555555555556
-0.945,-0.635,5608.333333333333
-0.935,-0.61,5611.111111111111
-0.955,-0.615,5613.888888888889
-0.93,-0.615,5616.666666666667
-0.92,-0.59,5619.444444444444
-0.93,-0.61,5622.222222222223
-0.945,-0.615,5625.0
-0.95,-0.64,5627.777777777777
-0.96,-0.65,5630.555555555556
-0.98,-0.655,5633.333333333333
-0.975,-0.665,5636.111111111111
-0.975,-0.645,5638.888888888889
-0.99,-0.65,5641.666666666667
-0.97,-0.65,5644.444444444444
-0.965,-0.635,5647.222222222223
-0.96,-0.63,5650.0
-0.945,-0.64,5652.777777777777
-0.955,-0.635,5655.555555555556
-0.95,-0.635,5658.333333333333
-0.985,-0.665,5661.111111111111
-1.0,-0.68,5663.888888888889
-1.015,-0.685,5666.666666666667
-1.0,-0.68,5669.444444444444
-1.0,-0.675,5672.222222222223
-0.99,-0.67,5675.0
-0.995,-0.66,5677.777777777777
-0.98,-0.64,5680.555555555556
-0.975,-0.635,5683.333333333333
-0.97,-0.645,5686.111111111111
-0.96,-0.645,5688.888888888889
-0.965,-0.665,5691.666666666667
-0.985,-0.665,5694.444444444444
-1.0,-0.69,5697.222222222223
-1.005,-0.69,5700.0
-1.01,-0.69,5702.777777777777
-1.015,-0.68,5705.555555555556
-1.015,-0.68,5708.333333333333
-1.01,-0.67,5711.111111111111
-1.0,-0.65,5713.888888888889
-0.99,-0.655,5716.666666666667
-0.99,-0.645,5719.444444444444
-0.98,-0.66,5722.222222222223
-0.975,-0.67,5725.0
-0.985,-0.665,5727.777777777777
-0.98,-0.68,5730.555555555556
-0.995,-0.7,5733.333333333333
-1.005,-0.7,5736.111111111111
-1.025,-0.695,5738.888888888889
-1.025,-0.705,5741.666666666667
-1.005,-0.685,5744.444444444444
-1.01,-0.68,5747.222222222223
-0.99,-0.66,5750.0
-0.99,-0.655,5752.777777777777
-0.98,-0.665,5755.555555555556
-1.0,-0.665,5758.333333333333
-1.005,-0.68,5761.111111111111
-1.015,-0.695,5763.888888888889
-1.03,-0.71,5766.666666666667
-1.025,-0.7,5769.444444444444
-1.02,-0.69,5772.222222222223
-1.025,-0.7,5775.0
-1.01,-0.68,5777.777777777777
-1.01,-0.68,5780.555555555556
-0.995,-0.665,5783.333333333333
-1.0,-0.66,5786.111111111111
-1.02,-0.665,5788.888888888889
-1.02,-0.69,5791.666666666667
-1.035,-0.69,5794.444444444444
-1.025,-0.695,5797.222222222223
-1.03,-0.705,5800.0
-1.055,-0.72,5802.777777777777
-1.055,-0.705,5805.555555555556
-1.055,-0.705,5808.333333333333
-1.035,-0.68,5811.111111111111
-1.01,-0.675,5813.888888888889
-1.005,-0.655,5816.666666666667
-1.0,-0.64,5819.444444444444
-1.01,-0.65,5822.222222222223
-1.0,-0.67,5825.0
-1.005,-0.685,5827.777777777777
-1.03,-0.675,5830.555555555556
-1.025,-0.685,5833.333333333333
-1.035,-0.685,5836.111111111111
-1.035,-0.69,5838.888888888889
-1.03,-0.675,5841.666666666667
-1.025,-0.675,5844.444444444444
-1.025,-0.655,5847.222222222223
-1.015,-0.665,5850.0
-1.02,-0.675,5852.777777777777
-1.02,-0.68,5855.555555555556
-1.01,-0.69,5858.333333333333
-1.015,-0.695,5861.111111111111
-1.035,-0.695,5863.888888888889
-1.045,-0.72,5866.666666666667
-1.04,-0.71,5869.444444444444
-1.03,-0.705,5872.222222222223
-1.04,-0.7,5875.0
-1.04,-0.695,5877.777777777777
-1.03,-0.675,5880.555555555556
-1.02,-0.67,5883.333333333333
-1.01,-0.67,5886.111111111111
-0.995,-0.665,5888.888888888889
-1.0,-0.69,5891.666666666667
-1.005,-0.695,5894.444444444444
-1.035,-0.715,5897.222222222223
-1.06,-0.71,5900.0
-1.045,-0.71,5902.777777777777
-1.045,-0.7,5905.555555555556
-1.04,-0.695,5908.333333333333
-1.025,-0.69,5911.111111111111
-1.03,-0.68,5913.888888888889
-1.01,-0.665,5916.666666666667
-1.0,-0.68,5919.444444444444
-1.005,-0.67,5922.222222222223
-1.015,-0.675,5925.0
-1.005,-0.66,5927.777777777777
-1.02,-0.68,5930.555555555556
-1.025,-0.695,5933.333333333333
-1.015,-0.685,5936.111111111111
-1.03,-0.68,5938.888888888889
-1.02,-0.675,5941.666666666667
-1.025,-0.66,5944.444444444444
-1.02,-0.65,5947.222222222223
-1.025,-0.655,5950.0
-1.0,-0.65,5952.777777777777
-1.01,-0.63,5955.555555555556
-1.01,-0.64,5958.333333333333
-0.995,-0.675,5961.111111111111
-1.005,-0.66,5963.888888888889
-1.01,-0.65,5966.666666666667
-1.01,-0.655,5969.444444444444
-1.025,-0.67,5972.222222222223
-1.03,-0.65,5975.0
-1.015,-0.65,5977.777777777777
-1.02,-0.63,5980.555555555556
-1.005,-0.63,5983.333333333333
-0.99,-0.635,5986.111111111111
-0.995,-0.63,5988.888888888889
-0.985,-0.64,5991.666666666667
-1.01,-0.635,5994.444444444444
-1.005,-0.66,5997.222222222223
-1.005,-0.675,6000.0
-1.02,-0.665,6002.777777777777
-1.03,-0.67,6005.555555555556
-1.015,-0.65,6008.333333333333
-1.005,-0.645,6011.111111111111
-0.99,-0.625,6013.888888888889
-0.97,-0.62,6016.666666666667
-0.97,-0.61,6019.444444444444
-0.965,-0.63,6022.222222222223
-0.97,-0.62,6025.0
-0.94,-0.65,6027.777777777777
-0.925,-0.645,6030.555555555556
-0.925,-0.675,6033.333333333333
-0.93,-0.68,6036.111111111111
-0.94,-0.68,6038.888888888889
-0.94,-0.665,6041.666666666667
-0.935,-0.645,6044.444444444444
-0.915,-0.625,6047.222222222223
-0.895,-0.585,6050.0
-0.87,-0.585,6052.777777777777
-0.86,-0.59,6055.555555555556
-0.83,-0.565,6058.333333333333
-0.84,-0.565,6061.111111111111
-0.84,-0.56,6063.888888888889
-0.845,-0.555,6066.666666666667
-0.84,-0.54,6069.444444444444
-0.855,-0.51,6072.222222222223
-0.865,-0.5,6075.0
-0.87,-0.49,6077.777777777777
-0.865,-0.47,6080.555555555556
-0.86,-0.475,6083.333333333333
-0.865,-0.48,6086.111111111111
-0.875,-0.49,6088.888888888889
-0.875,-0.515,6091.666666666667
-0.895,-0.49,6094.444444444444
-0.93,-0.53,6097.222222222223
-0.96,-0.53,6100.0
-1.005,-0.55,6102.777777777777
-1.01,-0.55,6105.555555555556
-1.015,-0.575,6108.333333333333
-1.04,-0.56,6111.111111111111
-1.025,-0.565,6113.888888888889
-1.01,-0.59,6116.666666666667
-1.015,-0.605,6119.444444444444
-1.005,-0.61,6122.222222222223
-1.01,-0.63,6125.0
-1.015,-0.645,6127.777777777777
-1.03,-0.645,6130.555555555556
-1.04,-0.66,6133.333333333333
-1.045,-0.655,6136.111111111111
-1.06,-0.655,6138.888888888889
-1.06,-0.66,6141.666666666667
-1.065,-0.655,6144.444444444444
-1.065,-0.65,6147.222222222223
-1.045,-0.63,6150.0
-1.03,-0.635,6152.777777777777
-1.03,-0.62,6155.555555555556
-1.015,-0.635,6158.333333333333
-1.02,-0.64,6161.111111111111
-1.03,-0.66,6163.888888888889
-1.03,-0.665,6166.666666666667
-1.03,-0.67,6169.444444444444
-1.04,-0.665,6172.222222222223
-1.04,-0.66,6175.0
-1.035,-0.64,6177.777777777777
-1.025,-0.615,6180.555555555556
-1.015,-0.62,6183.333333333333
-1.0,-0.6,6186.111111111111
-0.985,-0.63,6188.888888888889
-0.995,-0.63,6191.666666666667
-0.975,-0.635,6194.444444444444
-0.96,-0.65,6197.222222222223
-0.885,-0.615,6200.0
-0.8,-0.565,6202.777777777777
-0.71,-0.465,6205.555555555556
-0.6,-0.3,6208.333333333333
-0.445,-0.075,6211.111111111111
-0.3,0.17,6213.888888888889
-0.18,0.43,6216.666666666667
-0.13,0.68,6219.444444444444
-0.195,0.885,6222.222222222223
-0.36,1.02,6225.0
-0.6,1.03,6227.777777777777
-0.885,0.935,6230.555555555556
-1.185,0.695,6233.333333333333
-1.455,0.355,6236.111111111111
-1.7,-0.06,6238.888888888889
-1.86,-0.5,6241.666666666667
-1.92,-0.885,6244.444444444444
-1.875,-1.145,6247.222222222223
-1.76,-1.21,6250.0
-1.62,-1.125,6252.777777777777
-1.505,-0.995,6255.555555555556
-1.415,-0.885,6258.333333333333
-1.34,-0.805,6261.111111111111
-1.29,-0.785,6263.888888888889
-1.23,-0.76,6266.666666666667
-1.165,-0.735,6269.444444444444
-1.095,-0.7,6272.222222222223
-1.04,-0.655,6275.0
-0.99,-0.63,6277.777777777777
-0.96,-0.62,6280.555555555556
-0.945,-0.6,6283.333333333333
-0.935,-0.605,6286.111111111111
-0.94,-0.605,6288.888888888889
-0.94,-0.625,6291.666666666667
-0.945,-0.625,6294.444444444444
-0.935,-0.625,6297.222222222223
-0.945,-0.635,6300.0
-0.93,-0.625,6302.777777777777
-0.935,-0.61,6305.555555555556
-0.93,-0.62,6308.333333333333
-0.91,-0.585,6311.111111111111
-0.89,-0.585,6313.888888888889
-0.885,-0.565,6316.666666666667
-0.87,-0.565,6319.444444444444
-0.885,-0.575,6322.222222222223
-0.875,-0.57,6325.0
-0.875,-0.575,6327.777777777777
-0.88,-0.585,6330.555555555556
-0.885,-0.58,6333.333333333333
-0.88,-0.575,6336.111111111111
-0.89,-0.57,6338.888888888889
-0.875,-0.56,6341.666666666667
-0.87,-0.55,6344.444444444444
-0.855,-0.55,6347.222222222223
-0.845,-0.53,6350.0
-0.82,-0.545,6352.777777777777
-0.825,-0.525,6355.555555555556
-0.815,-0.515,6358.333333333333
-0.83,-0.52,6361.111111111111
-0.835,-0.54,6363.888888888889
-0.865,-0.535,6366.666666666667
-0.86,-0.545,6369.444444444444
-0.845,-0.51,6372.222222222223
-0.845,-0.515,6375.0
-0.83,-0.51,6377.777777777777
-0.815,-0.485,6380.555555555556
-0.795,-0.47,6383.333333333333
-0.805,-0.465,6386.111111111111
-0.8,-0.46,6388.888888888889
-0.79,-0.47,6391.666666666667
-0.775,-0.465,6394.444444444444
-0.78,-0.47,6397.222222222223
-0.775,-0.465,6400.0
-0.775,-0.46,6402.777777777777
-0.785,-0.445,6405.555555555556
-0.77,-0.44,6408.333333333333
-0.745,-0.42,6411.111111111111
-0.74,-0.4,6413.888888888889
-0.715,-0.39,6416.666666666667
-0.705,-0.395,6419.444444444444
-0.7,-0.39,6422.222222222223
-0.7,-0.365,6425.0
-0.685,-0.375,6427.777777777777
-0.695,-0.355,6430.555555555556
-0.69,-0.36,6433.333333333333
-0.665,-0.355,6436.111111111111
-0.65,-0.335,6438.888888888889
-0.645,-0.31,6441.666666666667
-0.62,-0.275,6444.444444444444
-0.605,-0.26,6447.222222222223
-0.585,-0.245,6450.0
-0.555,-0.23,6452.777777777777
-0.54,-0.205,6455.555555555556
-0.52,-0.205,6458.333333333333
-0.495,-0.195,6461.111111111111
-0.485,-0.19,6463.888888888889
-0.495,-0.19,6466.666666666667
-0.475,-0.18,6469.444444444444
-0.48,-0.15,6472.222222222223
-0.455,-0.13,6475.0
-0.42,-0.09,6477.777777777777
-0.4,-0.09,6480.555555555556
-0.39,-0.03,6483.333333333333
-0.365,-0.035,6486.111111111111
-0.375,-0.015,6488.888888888889
-0.355,-0.025,6491.666666666667
-0.365,0.0,6494.444444444444
-0.335,0.005,6497.222222222223
-0.325,-0.005,6500.0
-0.32,0.015,6502.777777777777
-0.305,0.03,6505.555555555556
-0.31,0.04,6508.333333333333
-0.295,0.05,6511.111111111111
-0.295,0.07,6513.888888888889
-0.295,0.08,6516.666666666667
-0.285,0.095,6519.444444444444
-0.28,0.09,6522.222222222223
-0.3,0.075,6525.0
-0.305,0.07,6527.777777777777
-0.32,0.06,6530.555555555556
-0.305,0.035,6533.333333333333
-0.335,0.03,6536.111111111111
-0.34,0.025,6538.888888888889
-0.35,0.01,6541.666666666667
-0.365,0.005,6544.444444444444
-0.37,-0.02,6547.222222222223
-0.38,-0.055,6550.0
-0.39,-0.085,6552.777777777777
-0.415,-0.125,6555.555555555556
-0.46,-0.15,6558.333333333333
-0.5,-0.195,6561.111111111111
-0.55,-0.23,6563.888888888889
-0.565,-0.285,6566.666666666667
-0.595,-0.32,6569.444444444444
-0.62,-0.35,6572.222222222223
-0.655,-0.375,6575.0
-0.68,-0.385,6577.777777777777
-0.685,-0.41,6580.555555555556
-0.7,-0.445,6583.333333333333
-0.725,-0.48,6586.111111111111
-0.755,-0.49,6588.888888888889
-0.775,-0.51,6591.666666666667
-0.8,-0.565,6594.444444444444
-0.825,-0.58,6597.222222222223
-0.835,-0.62,6600.0
-0.845,-0.62,6602.777777777777
-0.865,-0.645,6605.555555555556
-0.86,-0.64,6608.333333333333
-0.865,-0.63,6611.111111111111
-0.875,-0.64,6613.888888888889
-0.88,-0.645,6616.666666666667
-0.865,-0.655,6619.444444444444
-0.88,-0.665,6622.222222222223
-0.9,-0.67,6625.0
-0.905,-0.7,6627.777777777777
-0.915,-0.7,6630.555555555556
-0.91,-0.725,6633.333333333333
-0.92,-0.72,6636.111111111111
-0.92,-0.725,6638.888888888889
-0.915,-0.705,6641.666666666667
-0.9,-0.71,6644.444444444444
-0.9,-0.705,6647.222222222223
-0.895,-0.695,6650.0
-0.89,-0.695,6652.777777777777
-0.895,-0.695,6655.555555555556
-0.895,-0.695,6658.333333333333
-0.9,-0.72,6661.111111111111
-0.9,-0.715,6663.888888888889
-0.91,-0.74,6666.666666666667
-0.915,-0.745,6669.444444444444
-0.925,-0.745,6672.222222222223
-0.91,-0.735,6675.0
-0.915,-0.715,6677.777777777777
-0.9,-0.715,6680.555555555556
-0.885,-0.705,6683.333333333333
-0.865,-0.685,6686.111111111111
-0.875,-0.695,6688.888888888889
-0.875,-0.69,6691.666666666667
-0.885,-0.705,6694.444444444444
-0.9,-0.71,6697.222222222223
-0.9,-0.725,6700.0
-0.9,-0.725,6702.777777777777
-0.91,-0.7,6705.555555555556
-0.925,-0.71,6708.333333333333
-0.89,-0.695,6711.111111111111
-0.895,-0.685,6713.888888888889
-0.875,-0.685,6716.666666666667
-0.885,-0.67,6719.444444444444
-0.89,-0.68,6722.222222222223
-0.895,-0.675,6725.0
-0.89,-0.695,6727.777777777777
-0.9,-0.695,6730.555555555556
-0.91,-0.705,6733.333333333333
-0.915,-0.7,6736.111111111111
-0.93,-0.705,6738.888888888889
-0.905,-0.68,6741.666666666667
-0.915,-0.685,6744.444444444444
-0.9,-0.665,6747.222222222223
-0.895,-0.66,6750.0
-0.89,-0.665,6752.777777777777
-0.89,-0.67,6755.555555555556
-0.895,-0.675,6758.333333333333
-0.9,-0.68,6761.111111111111
-0.93,-0.69,6763.888888888889
-0.935,-0.7,6766.666666666667
-0.945,-0.705,6769.444444444444
-0.95,-0.7,6772.222222222223
-0.965,-0.705,6775.0
-0.96,-0.7,6777.777777777777
-0.95,-0.68,6780.555555555556
-0.935,-0.67,6783.333333333333
-0.905,-0.675,6786.111111111111
-0.92,-0.675,6788.888888888889
-0.92,-0.695,6791.666666666667
-0.93,-0.71,6794.444444444444
-0.95,-0.73,6797.222222222223
-0.95,-0.73,6800.0
-0.965,-0.725,6802.777777777777
-0.98,-0.735,6805.555555555556
-0.965,-0.74,6808.333333333333
-0.96,-0.72,6811.111111111111
-0.965,-0.73,6813.888888888889
-0.94,-0.72,6816.666666666667
-0.94,-0.725,6819.444444444444
-0.945,-0.73,6822.222222222223
-0.94,-0.74,6825.0
-0.95,-0.75,6827.777777777777
-0.97,-0.76,6830.555555555556
-0.97,-0.76,6833.333333333333
-0.98,-0.77,6836.111111111111
-0.99,-0.77,6838.888888888889
-0.98,-0.75,6841.666666666667
-0.97,-0.74,6844.444444444444
-0.97,-0.75,6847.222222222223
-0.96,-0.73,6850.0
-0.95,-0.74,6852.777777777777
-0.955,-0.735,6855.555555555556
-0.955,-0.735,6858.333333333333
-0.975,-0.755,6861.111111111111
-0.99,-0.78,6863.888888888889
-0.99,-0.775,6866.666666666667
-0.995,-0.775,6869.444444444444
-0.995,-0.77,6872.222222222223
-0.99,-0.785,6875.0
-0.99,-0.78,6877.777777777777
-0.98,-0.755,6880.555555555556
-0.98,-0.76,6883.333333333333
-0.98,-0.765,6886.111111111111
-0.97,-0.765,6888.888888888889
-0.965,-0.76,6891.666666666667
-0.97,-0.77,6894.444444444444
-0.98,-0.79,6897.222222222223
-0.99,-0.795,6900.0
-0.98,-0.8,6902.777777777777
-0.985,-0.785,6905.555555555556
-1.0,-0.79,6908.333333333333
-1.01,-0.775,6911.111111111111
-0.985,-0.745,6913.888888888889
-0.975,-0.765,6916.666666666667
-0.97,-0.745,6919.444444444444
-0.975,-0.755,6922.222222222223
-0.98,-0.755,6925.0
-0.995,-0.77,6927.777777777777
-0.99,-0.78,6930.555555555556
-1.005,-0.775,6933.333333333333
-0.99,-0.765,6936.111111111111
-1.005,-0.75,6938.888888888889
-1.01,-0.755,6941.666666666667
-0.98,-0.74,6944.444444444444
-0.98,-0.74,6947.222222222223
-0.98,-0.7,6950.0
-0.965,-0.72,6952.777777777777
-0.965,-0.7,6955.555555555556
-0.97,-0.715,6958.333333333333
-0.98,-0.735,6961.111111111111
-0.98,-0.755,6963.888888888889
-0.985,-0.75,6966.666666666667
-0.98,-0.75,6969.444444444444
-1.0,-0.74,6972.222222222223
-0.99,-0.73,6975.0
-0.99,-0.745,6977.777777777777
-0.985,-0.73,6980.555555555556
-0.96,-0.705,6983.333333333333
-0.945,-0.72,6986.111111111111
-0.955,-0.71,6988.888888888889
-0.975,-0.725,6991.666666666667
-0.98,-0.74,6994.444444444444
-0.975,-0.735,6997.222222222223
-0.985,-0.75,7000.0
-0.99,-0.755,7002.777777777777
-1.005,-0.74,7005.555555555556
-1.01,-0.735,7008.333333333333
-1.005,-0.72,7011.111111111111
-0.99,-0.715,7013.888888888889
-0.98,-0.715,7016.666666666667
-0.97,-0.715,7019.444444444444
-0.975,-0.71,7022.222222222223
-0.995,-0.72,7025.0
-0.98,-0.735,7027.777777777777
-0.98,-0.725,7030.555555555556
-0.99,-0.75,7033.333333333333
-0.995,-0.745,7036.111111111111
-0.995,-0.73,7038.888888888889
-0.99,-0.735,7041.666666666667
-0.985,-0.725,7044.444444444444
-0.98,-0.715,7047.222222222223
-0.97,-0.71,7050.0
-0.965,-0.7,7052.777777777777
-0.97,-0.71,7055.555555555556
-0.985,-0.72,7058.333333333333
-0.98,-0.72,7061.111111111111
-0.99,-0.725,7063.888888888889
-1.0,-0.74,7066.666666666667
-1.0,-0.75,7069.444444444444
-0.995,-0.725,7072.222222222223
-0.995,-0.74,7075.0
-0.985,-0.73,7077.777777777777
-0.965,-0.715,7080.555555555556
-0.96,-0.715,7083.333333333333
-0.945,-0.715,7086.111111111111
-0.945,-0.72,7088.888888888889
-0.95,-0.72,7091.666666666667
-0.96,-0.72,7094.444444444444
-0.965,-0.745,7097.222222222223
-0.98,-0.76,7100.0
-0.975,-0.745,7102.777777777777
-0.99,-0.74,7105.555555555556
-0.98,-0.765,7108.333333333333
-0.98,-0.74,7111.111111111111
-0.985,-0.73,7113.888888888889
-0.97,-0.725,7116.666666666667
-0.98,-0.72,7119.444444444444
-0.96,-0.725,7122.222222222223
-0.96,-0.705,7125.0
-0.95,-0.725,7127.777777777777
-0.975,-0.73,7130.555555555556
-0.975,-0.745,7133.333333333333
-0.98,-0.73,7136.111111111111
-0.975,-0.72,7138.888888888889
-0.985,-0.715,7141.666666666667
-0.975,-0.705,7144.444444444444
-0.96,-0.69,7147.222222222223
-0.955,-0.69,7150.0
-0.955,-0.695,7152.777777777777
-0.95,-0.69,7155.555555555556
-0.955,-0.705,7158.333333333333
-0.96,-0.72,7161.111111111111
-0.965,-0.72,7163.888888888889
-0.96,-0.73,7166.666666666667
-0.97,-0.715,7169.444444444444
-1.0,-0.715,7172.222222222223
-0.985,-0.7,7175.0
-0.96,-0.695,7177.777777777777
-0.955,-0.68,7180.555555555556
-0.945,-0.68,7183.333333333333
-0.94,-0.68,7186.111111111111
-0.945,-0.69,7188.888888888889
-0.93,-0.68,7191.666666666667
-0.945,-0.705,7194.444444444444
-0.965,-0.7,7197.222222222223
-0.96,-0.705,7200.0
-0.965,-0.705,7202.777777777777
-0.975,-0.7,7205.555555555556
-0.955,-0.68,7208.333333333333
-0.95,-0.67,7211.111111111111
-0.935,-0.66,7213.888888888889
-0.92,-0.65,7216.666666666667
-0.9,-0.655,7219.444444444444
-0.885,-0.65,7222.222222222223
-0.87,-0.67,7225.0
-0.86,-0.675,7227.777777777777
-0.86,-0.695,7230.555555555556
-0.85,-0.715,7233.333333333333
-0.86,-0.715,7236.111111111111
-0.865,-0.695,7238.888888888889
-0.87,-0.67,7241.666666666667
-0.85,-0.64,7244.444444444444
-0.845,-0.625,7247.222222222223
-0.8,-0.595,7250.0
-0.78,-0.585,7252.777777777777
-0.77,-0.585,7255.555555555556
-0.78,-0.58,7258.333333333333
-0.79,-0.58,7261.111111111111
-0.78,-0.57,7263.888888888889
-0.795,-0.56,7266.666666666667
-0.795,-0.54,7269.444444444444
-0.825,-0.535,7272.222222222223
-0.84,-0.53,7275.0
-0.83,-0.515,7277.777777777777
-0.825,-0.515,7280.555555555556
-0.84,-0.505,7283.333333333333
-0.835,-0.5,7286.111111111111
-0.85,-0.525,7288.888888888889
-0.855,-0.52,7291.666666666667
-0.865,-0.54,7294.444444444444
-0.89,-0.56,7297.222222222223
-0.915,-0.585,7300.0
-0.935,-0.6,7302.777777777777
-0.965,-0.62,7305.555555555556
-0.965,-0.61,7308.333333333333
-0.97,-0.62,7311.111111111111
-0.97,-0.64,7313.888888888889
-0.97,-0.63,7316.666666666667
-0.95,-0.64,7319.444444444444
-0.96,-0.665,7322.222222222223
-0.945,-0.68,7325.0
-0.955,-0.675,7327.777777777777
-0.965,-0.675,7330.555555555556
-0.99,-0.7,7333.333333333333
-1.01,-0.695,7336.111111111111
-1.005,-0.695,7338.888888888889
-1.01,-0.695,7341.666666666667
-1.01,-0.68,7344.444444444444
-1.01,-0.68,7347.222222222223
-0.99,-0.665,7350.0
-0.98,-0.68,7352.777777777777
-0.99,-0.68,7355.555555555556
-0.965,-0.685,7358.333333333333
-0.965,-0.7,7361.111111111111
-0.975,-0.7,7363.888888888889
-0.98,-0.705,7366.666666666667
-0.985,-0.705,7369.444444444444
-0.975,-0.71,7372.222222222223
-0.965,-0.675,7375.0
-0.95,-0.67,7377.777777777777
-0.955,-0.665,7380.555555555556
-0.95,-0.645,7383.333333333333
-0.93,-0.645,7386.111111111111
-0.89,-0.67,7388.888888888889
-0.87,-0.67,7391.666666666667
-0.805,-0.64,7394.444444444444
-0.725,-0.595,7397.222222222223
-0.595,-0.47,7400.0
-0.465,-0.275,7402.777777777777
-0.315,-0.025,7405.555555555556
-0.165,0.265,7408.333333333333
-0.09,0.56,7411.111111111111
-0.09,0.825,7413.888888888889
-0.205,1.02,7416.666666666667
-0.4,1.135,7419.444444444444
-0.645,1.05,7422.222222222223
-0.925,0.835,7425.0
-1.2,0.5,7427.777777777777
-1.455,0.13,7430.555555555556
-1.645,-0.28,7433.333333333333
-1.715,-0.63,7436.111111111111
-1.695,-0.86,7438.888888888889
-1.6,-0.95,7441.666666666667
-1.475,-0.885,7444.444444444444
-1.345,-0.795,7447.222222222223
-1.24,-0.69,7450.0
-1.15,-0.64,7452.777777777777
-1.075,-0.63,7455.555555555556
-1.015,-0.605,7458.333333333333
-0.955,-0.62,7461.111111111111
-0.925,-0.625,7463.888888888889
-0.91,-0.625,7466.666666666667
-0.9,-0.635,7469.444444444444
-0.92,-0.65,7472.222222222223
-0.915,-0.62,7475.0
-0.91,-0.625,7477.777777777777
-0.91,-0.615,7480.555555555556
-0.905,-0.62,7483.333333333333
-0.885,-0.615,7486.111111111111
-0.875,-0.615,7488.888888888889
-0.865,-0.625,7491.666666666667
-0.87,-0.605,7494.444444444444
-0.865,-0.635,7497.222222222223
-0.88,-0.63,7500.0
-0.885,-0.635,7502.777777777777
-0.88,-0.615,7505.555555555556
-0.875,-0.61,7508.333333333333
-0.865,-0.605,7511.111111111111
-0.855,-0.595,7513.888888888889
-0.85,-0.575,7516.666666666667
-0.825,-0.545,7519.444444444444
-0.835,-0.57,7522.222222222223
-0.845,-0.58,7525.0
-0.85,-0.575,7527.777777777777
-0.835,-0.575,7530.555555555556
-0.84,-0.585,7533.333333333333
-0.84,-0.58,7536.111111111111
-0.84,-0.59,7538.888888888889
-0.855,-0.565,7541.666666666667
-0.83,-0.545,7544.444444444444
-0.82,-0.525,7547.222222222223
-0.81,-0.52,7550.0
-0.805,-0.525,7552.777777777777
-0.81,-0.51,7555.555555555556
-0.795,-0.515,7558.333333333333
-0.805,-0.525,7561.111111111111
-0.8,-0.545,7563.888888888889
-0.79,-0.53,7566.666666666667
-0.8,-0.54,7569.444444444444
-0.79,-0.525,7572.222222222223
-0.8,-0.505,7575.0
-0.775,-0.48,7577.777777777777
-0.77,-0.47,7580.555555555556
-0.76,-0.465,7583.333333333333
-0.74,-0.465,7586.111111111111
-0.74,-0.455,7588.888888888889
-0.745,-0.455,7591.666666666667
-0.755,-0.46,7594.444444444444
-0.74,-0.46,7597.222222222223
-0.735,-0.455,7600.0
-0.735,-0.455,7602.777777777777
-0.735,-0.44,7605.555555555556
-0.725,-0.42,7608.333333333333
-0.69,-0.395,7611.111111111111
-0.685,-0.4,7613.888888888889
-0.675,-0.37,7616.666666666667
-0.66,-0.36,7619.444444444444
-0.635,-0.34,7622.222222222223
-0.62,-0.35,7625.0
-0.615,-0.335,7627.777777777777
-0.615,-0.325,7630.555555555556
-0.61,-0.33,7633.333333333333
-0.595,-0.325,7636.111111111111
-0.585,-0.285,7638.888888888889
-0.58,-0.275,7641.666666666667
-0.545,-0.255,7644.444444444444
-0.51,-0.225,7647.222222222223
-0.485,-0.215,7650.0
-0.47,-0.195,7652.777777777777
-0.465,-0.175,7655.555555555556
-0.46,-0.155,7658.333333333333
-0.445,-0.145,7661.111111111111
-0.415,-0.14,7663.888888888889
-0.405,-0.12,7666.666666666667
-0.4,-0.125,7669.444444444444
-0.385,-0.1,7672.222222222223
-0.36,-0.075,7675.0
-0.35,-0.045,7677.777777777777
-0.32,-0.02,7680.555555555556
-0.305,0.01,7683.333333333333
-0.27,0.025,7686.111111111111
-0.255,0.035,7688.888888888889
-0.24,0.04,7691.666666666667
-0.235,0.055,7694.444444444444
-0.235,0.055,7697.222222222223
-0.245,0.04,7700.0
-0.23,0.035,7702.777777777777
-0.23,0.06,7705.555555555556
-0.23,0.075,7708.333333333333
-0.22,0.08,7711.111111111111
-0.205,0.125,7713.888888888889
-0.21,0.15,7716.666666666667
-0.2,0.14,7719.444444444444
-0.215,0.11,7722.222222222223
-0.22,0.105,7725.0
-0.235,0.075,7727.777777777777
-0.255,0.065,7730.555555555556
-0.305,0.025,7733.333333333333
-0.32,0.0,7736.111111111111
-0.36,-0.03,7738.888888888889
-0.39,-0.045,7741.666666666667
-0.405,-0.08,7744.444444444444
-0.445,-0.11,7747.222222222223
-0.455,-0.12,7750.0
-0.47,-0.165,7752.777777777777
-0.5,-0.2,7755.555555555556
-0.55,-0.23,7758.333333333333
-0.575,-0.29,7761.111111111111
-0.62,-0.33,7763.888888888889
-0.675,-0.365,7766.666666666667
-0.675,-0.395,7769.444444444444
-0.71,-0.43,7772.222222222223
-0.75,-0.445,7775.0
-0.76,-0.455,7777.777777777777
-0.765,-0.47,7780.555555555556
-0.78,-0.47,7783.333333333333
-0.785,-0.495,7786.111111111111
-0.8,-0.515,7788.888888888889
-0.815,-0.54,7791.666666666667
-0.84,-0.56,7794.444444444444
-0.835,-0.58,7797.222222222223
-0.865,-0.595,7800.0
-0.89,-0.605,7802.777777777777
-0.905,-0.605,7805.555555555556
-0.895,-0.6,7808.333333333333
-0.885,-0.605,7811.111111111111
-0.885,-0.6,7813.888888888889
-0.885,-0.59,7816.666666666667
-0.87,-0.605,7819.444444444444
-0.885,-0.605,7822.222222222223
-0.885,-0.615,7825.0
-0.885,-0.625,7827.777777777777
-0.9,-0.625,7830.555555555556
-0.91,-0.655,7833.333333333333
-0.925,-0.655,7836.111111111111
-0.9,-0.65,7838.888888888889
-0.905,-0.65,7841.666666666667
-0.9,-0.63,7844.444444444444
-0.895,-0.64,7847.222222222223
-0.89,-0.63,7850.0
-0.875,-0.615,7852.777777777777
-0.875,-0.64,7855.555555555556
-0.895,-0.635,7858.333333333333
-0.895,-0.635,7861.111111111111
-0.9,-0.635,7863.888888888889
-0.91,-0.66,7866.666666666667
-0.905,-0.665,7869.444444444444
-0.92,-0.645,7872.222222222223
-0.915,-0.655,7875.0
-0.9,-0.645,7877.777777777777
-0.895,-0.625,7880.555555555556
-0.885,-0.62,7883.333333333333
-0.865,-0.615,7886.111111111111
-0.875,-0.62,7888.888888888889
-0.865,-0.625,7891.666666666667
-0.86,-0.64,7894.444444444444
-0.88,-0.64,7897.222222222223
-0.875,-0.65,7900.0
-0.895,-0.645,7902.777777777777
-0.895,-0.635,7905.555555555556
-0.885,-0.65,7908.333333333333
-0.89,-0.615,7911.111111111111
-0.87,-0.605,7913.888888888889
-0.87,-0.59,7916.666666666667
-0.85,-0.6,7919.444444444444
-0.86,-0.595,7922.222222222223
-0.875,-0.6,7925.0
-0.875,-0.6,7927.777777777777
-0.875,-0.625,7930.555555555556
-0.905,-0.62,7933.333333333333
-0.89,-0.635,7936.111111111111
-0.91,-0.63,7938.888888888889
-0.91,-0.63,7941.666666666667
-0.91,-0.62,7944.444444444444
-0.89,-0.635,7947.222222222223
-0.89,-0.605,7950.0
-0.89,-0.6,7952.777777777777
-0.885,-0.615,7955.555555555556
-0.885,-0.605,7958.333333333333
-0.895,-0.63,7961.111111111111
-0.9,-0.635,7963.888888888889
-0.93,-0.655,7966.666666666667
-0.945,-0.65,7969.444444444444
-0.95,-0.65,7972.222222222223
-0.95,-0.64,7975.0
-0.945,-0.635,7977.777777777777
-0.94,-0.63,7980.555555555556
-0.925,-0.62,7983.333333333333
-0.91,-0.61,7986.111111111111
-0.905,-0.63,7988.888888888889
-0.935,-0.635,7991.666666666667
-0.935,-0.655,7994.444444444444
-0.945,-0.65,7997.222222222223
-0.965,-0.675,8000.0
-0.965,-0.685,8002.777777777777
-0.965,-0.67,8005.555555555556
-0.965,-0.65,8008.333333333333
-0.955,-0.65,8011.111111111111
-0.955,-0.635,8013.888888888889
-0.95,-0.645,8016.666666666667
-0.94,-0.64,8019.444444444444
-0.93,-0.635,8022.222222222223
-0.94,-0.65,8025.0
-0.945,-0.67,8027.777777777777
-0.96,-0.68,8030.555555555556
-0.955,-0.68,8033.333333333333
-0.96,-0.69,8036.111111111111
-0.96,-0.705,8038.888888888889
-0.96,-0.67,8041.666666666667
-0.97,-0.665,8044.444444444444
-0.955,-0.64,8047.222222222223
-0.96,-0.655,8050.0
-0.94,-0.645,8052.777777777777
-0.94,-0.65,8055.555555555556
-0.93,-0.655,8058.333333333333
-0.94,-0.67,8061.111111111111
-0.95,-0.685,8063.888888888889
-0.975,-0.68,8066.666666666667
-0.975,-0.7,8069.444444444444
-0.98,-0.68,8072.222222222223
-0.97,-0.665,8075.0
-0.96,-0.665,8077.777777777777
-0.95,-0.66,8080.555555555556
-0.935,-0.655,8083.333333333333
-0.93,-0.63,8086.111111111111
-0.925,-0.645,8088.888888888889
-0.925,-0.65,8091.666666666667
-0.94,-0.66,8094.444444444444
-0.95,-0.67,8097.222222222223
-0.945,-0.675,8100.0
-0.955,-0.68,8102.777777777777
-0.96,-0.675,8105.555555555556
-0.96,-0.65,8108.333333333333
-0.95,-0.64,8111.111111111111
-0.95,-0.645,8113.888888888889
-0.95,-0.62,8116.666666666667
-0.94,-0.635,8119.444444444444
-0.945,-0.63,8122.222222222223
-0.95,-0.65,8125.0
-0.945,-0.655,8127.777777777777
-0.95,-0.675,8130.555555555556
-0.955,-0.68,8133.333333333333
-0.955,-0.67,8136.111111111111
-0.965,-0.65,8138.888888888889
-0.96,-0.665,8141.666666666667
-0.965,-0.65,8144.444444444444
-0.96,-0.645,8147.222222222223
-0.95,-0.65,8150.0
-0.94,-0.625,8152.777777777777
-0.94,-0.635,8155.555555555556
-0.945,-0.64,8158.333333333333
-0.945,-0.655,8161.111111111111
-0.955,-0.675,8163.888888888889
-0.96,-0.685,8166.666666666667
-0.97,-0.69,8169.444444444444
-0.975,-0.7,8172.222222222223
-0.955,-0.68,8175.0
-0.955,-0.665,8177.777777777777
-0.95,-0.665,8180.555555555556
-0.945,-0.65,8183.333333333333
-0.94,-0.655,8186.111111111111
-0.94,-0.65,8188.888888888889
-0.94,-0.655,8191.666666666667
-0.94,-0.68,8194.444444444445
-0.935,-0.665,8197.222222222223
-0.97,-0.675,8200.0
-0.96,-0.68,8202.777777777777
-0.96,-0.68,8205.555555555555
-0.96,-0.65,8208.333333333334
-0.965,-0.65,8211.111111111111
-0.96,-0.64,8213.888888888889
-0.935,-0.65,8216.666666666666
-0.935,-0.63,8219.444444444445
-0.935,-0.63,8222.222222222223
-0.93,-0.65,8225.0
-0.925,-0.655,8227.777777777777
-0.935,-0.675,8230.555555555555
-0.94,-0.66,8233.333333333334
-0.96,-0.675,8236.111111111111
-0.97,-0.67,8238.888888888889
-0.97,-0.66,8241.666666666666
-0.94,-0.655,8244.444444444445
-0.94,-0.655,8247.222222222223
-0.935,-0.645,8250.0
-0.92,-0.645,8252.777777777777
-0.915,-0.64,8255.555555555555
-0.92,-0.635,8258.333333333334
-0.93,-0.65,8261.111111111111
-0.945,-0.67,8263.888888888889
-0.955,-0.67,8266.666666666666
-0.93,-0.675,8269.444444444445
-0.945,-0.67,8272.222222222223
-0.955,-0.655,8275.0
-0.94,-0.645,8277.777777777777
-0.935,-0.64,8280.555555555555
-0.92,-0.64,8283.333333333334
-0.905,-0.635,8286.111111111111
-0.925,-0.615,8288.888888888889
-0.94,-0.625,8291.666666666666
-0.925,-0.625,8294.444444444445
-0.93,-0.645,8297.222222222223
-0.94,-0.655,8300.0
-0.94,-0.66,8302.777777777777
-0.96,-0.645,8305.555555555555
-0.965,-0.64,8308.333333333334
-0.95,-0.645,8311.111111111111
-0.925,-0.625,8313.888888888889
-0.93,-0.62,8316.666666666666
-0.915,-0.63,8319.444444444445
-0.92,-0.635,8322.222222222223
-0.93,-0.635,8325.0
-0.925,-0.645,8327.777777777777
-0.945,-0.66,8330.555555555555
-0.935,-0.645,8333.333333333334
-0.935,-0.64,8336.111111111111
-0.95,-0.65,8338.888888888889
-0.95,-0.64,8341.666666666666
-0.945,-0.62,8344.444444444445
-0.935,-0.625,8347.222222222223
-0.91,-0.615,8350.0
-0.91,-0.61,8352.777777777777
-0.915,-0.625,8355.555555555555
-0.92,-0.625,8358.333333333334
-0.915,-0.63,8361.111111111111
-0.93,-0.64,8363.888888888889
-0.925,-0.65,8366.666666666666
-0.935,-0.645,8369.444444444445
-0.935,-0.63,8372.222222222223
-0.945,-0.625,8375.0
-0.94,-0.625,8377.777777777777
-0.925,-0.61,8380.555555555555
-0.92,-0.62,8383.333333333334
-0.905,-0.605,8386.111111111111
-0.91,-0.6,8388.888888888889
-0.93,-0.61,8391.666666666666
-0.91,-0.61,8394.444444444445
-0.92,-0.625,8397.222222222223
-0.935,-0.645,8400.0
-0.925,-0.65,8402.777777777777
-0.91,-0.625,8405.555555555555
-0.905,-0.62,8408.333333333334
-0.88,-0.625,8411.111111111111
-0.865,-0.62,8413.888888888889
-0.835,-0.62,8416.666666666666
-0.82,-0.605,8419.444444444445
-0.82,-0.61,8422.222222222223
-0.81,-0.6,8425.0
-0.825,-0.595,8427.777777777777
-0.82,-0.59,8430.555555555555
-0.815,-0.59,8433.333333333334
-0.81,-0.585,8436.111111111111
-0.785,-0.565,8438.888888888889
-0.765,-0.54,8441.666666666666
-0.76,-0.53,8444.444444444445
-0.755,-0.515,8447.222222222223
-0.755,-0.48,8450.0
-0.755,-0.455,8452.777777777777
-0.74,-0.44,8455.555555555555
-0.755,-0.44,8458.333333333334
-0.77,-0.435,8461.111111111111
-0.79,-0.46,8463.888888888889
-0.805,-0.47,8466.666666666666
-0.83,-0.47,8469.444444444445
-0.845,-0.47,8472.222222222223
-0.84,-0.485,8475.0
-0.85,-0.455,8477.777777777777
-0.865,-0.455,8480.555555555555
-0.87,-0.46,8483.333333333334
-0.895,-0.45,8486.111111111111
-0.9,-0.49,8488.888888888889
-0.895,-0.52,8491.666666666666
-0.915,-0.54,8494.444444444445
-0.925,-0.565,8497.222222222223
-0.935,-0.575,8500.0
-0.96,-0.6,8502.777777777777
-0.965,-0.61,8505.555555555555
-0.95,-0.595,8508.333333333334
-0.955,-0.59,8511.111111111111
-0.955,-0.59,8513.888888888889
-0.94,-0.58,8516.666666666666
-0.96,-0.59,8519.444444444445
-0.97,-0.6,8522.222222222223
-0.97,-0.605,8525.0
-0.955,-0.615,8527.777777777777
-0.97,-0.62,8530.555555555555
-0.975,-0.635,8533.333333333334
-0.98,-0.645,8536.111111111111
-0.985,-0.645,8538.888888888889
-0.99,-0.64,8541.666666666666
-0.975,-0.635,8544.444444444445
-0.965,-0.625,8547.222222222223
-0.965,-0.615,8550.0
-0.945,-0.625,8552.777777777777
-0.925,-0.63,8555.555555555555
-0.92,-0.62,8558.333333333334
-0.925,-0.645,8561.111111111111
-0.925,-0.65,8563.888888888889
-0.945,-0.635,8566.666666666666
-0.955,-0.635,8569.444444444445
-0.94,-0.63,8572.222222222223
-0.93,-0.62,8575.0
-0.89,-0.605,8577.777777777777
-0.81,-0.57,8580.555555555555
-0.735,-0.51,8583.333333333334
-0.63,-0.41,8586.111111111111
-0.5,-0.25,8588.888888888889
-0.355,-0.045,8591.666666666666
-0.235,0.2,8594.444444444445
-0.13,0.46,8597.222222222223
-0.12,0.705,8600.0
-0.205,0.885,8602.777777777777
-0.385,1.0,8605.555555555555
-0.64,0.985,8608.333333333334
-0.925,0.815,8611.111111111111
-1.205,0.54,8613.888888888889
-1.48,0.155,8616.666666666666
-1.665,-0.275,8619.444444444445
-1.76,-0.67,8622.222222222223
-1.75,-0.96,8625.0
-1.67,-1.065,8627.777777777777
-1.545,-1.04,8630.555555555555
-1.43,-0.935,8633.333333333334
-1.32,-0.825,8636.111111111111
-1.23,-0.745,8638.888888888889
-1.13,-0.685,8641.666666666666
-1.065,-0.635,8644.444444444445
-0.985,-0.605,8647.222222222223
-0.94,-0.575,8650.0
-0.905,-0.565,8652.777777777777
-0.895,-0.56,8655.555555555555
-0.895,-0.555,8658.333333333334
-0.905,-0.555,8661.111111111111
-0.915,-0.575,8663.888888888889
-0.92,-0.575,8666.666666666666
-0.925,-0.59,8669.444444444445
-0.91,-0.58,8672.222222222223
-0.905,-0.585,8675.0
-0.88,-0.56,8677.777777777777
-0.865,-0.53,8680.555555555555
-0.855,-0.525,8683.333333333334
-0.835,-0.505,8686.111111111111
-0.825,-0.525,8688.888888888889
-0.845,-0.525,8691.666666666666
-0.83,-0.535,8694.444444444445
-0.845,-0.525,8697.222222222223
-0.83,-0.54,8700.0
-0.84,-0.53,8702.777777777777
-0.83,-0.515,8705.555555555555
-0.84,-0.535,8708.333333333334
-0.83,-0.505,8711.111111111111
-0.82,-0.505,8713.888888888889
-0.82,-0.485,8716.666666666666
-0.82,-0.485,8719.444444444445
-0.8,-0.48,8722.222222222223
-0.8,-0.485,8725.0
-0.8,-0.5,8727.777777777777
-0.79,-0.505,8730.555555555555
-0.805,-0.505,8733.333333333334
-0.8,-0.485,8736.111111111111
-0.815,-0.485,8738.888888888889
-0.8,-0.48,8741.666666666666
-0.8,-0.46,8744.444444444445
-0.795,-0.46,8747.222222222223
-0.78,-0.455,8750.0
-0.77,-0.435,8752.777777777777
-0.765,-0.445,8755.555555555555
-0.77,-0.44,8758.333333333334
-0.77,-0.44,8761.111111111111
-0.775,-0.43,8763.888888888889
-0.775,-0.45,8766.666666666666
-0.77,-0.46,8769.444444444445
-0.775,-0.43,8772.222222222223
-0.765,-0.42,8775.0
-0.76,-0.4,8777.777777777777
-0.735,-0.405,8780.555555555555
-0.715,-0.385,8783.333333333334
-0.71,-0.365,8786.111111111111
-0.675,-0.335,8788.888888888889
-0.68,-0.355,8791.666666666666
-0.68,-0.34,8794.444444444445
-0.675,-0.345,8797.222222222223
-0.68,-0.355,8800.0
-0.67,-0.34,8802.777777777777
-0.67,-0.33,8805.555555555555
-0.645,-0.31,8808.333333333334
-0.63,-0.285,8811.111111111111
-0.61,-0.255,8813.888888888889
-0.575,-0.24,8816.666666666666
-0.56,-0.2,8819.444444444445
-0.555,-0.19,8822.222222222223
-0.525,-0.175,8825.0
-0.51,-0.175,8827.777777777777
-0.51,-0.155,8830.555555555555
-0.5,-0.155,8833.333333333334
-0.49,-0.145,8836.111111111111
-0.465,-0.11,8838.888888888889
-0.445,-0.09,8841.666666666666
-0.43,-0.055,8844.444444444445
-0.4,-0.03,8847.222222222223
-0.38,0.005,8850.0
-0.355,0.025,8852.777777777777
-0.335,0.05,8855.555555555555
-0.315,0.06,8858.333333333334
-0.31,0.07,8861.111111111111
-0.295,0.08,8863.888888888889
-0.29,0.085,8866.666666666666
-0.29,0.115,8869.444444444445
-0.285,0.125,8872.222222222223
-0.275,0.155,8875.0
-0.235,0.16,8877.777777777777
-0.235,0.18,8880.555555555555
-0.22,0.205,8883.333333333334
-0.195,0.2,8886.111111111111
-0.18,0.195,8888.888888888889
-0.17,0.2,8891.666666666666
-0.185,0.2,8894.444444444445
-0.18,0.19,8897.222222222223
-0.2,0.195,8900.0
-0.195,0.175,8902.777777777777
-0.23,0.165,8905.555555555555
-0.24,0.19,8908.333333333334
-0.235,0.17,8911.111111111111
-0.26,0.16,8913.888888888889
-0.27,0.16,8916.666666666666
-0.28,0.135,8919.444444444445
-0.305,0.105,8922.222222222223
-0.32,0.07,8925.0
-0.36,0.03,8927.777777777777
-0.385,-0.025,8930.555555555555
-0.42,-0.06,8933.333333333334
-0.46,-0.095,8936.111111111111
-0.505,-0.125,8938.888888888889
-0.52,-0.16,8941.666666666666
-0.555,-0.19,8944.444444444445
-0.6,-0.21,8947.222222222223
-0.62,-0.24,8950.0
-0.635,-0.28,8952.777777777777
-0.67,-0.325,8955.555555555555
-0.68,-0.36,8958.333333333334
-0.71,-0.405,8961.111111111111
-0.735,-0.405,8963.888888888889
-0.75,-0.455,8966.666666666666
-0.77,-0.455,8969.444444444445
-0.82,-0.48,8972.222222222223
-0.805,-0.485,8975.0
-0.81,-0.49,8977.777777777777
-0.82,-0.5,8980.555555555555
-0.83,-0.49,8983.333333333334
-0.82,-0.48,8986.111111111111
-0.825,-0.495,8988.888888888889
-0.835,-0.52,8991.666666666666
-0.855,-0.54,8994.444444444445
-0.87,-0.565,8997.222222222223
-0.865,-0.56,9000.0
-0.87,-0.585,9002.777777777777
-0.885,-0.585,9005.555555555555
-0.885,-0.59,9008.333333333334
-0.885,-0.565,9011.111111111111
-0.89,-0.57,9013.888888888889
-0.885,-0.57,9016.666666666666
-0.875,-0.545,9019.444444444445
-0.865,-0.55,9022.222222222223
-0.87,-0.58,9025.0
-0.865,-0.575,9027.777777777777
-0.88,-0.61,9030.555555555555
-0.89,-0.61,9033.333333333334
-0.885,-0.595,9036.111111111111
-0.885,-0.61,9038.888888888889
-0.89,-0.595,9041.666666666666
-0.89,-0.59,9044.444444444445
-0.875,-0.565,9047.222222222223
-0.87,-0.575,9050.0
-0.855,-0.565,9052.777777777777
-0.85,-0.57,9055.555555555555
-0.865,-0.555,9058.333333333334
-0.87,-0.565,9061.111111111111
-0.87,-0.56,9063.888888888889
-0.865,-0.58,9066.666666666666
-0.875,-0.555,9069.444444444445
-0.875,-0.555,9072.222222222223
-0.86,-0.55,9075.0
-0.86,-0.535,9077.777777777777
-0.845,-0.54,9080.555555555555
-0.85,-0.53,9083.333333333334
-0.835,-0.525,9086.111111111111
-0.845,-0.53,9088.888888888889
-0.84,-0.54,9091.666666666666
-0.855,-0.535,9094.444444444445
-0.87,-0.55,9097.222222222223
-0.87,-0.54,9100.0
-0.88,-0.55,9102.777777777777
-0.88,-0.56,9105.555555555555
-0.875,-0.52,9108.333333333334
-0.865,-0.53,9111.111111111111
-0.86,-0.525,9113.888888888889
-0.85,-0.52,9116.666666666666
-0.845,-0.51,9119.444444444445
-0.85,-0.52,9122.222222222223
-0.845,-0.52,9125.0
-0.865,-0.54,9127.777777777777
-0.87,-0.555,9130.555555555555
-0.885,-0.55,9133.333333333334
-0.9,-0.555,9136.111111111111
-0.915,-0.57,9138.888888888889
-0.895,-0.575,9141.666666666666
-0.9,-0.565,9144.444444444445
-0.91,-0.55,9147.222222222223
-0.905,-0.535,9150.0
-0.885,-0.535,9152.777777777777
-0.9,-0.54,9155.555555555555
-0.915,-0.54,9158.333333333334
-0.895,-0.56,9161.111111111111
-0.9,-0.575,9163.888888888889
-0.915,-0.575,9166.666666666666
-0.945,-0.57,9169.444444444445
-0.93,-0.58,9172.222222222223
-0.935,-0.58,9175.0
-0.935,-0.58,9177.777777777777
-0.92,-0.57,9180.555555555555
-0.915,-0.57,9183.333333333334
-0.915,-0.55,9186.111111111111
-0.91,-0.575,9188.888888888889
-0.915,-0.585,9191.666666666666
-0.91,-0.58,9194.444444444445
-0.93,-0.58,9197.222222222223
-0.945,-0.605,9200.0
-0.96,-0.605,9202.777777777777
-0.95,-0.635,9205.555555555555
-0.945,-0.59,9208.333333333334
-0.93,-0.58,9211.111111111111
-0.93,-0.585,9213.888888888889
-0.915,-0.555,9216.666666666666
-0.91,-0.55,9219.444444444445
-0.9,-0.585,9222.222222222223
-0.895,-0.58,9225.0
-0.905,-0.595,9227.777777777777
-0.92,-0.595,9230.555555555555
-0.935,-0.615,9233.333333333334
-0.98,-0.6,9236.111111111111
-0.955,-0.63,9238.888888888889
-0.98,-0.61,9241.666666666666
-0.965,-0.59,9244.444444444445
-0.96,-0.58,9247.222222222223
-0.96,-0.565,9250.0
-0.935,-0.56,9252.777777777777
-0.94,-0.565,9255.555555555555
-0.945,-0.565,9258.333333333334
-0.93,-0.585,9261.111111111111
-0.945,-0.59,9263.888888888889
-0.965,-0.605,9266.666666666666
-0.97,-0.605,9269.444444444445
-0.955,-0.615,9272.222222222223
-0.975,-0.6,9275.0
-0.95,-0.59,9277.777777777777
-0.945,-0.59,9280.555555555555
-0.93,-0.575,9283.333333333334
-0.925,-0.575,9286.111111111111
-0.92,-0.57,9288.888888888889
-0.935,-0.59,9291.666666666666
-0.945,-0.585,9294.444444444445
-0.95,-0.59,9297.222222222223
-0.95,-0.605,9300.0
-0.955,-0.6,9302.777777777777
-0.965,-0.6,9305.555555555555
-0.96,-0.595,9308.333333333334
-0.955,-0.57,9311.111111111111
-0.945,-0.58,9313.888888888889
-0.93,-0.57,9316.666666666666
-0.925,-0.56,9319.444444444445
-0.93,-0.575,9322.222222222223
-0.94,-0.56,9325.0
-0.96,-0.57,9327.777777777777
-0.96,-0.585,9330.555555555555
-0.95,-0.575,9333.333333333334
-0.975,-0.6,9336.111111111111
-0.97,-0.59,9338.888888888889
-0.965,-0.6,9341.666666666666
-0.965,-0.575,9344.444444444445
-0.96,-0.585,9347.222222222223
-0.96,-0.575,9350.0
-0.945,-0.555,9352.777777777777
-0.94,-0.56,9355.555555555555
-0.945,-0.565,9358.333333333334
-0.935,-0.585,9361.111111111111
-0.94,-0.58,9363.888888888889
-0.955,-0.585,9366.666666666666
-0.965,-0.6,9369.444444444445
-0.97,-0.595,9372.222222222223
-0.96,-0.6,9375.0
-0.95,-0.585,9377.777777777777
-0.95,-0.575,9380.555555555555
-0.935,-0.57,9383.333333333334
-0.93,-0.565,9386.111111111111
-0.935,-0.585,9388.888888888889
-0.935,-0.57,9391.666666666666
-0.945,-0.58,9394.444444444445
-0.965,-0.595,9397.222222222223
-0.945,-0.605,9400.0
-0.965,-0.605,9402.777777777777
-0.97,-0.6,9405.555555555555
-0.955,-0.59,9408.333333333334
-0.95,-0.595,9411.111111111111
-0.95,-0.575,9413.888888888889
-0.935,-0.59,9416.666666666666
-0.91,-0.575,9419.444444444445
-0.91,-0.585,9422.222222222223
-0.915,-0.58,9425.0
-0.925,-0.585,9427.777777777777
-0.93,-0.59,9430.555555555555
-0.935,-0.59,9433.333333333334
-0.98,-0.595,9436.111111111111
-0.965,-0.61,9438.888888888889
-0.955,-0.59,9441.666666666666
-0.965,-0.6,9444.444444444445
-0.95,-0.585,9447.222222222223
-0.95,-0.565,9450.0
-0.96,-0.56,9452.777777777777
-0.94,-0.56,9455.555555555555
-0.935,-0.57,9458.333333333334
-0.94,-0.57,9461.111111111111
-0.945,-0.57,9463.888888888889
-0.935,-0.58,9466.666666666666
-0.96,-0.585,9469.444444444445
-0.96,-0.585,9472.222222222223
-0.96,-0.59,9475.0
-0.96,-0.585,9477.777777777777
-0.945,-0.57,9480.555555555555
-0.935,-0.575,9483.333333333334
-0.925,-0.565,9486.111111111111
-0.92,-0.575,9488.888888888889
-0.92,-0.575,9491.666666666666
-0.925,-0.585,9494.444444444445
-0.93,-0.595,9497.222222222223
-0.935,-0.585,9500.0
-0.945,-0.6,9502.777777777777
-0.95,-0.58,9505.555555555555
-0.945,-0.59,9508.333333333334
-0.945,-0.575,9511.111111111111
-0.94,-0.58,9513.888888888889
-0.93,-0.585,9516.666666666666
-0.915,-0.545,9519.444444444445
-0.915,-0.575,9522.222222222223
-0.91,-0.56,9525.0
-0.92,-0.565,9527.777777777777
-0.93,-0.59,9530.555555555555
-0.945,-0.585,9533.333333333334
-0.945,-0.6,9536.111111111111
-0.95,-0.6,9538.888888888889
-0.95,-0.575,9541.666666666666
-0.94,-0.58,9544.444444444445
-0.925,-0.57,9547.222222222223
-0.92,-0.575,9550.0
-0.915,-0.57,9552.777777777777
-0.92,-0.57,9555.555555555555
-0.91,-0.57,9558.333333333334
-0.91,-0.57,9561.111111111111
-0.905,-0.585,9563.888888888889
-0.925,-0.59,9566.666666666666
-0.92,-0.59,9569.444444444445
-0.92,-0.585,9572.222222222223
-0.91,-0.595,9575.0
-0.905,-0.57,9577.777777777777
-0.895,-0.57,9580.555555555555
-0.87,-0.555,9583.333333333334
-0.845,-0.565,9586.111111111111
-0.84,-0.55,9588.888888888889
-0.83,-0.565,9591.666666666666
-0.825,-0.58,9594.444444444445
-0.835,-0.59,9597.222222222223
-0.84,-0.585,9600.0
-0.83,-0.57,9602.777777777777
-0.83,-0.58,9605.555555555555
-0.805,-0.555,9608.333333333334
-0.78,-0.535,9611.111111111111
-0.755,-0.53,9613.888888888889
-0.74,-0.495,9616.666666666666
-0.725,-0.47,9619.444444444445
-0.72,-0.46,9622.222222222223
-0.72,-0.465,9625.0
-0.73,-0.44,9627.777777777777
-0.73,-0.425,9630.555555555555
-0.755,-0.415,9633.333333333334
-0.765,-0.42,9636.111111111111
-0.8,-0.42,9638.888888888889
-0.805,-0.415,9641.666666666666
-0.8,-0.41,9644.444444444445
-0.8,-0.405,9647.222222222223
-0.805,-0.42,9650.0
-0.81,-0.41,9652.777777777777
-0.84,-0.425,9655.555555555555
-0.845,-0.43,9658.333333333334
-0.875,-0.445,9661.111111111111
-0.885,-0.47,9663.888888888889
-0.895,-0.5,9666.666666666666
-0.905,-0.535,9669.444444444445
-0.9,-0.545,9672.222222222223
-0.93,-0.535,9675.0
-0.925,-0.535,9677.777777777777
-0.91,-0.535,9680.555555555555
-0.91,-0.53,9683.333333333334
-0.9,-0.525,9686.111111111111
-0.885,-0.52,9688.888888888889
-0.9,-0.525,9691.666666666666
-0.915,-0.545,9694.444444444445
-0.925,-0.55,9697.222222222223
-0.93,-0.57,9700.0
-0.955,-0.57,9702.777777777777
-0.945,-0.585,9705.555555555555
-0.94,-0.57,9708.333333333334
-0.925,-0.575,9711.111111111111
-0.935,-0.565,9713.888888888889
-0.905,-0.55,9716.666666666666
-0.905,-0.555,9719.444444444445
-0.895,-0.555,9722.222222222223
-0.905,-0.555,9725.0
-0.9,-0.575,9727.777777777777
-0.91,-0.575,9730.555555555555
-0.925,-0.57,9733.333333333334
-0.925,-0.58,9736.111111111111
-0.93,-0.59,9738.888888888889
-0.92,-0.57,9741.666666666666
-0.915,-0.555,9744.444444444445
-0.905,-0.55,9747.222222222223
-0.885,-0.535,9750.0
-0.865,-0.53,9752.777777777777
-0.85,-0.535,9755.555555555555
-0.8,-0.55,9758.333333333334
-0.75,-0.54,9761.111111111111
-0.65,-0.495,9763.888888888889
-0.56,-0.38,9766.666666666666
-0.44,-0.215,9769.444444444445
-0.3,0.0,9772.222222222223
-0.155,0.25,9775.0
-0.03,0.545,9777.777777777777
0.0,0.82,9780.555555555555
-0.04,1.055,9783.333333333334
-0.175,1.205,9786.111111111111
-0.395,1.23,9788.888888888889
-0.66,1.125,9791.666666666666
-0.98,0.88,9794.444444444445
-1.23,0.525,9797.222222222223
-1.475,0.095,9800.0
-1.64,-0.335,9802.777777777777
-1.695,-0.705,9805.555555555555
-1.65,-0.93,9808.333333333334
-1.57,-0.985,9811.111111111111
-1.435,-0.935,9813.888888888889
-1.315,-0.805,9816.666666666666
-1.23,-0.72,9819.444444444445
-1.155,-0.645,9822.222222222223
-1.09,-0.625,9825.0
-1.03,-0.605,9827.777777777777
-0.96,-0.59,9830.555555555555
-0.91,-0.585,9833.333333333334
-0.875,-0.555,9836.111111111111
-0.855,-0.54,9838.888888888889
-0.815,-0.55,9841.666666666666
-0.83,-0.515,9844.444444444445
-0.825,-0.515,9847.222222222223
-0.83,-0.495,9850.0
-0.81,-0.5,9852.777777777777
-0.795,-0.5,9855.555555555555
-0.795,-0.5,9858.333333333334
-0.765,-0.485,9861.111111111111
-0.78,-0.495,9863.888888888889
-0.775,-0.505,9866.666666666666
-0.78,-0.52,9869.444444444445
-0.79,-0.52,9872.222222222223
-0.785,-0.51,9875.0
-0.79,-0.485,9877.777777777777
-0.775,-0.495,9880.555555555555
-0.765,-0.47,9883.333333333334
-0.75,-0.455,9886.111111111111
-0.74,-0.47,9888.888888888889
-0.73,-0.475,9891.666666666666
-0.74,-0.47,9894.444444444445
-0.735,-0.465,9897.222222222223
-0.74,-0.48,9900.0
-0.75,-0.48,9902.777777777777
-0.75,-0.455,9905.555555555555
-0.75,-0.45,9908.333333333334
-0.735,-0.44,9911.111111111111
-0.72,-0.44,9913.888888888889
-0.715,-0.415,9916.666666666666
-0.695,-0.41,9919.444444444445
-0.69,-0.41,9922.222222222223
-0.69,-0.415,9925.0
-0.715,-0.425,9927.777777777777
-0.7,-0.435,9930.555555555555
-0.71,-0.435,9933.333333333334
-0.715,-0.42,9936.111111111111
-0.705,-0.435,9938.888888888889
-0.7,-0.43,9941.666666666666
-0.69,-0.4,9944.444444444445
-0.68,-0.385,9947.222222222223
-0.655,-0.37,9950.0
-0.66,-0.365,9952.777777777777
-0.63,-0.36,9955.555555555555
-0.625,-0.37,9958.333333333334
-0.62,-0.36,9961.111111111111
-0.635,-0.36,9963.888888888889
-0.62,-0.35,9966.666666666666
-0.625,-0.36,9969.444444444445
-0.62,-0.35,9972.222222222223
-0.605,-0.345,9975.0
-0.6,-0.325,9977.777777777777
-0.58,-0.3,9980.555555555555
-0.575,-0.285,9983.333333333334
-0.56,-0.265,9986.111111111111
-0.54,-0.27,9988.888888888889
-0.535,-0.255,9991.666666666666
-0.52,-0.25,9994.444444444445
-0.52,-0.25,9997.222222222223
-0.51,-0.24,10000.0
-0.495,-0.23,10002.777777777777
-0.485,-0.225,10005.555555555555
-0.475,-0.205,10008.333333333334
-0.465,-0.17,10011.111111111111
-0.43,-0.13,10013.888888888889
-0.405,-0.11,10016.666666666666
-0.375,-0.08,10019.444444444445
-0.35,-0.055,10022.222222222223
-0.34,-0.035,10025.0
-0.32,-0.02,10027.777777777777
-0.31,-0.01,10030.555555555555
-0.3,-0.005,10033.333333333334
-0.285,0.02,10036.111111111111
-0.265,0.04,10038.888888888889
-0.255,0.08,10041.666666666666
-0.245,0.1,10044.444444444445
-0.205,0.145,10047.222222222223
-0.19,0.175,10050.0
-0.165,0.185,10052.777777777777
-0.155,0.195,10055.555555555555
-0.16,0.19,10058.333333333334
-0.155,0.19,10061.111111111111
-0.155,0.195,10063.888888888889
-0.165,0.18,10066.666666666666
-0.165,0.185,10069.444444444445
-0.16,0.19,10072.222222222223
-0.175,0.19,10075.0
-0.175,0.2,10077.777777777777
-0.18,0.2,10080.555555555555
-0.185,0.185,10083.333333333334
-0.195,0.205,10086.111111111111
-0.19,0.185,10088.888888888889
-0.2,0.15,10091.666666666666
-0.225,0.115,10094.444444444445
-0.25,0.105,10097.222222222223
-0.29,0.05,10100.0
-0.31,0.015,10102.777777777777
-0.35,-0.01,10105.555555555555
-0.38,-0.035,10108.333333333334
-0.405,-0.065,10111.111111111111
-0.43,-0.08,10113.888888888889
-0.455,-0.115,10116.666666666666
-0.465,-0.125,10119.444444444445
-0.49,-0.19,10122.222222222223
-0.51,-0.235,10125.0
-0.54,-0.27,10127.777777777777
-0.575,-0.31,10130.555555555555
-0.6,-0.33,10133.333333333334
-0.625,-0.365,10136.111111111111
-0.655,-0.405,10138.888888888889
-0.665,-0.415,10141.666666666666
-0.685,-0.425,10144.444444444445
-0.69,-0.44,10147.222222222223
-0.705,-0.435,10150.0
-0.695,-0.445,10152.777777777777
-0.705,-0.46,10155.555555555555
-0.71,-0.505,10158.333333333334
-0.735,-0.51,10161.111111111111
-0.745,-0.53,10163.888888888889
-0.765,-0.54,10166.666666666666
-0.79,-0.555,10169.444444444445
-0.8,-0.56,10172.222222222223
-0.8,-0.565,10175.0
-0.795,-0.56,10177.777777777777
-0.79,-0.57,10180.555555555555
-0.78,-0.565,10183.333333333334
-0.76,-0.54,10186.111111111111
-0.78,-0.57,10188.888888888889
-0.77,-0.57,10191.666666666666
-0.79,-0.59,10194.444444444445
-0.78,-0.59,10197.222222222223
-0.8,-0.595,10200.0
-0.82,-0.62,10202.777777777777
-0.83,-0.61,10205.555555555555
-0.82,-0.605,10208.333333333334
-0.815,-0.6,10211.111111111111
-0.81,-0.58,10213.888888888889
-0.795,-0.57,10216.666666666666
-0.795,-0.575,10219.444444444445
-0.77,-0.575,10222.222222222223
-0.785,-0.585,10225.0
-0.775,-0.58,10227.777777777777
-0.79,-0.585,10230.555555555555
-0.8,-0.61,10233.333333333334
-0.8,-0.61,10236.111111111111
-0.805,-0.62,10238.888888888889
-0.8,-0.605,10241.666666666666
-0.805,-0.575,10244.444444444445
-0.795,-0.575,10247.222222222223
-0.79,-0.555,10250.0
-0.785,-0.545,10252.777777777777
-0.78,-0.54,10255.555555555555
-0.775,-0.535,10258.333333333334
-0.775,-0.53,10261.111111111111
-0.78,-0.545,10263.888888888889
-0.79,-0.555,10266.666666666666
-0.79,-0.545,10269.444444444445
-0.805,-0.56,10272.222222222223
-0.8,-0.56,10275.0
-0.785,-0.53,10277.777777777777
-0.78,-0.535,10280.555555555555
-0.77,-0.525,10283.333333333334
-0.765,-0.51,10286.111111111111
-0.765,-0.5,10288.888888888889
-0.765,-0.515,10291.666666666666
-0.765,-0.52,10294.444444444445
-0.77,-0.555,10297.222222222223
-0.79,-0.52,10300.0
-0.8,-0.555,10302.777777777777
-0.82,-0.555,10305.555555555555
-0.82,-0.545,10308.333333333334
-0.82,-0.555,10311.111111111111
-0.81,-0.53,10313.888888888889
-0.805,-0.52,10316.666666666666
-0.8,-0.52,10319.444444444445
-0.795,-0.53,10322.222222222223
-0.8,-0.535,10325.0
-0.8,-0.54,10327.777777777777
-0.81,-0.555,10330.555555555555
-0.82,-0.565,10333.333333333334
-0.835,-0.565,10336.111111111111
-0.85,-0.565,10338.888888888889
-0.865,-0.575,10341.666666666666
-0.86,-0.56,10344.444444444445
-0.865,-0.56,10347.222222222223
-0.84,-0.56,10350.0
-0.825,-0.54,10352.777777777777
-0.835,-0.58,10355.555555555555
-0.84,-0.565,10358.333333333334
-0.84,-0.57,10361.111111111111
-0.85,-0.58,10363.888888888889
-0.85,-0.58,10366.666666666666
-0.85,-0.585,10369.444444444445
-0.86,-0.605,10372.222222222223
-0.865,-0.615,10375.0
-0.86,-0.61,10377.777777777777
-0.87,-0.575,10380.555555555555
-0.855,-0.58,10383.333333333334
-0.845,-0.57,10386.111111111111
-0.845,-0.585,10388.888888888889
-0.85,-0.57,10391.666666666666
-0.87,-0.585,10394.444444444445
-0.87,-0.62,10397.222222222223
-0.88,-0.6,10400.0
-0.89,-0.615,10402.777777777777
-0.89,-0.61,10405.555555555555
-0.895,-0.62,10408.333333333334
-0.915,-0.6,10411.111111111111
-0.895,-0.59,10413.888888888889
-0.885,-0.585,10416.666666666666
-0.865,-0.565,10419.444444444445
-0.85,-0.575,10422.222222222223
-0.85,-0.595,10425.0
-0.855,-0.59,10427.777777777777
-0.86,-0.61,10430.555555555555
-0.87,-0.6,10433.333333333334
-0.9,-0.605,10436.111111111111
-0.9,-0.59,10438.888888888889
-0.905,-0.61,10441.666666666666
-0.885,-0.6,10444.444444444445
-0.885,-0.565,10447.222222222223
-0.88,-0.565,10450.0
-0.87,-0.575,10452.777777777777
-0.855,-0.585,10455.555555555555
-0.87,-0.59,10458.333333333334
-0.865,-0.59,10461.111111111111
-0.875,-0.61,10463.888888888889
-0.885,-0.605,10466.666666666666
-0.905,-0.61,10469.444444444445
-0.91,-0.615,10472.222222222223
-0.9,-0.6,10475.0
-0.905,-0.59,10477.777777777777
-0.895,-0.575,10480.555555555555
-0.885,-0.58,10483.333333333334
-0.86,-0.565,10486.111111111111
-0.87,-0.575,10488.888888888889
-0.87,-0.585,10491.666666666666
-0.865,-0.59,10494.444444444445
-0.865,-0.6,10497.222222222223
-0.88,-0.61,10500.0
-0.885,-0.6,10502.777777777777
-0.89,-0.605,10505.555555555555
-0.89,-0.61,10508.333333333334
-0.88,-0.595,10511.111111111111
-0.875,-0.575,10513.888888888889
-0.87,-0.58,10516.666666666666
-0.885,-0.575,10519.444444444445
-0.875,-0.565,10522.222222222223
-0.865,-0.58,10525.0
-0.87,-0.575,10527.777777777777
-0.87,-0.59,10530.555555555555
-0.875,-0.605,10533.333333333334
-0.895,-0.595,10536.111111111111
-0.9,-0.605,10538.888888888889
-0.915,-0.595,10541.666666666666
-0.915,-0.58,10544.444444444445
-0.91,-0.575,10547.222222222223
-0.885,-0.575,10550.0
-0.88,-0.565,10552.777777777777
-0.87,-0.57,10555.555555555555
-0.865,-0.585,10558.333333333334
-0.865,-0.59,10561.111111111111
-0.88,-0.6,10563.888888888889
-0.88,-0.61,10566.666666666666
-0.88,-0.61,10569.444444444445
-0.9,-0.615,10572.222222222223
-0.91,-0.6,10575.0
-0.91,-0.585,10577.777777777777
-0.89,-0.59,10580.555555555555
-0.885,-0.59,10583.333333333334
-0.865,-0.565,10586.111111111111
-0.855,-0.57,10588.888888888889
-0.875,-0.575,10591.666666666666
-0.87,-0.59,10594.444444444445
-0.875,-0.595,10597.222222222223
-0.875,-0.61,10600.0
-0.9,-0.615,10602.777777777777
-0.91,-0.61,10605.555555555555
-0.9,-0.6,10608.333333333334
-0.905,-0.605,10611.111111111111
-0.89,-0.58,10613.888888888889
-0.89,-0.575,10616.666666666666
-0.87,-0.575,10619.444444444445
-0.85,-0.57,10622.222222222223
-0.86,-0.57,10625.0
-0.855,-0.595,10627.777777777777
-0.87,-0.6,10630.555555555555
-0.875,-0.61,10633.333333333334
-0.88,-0.595,10636.111111111111
-0.88,-0.6,10638.888888888889
-0.88,-0.6,10641.666666666666
-0.88,-0.58,10644.444444444445
-0.87,-0.575,10647.222222222223
-0.87,-0.58,10650.0
-0.88,-0.565,10652.777777777777
-0.855,-0.58,10655.555555555555
-0.85,-0.575,10658.333333333334
-0.86,-0.58,10661.111111111111
-0.855,-0.575,10663.888888888889
-0.865,-0.595,10666.666666666666
-0.88,-0.59,10669.444444444445
-0.885,-0.585,10672.222222222223
-0.885,-0.585,10675.0
-0.89,-0.57,10677.777777777777
-0.875,-0.555,10680.555555555555
-0.86,-0.55,10683.333333333334
-0.875,-0.53,10686.111111111111
-0.845,-0.555,10688.888888888889
-0.85,-0.545,10691.666666666666
-0.855,-0.545,10694.444444444445
-0.885,-0.57,10697.222222222223
-0.875,-0.58,10700.0
-0.87,-0.575,10702.777777777777
-0.895,-0.59,10705.555555555555
-0.895,-0.57,10708.333333333334
-0.89,-0.56,10711.111111111111
-0.855,-0.565,10713.888888888889
-0.86,-0.545,10716.666666666666
-0.85,-0.555,10719.444444444445
-0.845,-0.535,10722.222222222223
-0.845,-0.55,10725.0
-0.845,-0.555,10727.777777777777
-0.86,-0.555,10730.555555555555
-0.875,-0.555,10733.333333333334
-0.895,-0.57,10736.111111111111
-0.89,-0.585,10738.888888888889
-0.895,-0.585,10741.666666666666
-0.89,-0.565,10744.444444444445
-0.855,-0.565,10747.222222222223
-0.85,-0.56,10750.0
-0.845,-0.545,10752.777777777777
-0.84,-0.54,10755.555555555555
-0.835,-0.555,10758.333333333334
-0.855,-0.555,10761.111111111111
-0.845,-0.57,10763.888888888889
-0.845,-0.58,10766.666666666666
-0.855,-0.58,10769.444444444445
-0.85,-0.58,10772.222222222223
-0.835,-0.58,10775.0
-0.82,-0.575,10777.777777777777
-0.805,-0.56,10780.555555555555
-0.795,-0.555,10783.333333333334
-0.775,-0.545,10786.111111111111
-0.765,-0.555,10788.888888888889
-0.765,-0.545,10791.666666666666
-0.74,-0.555,10794.444444444445
-0.75,-0.54,10797.222222222223
-0.73,-0.565,10800.0
-0.735,-0.53,10802.777777777777
-0.735,-0.52,10805.555555555555
-0.7,-0.495,10808.333333333334
-0.685,-0.48,10811.111111111111
-0.685,-0.44,10813.888888888889
-0.675,-0.44,10816.666666666666
-0.665,-0.4,10819.444444444445
-0.665,-0.39,10822.222222222223
-0.67,-0.375,10825.0
-0.69,-0.37,10827.777777777777
-0.695,-0.38,10830.555555555555
-0.72,-0.36,10833.333333333334
-0.74,-0.365,10836.111111111111
-0.76,-0.385,10838.888888888889
-0.76,-0.385,10841.666666666666
-0.765,-0.36,10844.444444444445
-0.765,-0.37,10847.222222222223
-0.79,-0.365,10850.0
-0.795,-0.385,10852.777777777777
-0.795,-0.395,10855.555555555555
-0.81,-0.415,10858.333333333334
-0.82,-0.44,10861.111111111111
-0.84,-0.47,10863.888888888889
-0.855,-0.485,10866.666666666666
-0.86,-0.51,10869.444444444445
-0.9,-0.515,10872.222222222223
-0.885,-0.525,10875.0
-0.87,-0.525,10877.777777777777
-0.87,-0.505,10880.555555555555
-0.855,-0.5,10883.333333333334
-0.865,-0.49,10886.111111111111
-0.86,-0.49,10888.888888888889
-0.89,-0.505,10891.666666666666
-0.88,-0.53,10894.444444444445
-0.89,-0.53,10897.222222222223
-0.89,-0.54,10900.0
-0.895,-0.565,10902.777777777777
-0.915,-0.57,10905.555555555555
-0.905,-0.54,10908.333333333334
-0.9,-0.545,10911.111111111111
-0.89,-0.535,10913.888888888889
-0.88,-0.53,10916.666666666666
-0.875,-0.505,10919.444444444445
-0.87,-0.51,10922.222222222223
-0.875,-0.53,10925.0
-0.88,-0.545,10927.777777777777
-0.875,-0.555,10930.555555555555
-0.87,-0.56,10933.333333333334
-0.875,-0.54,10936.111111111111
-0.87,-0.545,10938.888888888889
-0.865,-0.54,10941.666666666666
-0.845,-0.53,10944.444444444445
-0.82,-0.53,10947.222222222223
-0.785,-0.52,10950.0
-0.72,-0.5,10952.777777777777
-0.635,-0.45,10955.555555555555
-0.53,-0.345,10958.333333333334
-0.41,-0.195,10961.111111111111
-0.27,0.035,10963.888888888889
-0.15,0.275,10966.666666666666
-0.05,0.545,10969.444444444445
-0.015,0.8,10972.222222222223
-0.07,1.035,10975.0
-0.215,1.195,10977.777777777777
-0.44,1.23,10980.555555555555
-0.705,1.115,10983.333333333334
-0.965,0.84,10986.111111111111
-1.21,0.475,10988.888888888889
-1.43,0.055,10991.666666666666
-1.555,-0.365,10994.444444444445
-1.625,-0.69,10997.222222222223
-1.575,-0.845,11000.0
-1.475,-0.855,11002.777777777777
-1.34,-0.78,11005.555555555555
-1.235,-0.67,11008.333333333334
-1.145,-0.565,11011.111111111111
-1.065,-0.535,11013.888888888889
-1.005,-0.48,11016.666666666666
-0.945,-0.465,11019.444444444445
-0.865,-0.47,11022.222222222223
-0.825,-0.46,11025.0
-0.795,-0.475,11027.777777777777
-0.8,-0.475,11030.555555555555
-0.815,-0.47,11033.333333333334
-0.805,-0.47,11036.111111111111
-0.835,-0.48,11038.888888888889
-0.83,-0.495,11041.666666666666
-0.82,-0.475,11044.444444444445
-0.815,-0.47,11047.222222222223
-0.77,-0.45,11050.0
-0.76,-0.455,11052.777777777777
-0.75,-0.455,11055.555555555555
-0.755,-0.46,11058.333333333334
-0.76,-0.445,11061.111111111111
-0.75,-0.435,11063.888888888889
-0.755,-0.455,11066.666666666666
-0.765,-0.46,11069.444444444445
-0.775,-0.45,11072.222222222223
-0.765,-0.435,11075.0
-0.755,-0.43,11077.777777777777
-0.74,-0.445,11080.555555555555
-0.735,-0.42,11083.333333333334
-0.72,-0.4,11086.111111111111
-0.705,-0.425,11088.888888888889
-0.705,-0.41,11091.666666666666
-0.705,-0.41,11094.444444444445
-0.715,-0.425,11097.222222222223
-0.715,-0.425,11100.0
-0.715,-0.43,11102.777777777777
-0.725,-0.435,11105.555555555555
-0.715,-0.41,11108.333333333334
-0.705,-0.395,11111.111111111111
-0.695,-0.385,11113.888888888889
-0.675,-0.38,11116.666666666666
-0.68,-0.365,11119.444444444445
-0.66,-0.36,11122.222222222223
-0.66,-0.37,11125.0
-0.65,-0.365,11127.777777777777
-0.66,-0.37,11130.555555555555
-0.69,-0.385,11133.333333333334
-0.675,-0.375,11136.111111111111
-0.695,-0.39,11138.888888888889
-0.685,-0.37,11141.666666666666
-0.69,-0.36,11144.444444444445
