MLII,V1,time_ms
-0.835,-0.515,0.0
-0.835,-0.515,2.7777777777777777
-0.835,-0.515,5.555555555555555
-0.835,-0.515,8.333333333333334
-0.835,-0.515,11.11111111111111
-0.835,-0.515,13.88888888888889
-0.835,-0.515,16.666666666666668
-0.815,-0.515,19.444444444444443
-0.815,-0.485,22.22222222222222
-0.83,-0.5,25.0
-0.84,-0.515,27.77777777777778
-0.85,-0.55,30.555555555555557
-0.875,-0.59,33.333333333333336
-0.885,-0.635,36.111111111111114
-0.92,-0.65,38.888888888888886
-0.97,-0.665,41.666666666666664
-1.01,-0.64,44.44444444444444
-1.04,-0.625,47.22222222222222
-1.065,-0.615,50.0
-1.095,-0.615,52.77777777777778
-1.085,-0.615,55.55555555555556
-1.065,-0.65,58.333333333333336
-1.07,-0.675,61.111111111111114
-1.06,-0.68,63.888888888888886
-1.05,-0.69,66.66666666666667
-1.06,-0.705,69.44444444444444
-1.06,-0.685,72.22222222222223
-1.065,-0.685,75.0
-1.065,-0.675,77.77777777777777
-1.065,-0.64,80.55555555555556
-1.08,-0.64,83.33333333333333
-1.08,-0.645,86.11111111111111
-1.115,-0.63,88.88888888888889
-1.115,-0.63,91.66666666666667
-1.095,-0.64,94.44444444444444
-1.07,-0.64,97.22222222222223
-1.055,-0.665,100.0
-1.055,-0.675,102.77777777777777
-1.075,-0.69,105.55555555555556
-1.1,-0.68,108.33333333333333
-1.1,-0.69,111.11111111111111
-1.115,-0.68,113.88888888888889
-1.11,-0.685,116.66666666666667
-1.11,-0.695,119.44444444444444
-1.105,-0.7,122.22222222222223
-1.105,-0.705,125.0
-1.11,-0.695,127.77777777777777
-1.1,-0.68,130.55555555555554
-1.105,-0.685,133.33333333333334
-1.09,-0.65,136.11111111111111
-1.09,-0.655,138.88888888888889
-1.08,-0.66,141.66666666666666
-1.065,-0.7,144.44444444444446
-1.08,-0.72,147.22222222222223
-1.05,-0.765,150.0
-1.035,-0.845,152.77777777777777
-0.995,-0.93,155.55555555555554
-0.9,-1.035,158.33333333333334
-0.755,-1.175,161.11111111111111
-0.57,-1.33,163.88888888888889
-0.395,-1.485,166.66666666666666
-0.275,-1.61,169.44444444444446
-0.235,-1.67,172.22222222222223
-0.24,-1.61,175.0
-0.23,-1.5,177.77777777777777
-0.2,-1.325,180.55555555555554
-0.13,-1.175,183.33333333333334
-0.015,-1.04,186.11111111111111
0.11,-0.91,188.88888888888889
0.225,-0.755,191.66666666666666
0.245,-0.51,194.44444444444446
0.155,-0.195,197.22222222222223
-0.14,0.11,200.0
-0.575,0.34,202.77777777777777
-1.08,0.405,205.55555555555554
-1.5,0.3,208.33333333333334
-1.79,0.07,211.11111111111111
-1.92,-0.21,213.88888888888889
-1.98,-0.445,216.66666666666666
-2.01,-0.61,219.44444444444446
-2.05,-0.695,222.22222222222223
-2.12,-0.74,225.0
-2.17,-0.775,227.77777777777777
-2.17,-0.8,230.55555555555554
-2.14,-0.855,233.33333333333334
-2.075,-0.925,236.11111111111111
-2.06,-0.985,238.88888888888889
-2.045,-1.005,241.66666666666666
-2.025,-1.01,244.44444444444446
-1.985,-0.97,247.22222222222223
-1.95,-0.95,250.0
-1.9,-0.965,252.77777777777777
-1.8,-0.95,255.55555555555554
-1.685,-0.96,258.3333333333333
-1.57,-0.93,261.1111111111111
-1.445,-0.92,263.8888888888889
-1.335,-0.875,266.6666666666667
-1.23,-0.84,269.44444444444446
-1.175,-0.76,272.22222222222223
-1.14,-0.7,275.0
-1.15,-0.645,277.77777777777777
-1.17,-0.6,280.55555555555554
-1.17,-0.565,283.3333333333333
-1.14,-0.565,286.1111111111111
-1.095,-0.585,288.8888888888889
-1.06,-0.605,291.6666666666667
-1.1,-0.62,294.44444444444446
-1.18,-0.61,297.22222222222223
-1.23,-0.595,300.0
-1.21,-0.585,302.77777777777777
-1.095,-0.6,305.55555555555554
-0.985,-0.635,308.3333333333333
-0.96,-0.67,311.1111111111111
-0.995,-0.71,313.8888888888889
-1.035,-0.705,316.6666666666667
-1.07,-0.72,319.44444444444446
-1.08,-0.705,322.22222222222223
-1.04,-0.72,325.0
-1.015,-0.755,327.77777777777777
-0.995,-0.775,330.55555555555554
-1.01,-0.785,333.3333333333333
-1.045,-0.8,336.1111111111111
-1.085,-0.785,338.8888888888889
-1.115,-0.77,341.6666666666667
-1.105,-0.775,344.44444444444446
-1.105,-0.785,347.22222222222223
-1.125,-0.83,350.0
-1.14,-0.885,352.77777777777777
-1.175,-0.935,355.55555555555554
-1.185,-0.97,358.3333333333333
-1.175,-0.995,361.1111111111111
-1.185,-0.99,363.8888888888889
-1.205,-0.99,366.6666666666667
-1.2,-0.975,369.44444444444446
-1.205,-0.965,372.22222222222223
-1.2,-0.96,375.0
-1.165,-0.96,377.77777777777777
-1.13,-0.97,380.55555555555554
-1.135,-0.985,383.3333333333333
-1.15,-1.0,386.1111111111111
-1.21,-1.05,388.8888888888889
-1.225,-1.04,391.6666666666667
-1.205,-1.06,394.44444444444446
-1.215,-1.055,397.22222222222223
-1.23,-1.045,400.0
-1.265,-1.065,402.77777777777777
-1.26,-1.055,405.55555555555554
-1.21,-1.05,408.3333333333333
-1.15,-1.055,411.1111111111111
-1.15,-1.08,413.8888888888889
-1.175,-1.125,416.6666666666667
-1.205,-1.145,419.44444444444446
-1.25,-1.165,422.22222222222223
-1.32,-1.16,425.0
-1.395,-1.15,427.77777777777777
-1.47,-1.14,430.55555555555554
-1.495,-1.15,433.3333333333333
-1.485,-1.16,436.1111111111111
-1.43,-1.12,438.8888888888889
-1.375,-1.095,441.6666666666667
-1.335,-1.075,444.44444444444446
-1.275,-1.03,447.22222222222223
-1.21,-0.985,450.0
-1.155,-0.975,452.77777777777777
-1.16,-0.965,455.55555555555554
-1.215,-0.96,458.3333333333333
-1.27,-0.975,461.1111111111111
-1.3,-0.975,463.8888888888889
-1.29,-0.98,466.6666666666667
-1.26,-0.98,469.44444444444446
-1.215,-0.975,472.22222222222223
-1.17,-0.965,475.0
-1.135,-0.955,477.77777777777777
-1.09,-0.935,480.55555555555554
-1.065,-0.93,483.3333333333333
-1.04,-0.925,486.1111111111111
-1.035,-0.93,488.8888888888889
-1.025,-0.925,491.6666666666667
-1.055,-0.9,494.44444444444446
-1.07,-0.885,497.22222222222223
-1.07,-0.86,500.0
-1.04,-0.845,502.77777777777777
-0.99,-0.825,505.55555555555554
-0.96,-0.81,508.3333333333333
-0.92,-0.82,511.1111111111111
-0.885,-0.83,513.8888888888889
-0.875,-0.83,516.6666666666666
-0.89,-0.83,519.4444444444445
-0.89,-0.83,522.2222222222222
-0.915,-0.82,525.0
-0.965,-0.79,527.7777777777778
-1.005,-0.765,530.5555555555555
-1.035,-0.725,533.3333333333334
-1.04,-0.72,536.1111111111111
-0.975,-0.7,538.8888888888889
-0.905,-0.69,541.6666666666666
-0.885,-0.69,544.4444444444445
-0.85,-0.7,547.2222222222222
-0.855,-0.7,550.0
-0.905,-0.705,552.7777777777778
-0.92,-0.705,555.5555555555555
-0.955,-0.695,558.3333333333334
-0.98,-0.68,561.1111111111111
-0.955,-0.67,563.8888888888889
-0.94,-0.67,566.6666666666666
-0.935,-0.66,569.4444444444445
-0.95,-0.655,572.2222222222222
-0.96,-0.635,575.0
-0.92,-0.635,577.7777777777778
-0.915,-0.625,580.5555555555555
-0.9,-0.665,583.3333333333334
-0.93,-0.675,586.1111111111111
-0.945,-0.675,588.8888888888889
-0.945,-0.66,591.6666666666666
-0.925,-0.665,594.4444444444445
-0.915,-0.65,597.2222222222222
-0.97,-0.665,600.0
-1.035,-0.695,602.7777777777778
-1.06,-0.685,605.5555555555555
-1.05,-0.68,608.3333333333334
-1.005,-0.695,611.1111111111111
-0.94,-0.7,613.8888888888889
-0.925,-0.685,616.6666666666666
-0.92,-0.68,619.4444444444445
-0.925,-0.67,622.2222222222222
-0.93,-0.67,625.0
-0.925,-0.66,627.7777777777778
-0.93,-0.67,630.5555555555555
-0.935,-0.675,633.3333333333334
-0.925,-0.685,636.1111111111111
-0.94,-0.675,638.8888888888889
-0.985,-0.64,641.6666666666666
-1.04,-0.615,644.4444444444445
-1.075,-0.615,647.2222222222222
-1.04,-0.61,650.0
-0.975,-0.645,652.7777777777778
-0.935,-0.68,655.5555555555555
-0.905,-0.745,658.3333333333334
-0.9,-0.75,661.1111111111111
-0.96,-0.765,663.8888888888889
-1.02,-0.745,666.6666666666666
-1.07,-0.71,669.4444444444445
-1.06,-0.68,672.2222222222222
-1.02,-0.675,675.0
-0.955,-0.66,677.7777777777778
-0.89,-0.69,680.5555555555555
-0.85,-0.71,683.3333333333334
-0.87,-0.73,686.1111111111111
-0.915,-0.73,688.8888888888889
-0.975,-0.73,691.6666666666666
-1.04,-0.705,694.4444444444445
-1.045,-0.685,697.2222222222222
-1.025,-0.68,700.0
-0.975,-0.67,702.7777777777778
-0.935,-0.705,705.5555555555555
-0.905,-0.72,708.3333333333334
-0.925,-0.72,711.1111111111111
-0.94,-0.73,713.8888888888889
-0.95,-0.705,716.6666666666666
-0.955,-0.705,719.4444444444445
-0.98,-0.69,722.2222222222222
-0.975,-0.695,725.0
-0.975,-0.72,727.7777777777778
-0.985,-0.74,730.5555555555555
-0.99,-0.74,733.3333333333334
-0.965,-0.755,736.1111111111111
-0.95,-0.76,738.8888888888889
-0.93,-0.73,741.6666666666666
-0.89,-0.72,744.4444444444445
-0.865,-0.705,747.2222222222222
-0.88,-0.73,750.0
-0.875,-0.75,752.7777777777778
-0.925,-0.745,755.5555555555555
-0.96,-0.735,758.3333333333334
-0.97,-0.725,761.1111111111111
-0.98,-0.73,763.8888888888889
-0.94,-0.735,766.6666666666666
-0.9,-0.745,769.4444444444445
-0.91,-0.745,772.2222222222222
-0.92,-0.75,775.0
-0.945,-0.745,777.7777777777778
-0.915,-0.735,780.5555555555555
-0.86,-0.735,783.3333333333334
-0.82,-0.735,786.1111111111111
-0.835,-0.735,788.8888888888889
-0.87,-0.755,791.6666666666666
-0.875,-0.76,794.4444444444445
-0.855,-0.75,797.2222222222222
-0.82,-0.75,800.0
-0.76,-0.785,802.7777777777778
-0.73,-0.825,805.5555555555555
-0.7,-0.865,808.3333333333334
-0.69,-0.865,811.1111111111111
-0.7,-0.865,813.8888888888889
-0.745,-0.8,816.6666666666666
-0.78,-0.74,819.4444444444445
-0.83,-0.695,822.2222222222222
-0.83,-0.69,825.0
-0.835,-0.685,827.7777777777778
-0.82,-0.715,830.5555555555555
-0.815,-0.77,833.3333333333334
-0.84,-0.81,836.1111111111111
-0.85,-0.82,838.8888888888889
-0.875,-0.76,841.6666666666666
-0.8,-0.695,844.4444444444445
-0.725,-0.625,847.2222222222222
-0.675,-0.59,850.0
-0.65,-0.59,852.7777777777778
-0.67,-0.605,855.5555555555555
-0.74,-0.605,858.3333333333334
-0.815,-0.63,861.1111111111111
-0.9,-0.645,863.8888888888889
-0.93,-0.68,866.6666666666666
-0.91,-0.71,869.4444444444445
-0.88,-0.745,872.2222222222222
-0.84,-0.775,875.0
-0.855,-0.805,877.7777777777778
-0.87,-0.815,880.5555555555555
-0.9,-0.775,883.3333333333334
-0.95,-0.765,886.1111111111111
-1.01,-0.75,888.8888888888889
-1.05,-0.75,891.6666666666666
-1.075,-0.765,894.4444444444445
-1.085,-0.785,897.2222222222222
-1.095,-0.8,900.0
-1.07,-0.795,902.7777777777778
-1.045,-0.775,905.5555555555555
-1.0,-0.765,908.3333333333334
-0.95,-0.745,911.1111111111111
-0.93,-0.75,913.8888888888889
-0.93,-0.765,916.6666666666666
-0.955,-0.765,919.4444444444445
-0.98,-0.765,922.2222222222222
-1.01,-0.755,925.0
-1.02,-0.745,927.7777777777778
-0.995,-0.735,930.5555555555555
-1.01,-0.725,933.3333333333334
-1.0,-0.72,936.1111111111111
-1.005,-0.71,938.8888888888889
-1.01,-0.7,941.6666666666666
-0.985,-0.705,944.4444444444445
-0.965,-0.685,947.2222222222222
-0.955,-0.69,950.0
-0.91,-0.715,952.7777777777778
-0.88,-0.745,955.5555555555555
-0.865,-0.775,958.3333333333334
-0.895,-0.765,961.1111111111111
-0.97,-0.765,963.8888888888889
-1.05,-0.71,966.6666666666666
-1.06,-0.685,969.4444444444445
-0.995,-0.685,972.2222222222222
-0.91,-0.73,975.0
-0.85,-0.8,977.7777777777778
-0.85,-0.86,980.5555555555555
-0.905,-0.9,983.3333333333334
-0.95,-0.955,986.1111111111111
-1.01,-1.0,988.8888888888889
-0.995,-1.07,991.6666666666666
-0.91,-1.17,994.4444444444445
-0.785,-1.335,997.2222222222222
-0.645,-1.5,1000.0
-0.49,-1.675,1002.7777777777778
-0.41,-1.805,1005.5555555555555
-0.37,-1.815,1008.3333333333334
-0.37,-1.75,1011.1111111111111
-0.37,-1.58,1013.8888888888889
-0.325,-1.37,1016.6666666666666
-0.185,-1.125,1019.4444444444445
0.035,-0.92,1022.2222222222222
0.28,-0.67,1025.0
0.425,-0.41,1027.7777777777778
0.41,-0.115,1030.5555555555557
0.21,0.205,1033.3333333333333
-0.17,0.44,1036.111111111111
-0.635,0.585,1038.888888888889
-1.055,0.59,1041.6666666666667
-1.335,0.42,1044.4444444444443
-1.515,0.18,1047.2222222222222
-1.62,-0.045,1050.0
-1.7,-0.23,1052.7777777777778
-1.82,-0.365,1055.5555555555557
-1.95,-0.395,1058.3333333333333
-2.03,-0.46,1061.111111111111
-2.11,-0.52,1063.888888888889
-2.145,-0.565,1066.6666666666667
-2.15,-0.63,1069.4444444444443
-2.135,-0.675,1072.2222222222222
-2.1,-0.68,1075.0
-2.095,-0.675,1077.7777777777778
-2.095,-0.65,1080.5555555555557
-2.08,-0.625,1083.3333333333333
-2.06,-0.645,1086.111111111111
-2.01,-0.695,1088.888888888889
-1.935,-0.735,1091.6666666666667
-1.875,-0.77,1094.4444444444443
-1.845,-0.805,1097.2222222222222
-1.805,-0.82,1100.0
-1.705,-0.8,1102.7777777777778
-1.585,-0.745,1105.5555555555557
-1.445,-0.66,1108.3333333333333
-1.305,-0.62,1111.111111111111
-1.205,-0.6,1113.888888888889
-1.145,-0.605,1116.6666666666667
-1.115,-0.62,1119.4444444444443
-1.105,-0.625,1122.2222222222222
-1.115,-0.605,1125.0
-1.14,-0.62,1127.7777777777778
-1.17,-0.605,1130.5555555555557
-1.16,-0.6,1133.3333333333333
-1.105,-0.57,1136.111111111111
-1.03,-0.55,1138.888888888889
-0.97,-0.55,1141.6666666666667
-0.97,-0.555,1144.4444444444443
-0.995,-0.565,1147.2222222222222
-1.04,-0.545,1150.0
-1.08,-0.56,1152.7777777777778
-1.1,-0.575,1155.5555555555557
-1.09,-0.605,1158.3333333333333
-1.07,-0.625,1161.111111111111
-1.05,-0.66,1163.888888888889
-1.025,-0.675,1166.6666666666667
-1.005,-0.675,1169.4444444444443
-0.99,-0.68,1172.2222222222222
-1.01,-0.665,1175.0
-1.02,-0.655,1177.7777777777778
-1.06,-0.655,1180.5555555555557
-1.065,-0.655,1183.3333333333333
-1.07,-0.655,1186.111111111111
-1.065,-0.68,1188.888888888889
-1.045,-0.705,1191.6666666666667
-1.05,-0.735,1194.4444444444443
-1.075,-0.765,1197.2222222222222
-1.105,-0.775,1200.0
-1.13,-0.775,1202.7777777777778
-1.15,-0.775,1205.5555555555557
-1.17,-0.76,1208.3333333333333
-1.185,-0.78,1211.111111111111
-1.205,-0.8,1213.888888888889
-1.185,-0.79,1216.6666666666667
-1.17,-0.82,1219.4444444444443
-1.155,-0.845,1222.2222222222222
-1.155,-0.87,1225.0
-1.16,-0.9,1227.7777777777778
-1.16,-0.9,1230.5555555555557
-1.17,-0.9,1233.3333333333333
-1.19,-0.885,1236.111111111111
-1.245,-0.885,1238.888888888889
-1.295,-0.895,1241.6666666666667
-1.31,-0.885,1244.4444444444443
-1.29,-0.905,1247.2222222222222
-1.24,-0.91,1250.0
-1.185,-0.935,1252.7777777777778
-1.16,-0.98,1255.5555555555557
-1.165,-1.01,1258.3333333333333
-1.24,-1.015,1261.111111111111
-1.32,-0.995,1263.888888888889
-1.375,-0.98,1266.6666666666667
-1.355,-0.96,1269.4444444444443
-1.265,-0.975,1272.2222222222222
-1.2,-0.99,1275.0
-1.165,-1.04,1277.7777777777778
-1.175,-1.06,1280.5555555555557
-1.22,-1.05,1283.3333333333333
-1.265,-1.005,1286.111111111111
-1.28,-0.99,1288.888888888889
-1.29,-0.99,1291.6666666666667
-1.26,-1.0,1294.4444444444443
-1.205,-1.04,1297.2222222222222
-1.215,-1.06,1300.0
-1.205,-1.065,1302.7777777777778
-1.205,-1.02,1305.5555555555557
-1.185,-0.95,1308.3333333333333
-1.185,-0.905,1311.111111111111
-1.165,-0.87,1313.888888888889
-1.125,-0.86,1316.6666666666667
-1.075,-0.88,1319.4444444444443
-1.01,-0.925,1322.2222222222222
-0.97,-0.935,1325.0
-0.98,-0.945,1327.7777777777778
-1.0,-0.94,1330.5555555555557
-1.04,-0.905,1333.3333333333333
-1.045,-0.875,1336.111111111111
-1.01,-0.845,1338.888888888889
-0.975,-0.82,1341.6666666666667
-0.97,-0.81,1344.4444444444443
-0.945,-0.77,1347.2222222222222
-0.95,-0.745,1350.0
-0.945,-0.715,1352.7777777777778
-0.91,-0.705,1355.5555555555557
-0.89,-0.685,1358.3333333333333
-0.885,-0.695,1361.111111111111
-0.92,-0.72,1363.888888888889
-0.935,-0.735,1366.6666666666667
-0.9,-0.735,1369.4444444444443
-0.86,-0.73,1372.2222222222222
-0.83,-0.72,1375.0
-0.83,-0.69,1377.7777777777778
-0.855,-0.685,1380.5555555555557
-0.9,-0.645,1383.3333333333333
-0.935,-0.645,1386.111111111111
-0.94,-0.64,1388.888888888889
-0.945,-0.65,1391.6666666666667
-0.935,-0.65,1394.4444444444443
-0.915,-0.65,1397.2222222222222
-0.87,-0.655,1400.0
-0.83,-0.65,1402.7777777777778
-0.815,-0.67,1405.5555555555557
-0.825,-0.665,1408.3333333333333
-0.85,-0.655,1411.111111111111
-0.865,-0.65,1413.888888888889
-0.87,-0.64,1416.6666666666667
-0.87,-0.635,1419.4444444444443
-0.855,-0.62,1422.2222222222222
-0.84,-0.615,1425.0
-0.855,-0.605,1427.7777777777778
-0.905,-0.6,1430.5555555555557
-0.96,-0.595,1433.3333333333333
-0.975,-0.585,1436.111111111111
-0.95,-0.615,1438.888888888889
-0.9,-0.61,1441.6666666666667
-0.865,-0.63,1444.4444444444443
-0.875,-0.625,1447.2222222222222
-0.92,-0.66,1450.0
-0.93,-0.655,1452.7777777777778
-0.95,-0.66,1455.5555555555557
-0.935,-0.65,1458.3333333333333
-0.95,-0.68,1461.111111111111
-0.99,-0.69,1463.888888888889
-1.0,-0.68,1466.6666666666667
-0.985,-0.69,1469.4444444444443
-0.955,-0.685,1472.2222222222222
-0.92,-0.68,1475.0
-0.9,-0.67,1477.7777777777778
-0.875,-0.665,1480.5555555555557
-0.865,-0.645,1483.3333333333333
-0.88,-0.65,1486.111111111111
-0.895,-0.645,1488.888888888889
-0.895,-0.665,1491.6666666666667
-0.9,-0.675,1494.4444444444443
-0.93,-0.665,1497.2222222222222
-0.95,-0.67,1500.0
-0.98,-0.655,1502.7777777777778
-0.945,-0.635,1505.5555555555557
-0.895,-0.62,1508.3333333333333
-0.87,-0.595,1511.111111111111
-0.87,-0.595,1513.888888888889
-0.915,-0.63,1516.6666666666667
-0.945,-0.635,1519.4444444444443
-0.955,-0.66,1522.2222222222222
-0.94,-0.655,1525.0
-0.905,-0.66,1527.7777777777778
-0.905,-0.645,1530.5555555555557
-0.935,-0.64,1533.3333333333333
-0.96,-0.645,1536.111111111111
-0.955,-0.66,1538.888888888889
-0.94,-0.665,1541.6666666666667
-0.885,-0.675,1544.4444444444443
-0.875,-0.67,1547.2222222222222
-0.84,-0.64,1550.0
-0.845,-0.62,1552.7777777777778
-0.85,-0.605,1555.5555555555557
-0.88,-0.575,1558.3333333333333
-0.92,-0.56,1561.111111111111
-0.925,-0.54,1563.888888888889
-0.895,-0.565,1566.6666666666667
-0.855,-0.59,1569.4444444444443
-0.835,-0.615,1572.2222222222222
-0.855,-0.61,1575.0
-0.86,-0.61,1577.7777777777778
-0.86,-0.61,1580.5555555555557
-0.855,-0.59,1583.3333333333333
-0.865,-0.595,1586.111111111111
-0.9,-0.595,1588.888888888889
-0.905,-0.59,1591.6666666666667
-0.9,-0.595,1594.4444444444443
-0.87,-0.63,1597.2222222222222
-0.85,-0.67,1600.0
-0.83,-0.725,1602.7777777777778
-0.85,-0.73,1605.5555555555557
-0.895,-0.73,1608.3333333333333
-0.92,-0.685,1611.111111111111
-0.945,-0.645,1613.888888888889
-0.93,-0.615,1616.6666666666667
-0.91,-0.605,1619.4444444444443
-0.875,-0.605,1622.2222222222222
-0.865,-0.625,1625.0
-0.87,-0.62,1627.7777777777778
-0.855,-0.61,1630.5555555555557
-0.855,-0.625,1633.3333333333333
-0.86,-0.635,1636.111111111111
-0.855,-0.625,1638.888888888889
-0.835,-0.6,1641.6666666666667
-0.82,-0.59,1644.4444444444443
-0.79,-0.59,1647.2222222222222
-0.775,-0.6,1650.0
-0.755,-0.63,1652.7777777777778
-0.755,-0.665,1655.5555555555557
-0.735,-0.7,1658.3333333333333
-0.72,-0.695,1661.111111111111
-0.72,-0.71,1663.888888888889
-0.71,-0.685,1666.6666666666667
-0.71,-0.635,1669.4444444444443
-0.7,-0.585,1672.2222222222222
-0.705,-0.535,1675.0
-0.72,-0.525,1677.7777777777778
-0.75,-0.535,1680.5555555555557
-0.77,-0.525,1683.3333333333333
-0.805,-0.57,1686.111111111111
-0.815,-0.575,1688.888888888889
-0.785,-0.61,1691.6666666666667
-0.715,-0.59,1694.4444444444443
-0.67,-0.585,1697.2222222222222
-0.63,-0.565,1700.0
-0.655,-0.545,1702.7777777777778
-0.685,-0.485,1705.5555555555557
-0.72,-0.445,1708.3333333333333
-0.715,-0.41,1711.111111111111
-0.7,-0.385,1713.888888888889
-0.745,-0.4,1716.6666666666667
-0.82,-0.435,1719.4444444444443
-0.895,-0.47,1722.2222222222222
-0.925,-0.49,1725.0
-0.91,-0.51,1727.7777777777778
-0.885,-0.545,1730.5555555555557
-0.865,-0.565,1733.3333333333333
-0.835,-0.59,1736.111111111111
-0.845,-0.605,1738.888888888889
-0.88,-0.61,1741.6666666666667
-0.895,-0.615,1744.4444444444443
-0.905,-0.61,1747.2222222222222
-0.925,-0.605,1750.0
-0.935,-0.595,1752.7777777777778
-0.965,-0.58,1755.5555555555557
-0.975,-0.575,1758.3333333333333
-0.98,-0.59,1761.111111111111
-0.985,-0.605,1763.888888888889
-0.99,-0.64,1766.6666666666667
-0.965,-0.665,1769.4444444444443
-0.935,-0.645,1772.2222222222222
-0.905,-0.655,1775.0
-0.895,-0.635,1777.7777777777778
-0.925,-0.62,1780.5555555555557
-0.96,-0.62,1783.3333333333333
-0.99,-0.62,1786.111111111111
-1.03,-0.61,1788.888888888889
-1.025,-0.62,1791.6666666666667
-1.0,-0.64,1794.4444444444443
-0.975,-0.655,1797.2222222222222
-0.975,-0.665,1800.0
-0.995,-0.675,1802.7777777777778
-1.0,-0.655,1805.5555555555557
-0.975,-0.62,1808.3333333333333
-0.935,-0.595,1811.111111111111
-0.94,-0.575,1813.888888888889
-0.925,-0.585,1816.6666666666667
-0.955,-0.615,1819.4444444444443
-0.99,-0.625,1822.2222222222222
-1.01,-0.635,1825.0
-1.015,-0.65,1827.7777777777778
-1.005,-0.675,1830.5555555555557
-1.025,-0.72,1833.3333333333333
-1.035,-0.8,1836.111111111111
-1.015,-0.9,1838.888888888889
-0.915,-1.025,1841.6666666666667
-0.765,-1.185,1844.4444444444443
-0.61,-1.37,1847.2222222222222
-0.455,-1.55,1850.0
-0.35,-1.705,1852.7777777777778
-0.325,-1.77,1855.5555555555557
-0.355,-1.72,1858.3333333333333
-0.4,-1.57,1861.111111111111
-0.37,-1.37,1863.888888888889
-0.23,-1.155,1866.6666666666667
-0.005,-0.97,1869.4444444444443
0.245,-0.755,1872.2222222222222
0.42,-0.505,1875.0
0.435,-0.2,1877.7777777777778
0.26,0.09,1880.5555555555557
-0.1,0.325,1883.3333333333333
-0.535,0.435,1886.111111111111
-0.975,0.42,1888.888888888889
-1.335,0.285,1891.6666666666667
-1.605,0.05,1894.4444444444443
-1.77,-0.165,1897.2222222222222
-1.865,-0.33,1900.0
-1.9,-0.41,1902.7777777777778
-1.93,-0.49,1905.5555555555557
-1.945,-0.525,1908.3333333333333
-1.985,-0.59,1911.111111111111
-2.045,-0.655,1913.888888888889
-2.085,-0.725,1916.6666666666667
-2.12,-0.765,1919.4444444444443
-2.11,-0.8,1922.2222222222222
-2.085,-0.795,1925.0
-2.09,-0.775,1927.7777777777778
-2.085,-0.76,1930.5555555555557
-2.065,-0.77,1933.3333333333333
-2.02,-0.765,1936.111111111111
-1.97,-0.785,1938.888888888889
-1.905,-0.78,1941.6666666666667
-1.83,-0.765,1944.4444444444443
-1.755,-0.765,1947.2222222222222
-1.66,-0.72,1950.0
-1.53,-0.67,1952.7777777777778
-1.4,-0.63,1955.5555555555557
-1.285,-0.595,1958.3333333333333
-1.185,-0.575,1961.111111111111
-1.12,-0.56,1963.888888888889
-1.11,-0.585,1966.6666666666667
-1.115,-0.585,1969.4444444444443
-1.13,-0.595,1972.2222222222222
-1.15,-0.535,1975.0
-1.125,-0.505,1977.7777777777778
-1.105,-0.465,1980.5555555555557
-1.06,-0.43,1983.3333333333333
-1.015,-0.42,1986.111111111111
-1.01,-0.445,1988.888888888889
-0.99,-0.485,1991.6666666666667
-0.97,-0.53,1994.4444444444443
-0.98,-0.525,1997.2222222222222
-1.04,-0.54,2000.0
-1.125,-0.54,2002.7777777777778
-1.18,-0.53,2005.5555555555557
-1.2,-0.5,2008.3333333333333
-1.145,-0.485,2011.111111111111
-1.085,-0.49,2013.888888888889
-1.025,-0.505,2016.6666666666667
-0.995,-0.53,2019.4444444444443
-0.955,-0.58,2022.2222222222222
-0.955,-0.6,2025.0
-0.975,-0.64,2027.7777777777778
-1.005,-0.65,2030.5555555555557
-1.08,-0.655,2033.3333333333333
-1.15,-0.645,2036.111111111111
-1.185,-0.645,2038.888888888889
-1.175,-0.665,2041.6666666666667
-1.16,-0.67,2044.4444444444443
-1.145,-0.685,2047.2222222222222
-1.155,-0.72,2050.0
-1.155,-0.74,2052.777777777778
-1.16,-0.755,2055.5555555555557
-1.16,-0.775,2058.3333333333335
-1.205,-0.795,2061.1111111111113
-1.24,-0.81,2063.8888888888887
-1.285,-0.815,2066.6666666666665
-1.305,-0.825,2069.4444444444443
-1.305,-0.825,2072.222222222222
-1.295,-0.805,2075.0
-1.27,-0.815,2077.777777777778
-1.24,-0.815,2080.5555555555557
-1.22,-0.84,2083.3333333333335
-1.2,-0.86,2086.1111111111113
-1.195,-0.885,2088.8888888888887
-1.225,-0.875,2091.6666666666665
-1.265,-0.885,2094.4444444444443
-1.285,-0.87,2097.222222222222
-1.32,-0.86,2100.0
-1.34,-0.88,2102.777777777778
-1.36,-0.895,2105.5555555555557
-1.36,-0.91,2108.3333333333335
-1.355,-0.925,2111.1111111111113
-1.305,-0.94,2113.8888888888887
-1.24,-0.94,2116.6666666666665
-1.21,-0.965,2119.4444444444443
-1.21,-0.94,2122.222222222222
-1.2,-0.97,2125.0
-1.23,-0.975,2127.777777777778
-1.265,-0.98,2130.5555555555557
-1.29,-0.985,2133.3333333333335
-1.315,-0.99,2136.1111111111113
-1.335,-0.985,2138.8888888888887
-1.32,-0.965,2141.6666666666665
-1.31,-0.945,2144.4444444444443
-1.275,-0.91,2147.222222222222
-1.245,-0.88,2150.0
-1.2,-0.875,2152.777777777778
-1.17,-0.87,2155.5555555555557
-1.165,-0.86,2158.3333333333335
-1.125,-0.865,2161.1111111111113
-1.125,-0.865,2163.8888888888887
-1.095,-0.87,2166.6666666666665
-1.065,-0.85,2169.4444444444443
-1.055,-0.815,2172.222222222222
-1.035,-0.77,2175.0
-1.02,-0.765,2177.777777777778
-1.015,-0.73,2180.5555555555557
-1.065,-0.695,2183.3333333333335
-1.13,-0.7,2186.1111111111113
-1.16,-0.68,2188.8888888888887
-1.07,-0.685,2191.6666666666665
-0.975,-0.68,2194.4444444444443
-0.885,-0.72,2197.222222222222
-0.84,-0.73,2200.0
-0.845,-0.745,2202.777777777778
-0.865,-0.72,2205.5555555555557
-0.92,-0.675,2208.3333333333335
-0.945,-0.62,2211.1111111111113
-0.95,-0.59,2213.8888888888887
-0.935,-0.565,2216.6666666666665
-0.935,-0.57,2219.4444444444443
-0.955,-0.595,2222.222222222222
-0.97,-0.6,2225.0
-0.965,-0.605,2227.777777777778
-0.95,-0.625,2230.5555555555557
-0.93,-0.615,2233.3333333333335
-0.935,-0.61,2236.1111111111113
-0.94,-0.585,2238.8888888888887
-0.965,-0.565,2241.6666666666665
-0.945,-0.54,2244.4444444444443
-0.965,-0.535,2247.222222222222
-0.97,-0.53,2250.0
-0.975,-0.52,2252.777777777778
-0.96,-0.51,2255.5555555555557
-0.99,-0.51,2258.3333333333335
-1.03,-0.495,2261.1111111111113
-1.08,-0.495,2263.8888888888887
-1.03,-0.485,2266.6666666666665
-0.95,-0.505,2269.4444444444443
-0.865,-0.51,2272.222222222222
-0.815,-0.55,2275.0
-0.815,-0.575,2277.777777777778
-0.835,-0.58,2280.5555555555557
-0.9,-0.55,2283.3333333333335
-0.96,-0.525,2286.1111111111113
-1.015,-0.51,2288.8888888888887
-1.04,-0.485,2291.6666666666665
-1.055,-0.495,2294.4444444444443
-1.02,-0.535,2297.222222222222
-1.005,-0.545,2300.0
-0.995,-0.565,2302.777777777778
-1.005,-0.555,2305.5555555555557
-1.02,-0.515,2308.3333333333335
-1.045,-0.5,2311.1111111111113
-1.035,-0.505,2313.8888888888887
-1.01,-0.505,2316.6666666666665
-0.95,-0.525,2319.4444444444443
-0.925,-0.54,2322.222222222222
-0.915,-0.555,2325.0
-0.925,-0.54,2327.777777777778
-0.95,-0.525,2330.5555555555557
-0.97,-0.515,2333.3333333333335
-1.015,-0.485,2336.1111111111113
-1.025,-0.485,2338.8888888888887
-0.995,-0.49,2341.6666666666665
-0.95,-0.515,2344.4444444444443
-0.905,-0.51,2347.222222222222
-0.895,-0.515,2350.0
-0.925,-0.52,2352.777777777778
-0.94,-0.535,2355.5555555555557
-0.955,-0.525,2358.3333333333335
-0.97,-0.515,2361.1111111111113
-0.975,-0.51,2363.8888888888887
-0.99,-0.515,2366.6666666666665
-1.005,-0.515,2369.4444444444443
-1.025,-0.5,2372.222222222222
-1.045,-0.495,2375.0
-1.025,-0.49,2377.777777777778
-0.99,-0.505,2380.5555555555557
-0.96,-0.505,2383.3333333333335
-0.945,-0.51,2386.1111111111113
-0.915,-0.515,2388.8888888888887
-0.915,-0.52,2391.6666666666665
-0.905,-0.495,2394.4444444444443
-0.91,-0.465,2397.222222222222
-0.915,-0.47,2400.0
-0.94,-0.47,2402.777777777778
-0.935,-0.455,2405.5555555555557
-0.935,-0.445,2408.3333333333335
-0.97,-0.445,2411.1111111111113
-0.985,-0.475,2413.8888888888887
-0.985,-0.475,2416.6666666666665
-0.95,-0.5,2419.4444444444443
-0.9,-0.505,2422.222222222222
-0.835,-0.515,2425.0
-0.78,-0.505,2427.777777777778
-0.775,-0.52,2430.5555555555557
-0.795,-0.505,2433.3333333333335
-0.85,-0.51,2436.1111111111113
-0.91,-0.485,2438.8888888888887
-0.955,-0.45,2441.6666666666665
-0.965,-0.46,2444.4444444444443
-0.945,-0.435,2447.222222222222
-0.935,-0.44,2450.0
-0.91,-0.445,2452.777777777778
-0.915,-0.465,2455.5555555555557
-0.925,-0.47,2458.3333333333335
-0.95,-0.47,2461.1111111111113
-0.955,-0.455,2463.8888888888887
-0.945,-0.45,2466.6666666666665
-0.935,-0.455,2469.4444444444443
-0.9,-0.455,2472.222222222222
-0.9,-0.455,2475.0
-0.855,-0.455,2477.777777777778
-0.835,-0.455,2480.5555555555557
-0.85,-0.455,2483.3333333333335
-0.87,-0.47,2486.1111111111113
-0.865,-0.455,2488.8888888888887
-0.85,-0.47,2491.6666666666665
-0.8,-0.495,2494.4444444444443
-0.795,-0.525,2497.222222222222
-0.79,-0.53,2500.0
-0.765,-0.535,2502.777777777778
-0.745,-0.55,2505.5555555555557
-0.745,-0.535,2508.3333333333335
-0.745,-0.5,2511.1111111111113
-0.76,-0.485,2513.8888888888887
-0.76,-0.475,2516.6666666666665
-0.73,-0.44,2519.4444444444443
-0.715,-0.445,2522.222222222222
-0.715,-0.42,2525.0
-0.74,-0.415,2527.777777777778
-0.76,-0.41,2530.5555555555557
-0.805,-0.425,2533.3333333333335
-0.84,-0.44,2536.1111111111113
-0.875,-0.45,2538.8888888888887
-0.855,-0.44,2541.6666666666665
-0.82,-0.44,2544.4444444444443
-0.75,-0.42,2547.222222222222
-0.7,-0.395,2550.0
-0.66,-0.375,2552.777777777778
-0.625,-0.35,2555.5555555555557
-0.64,-0.33,2558.3333333333335
-0.695,-0.325,2561.1111111111113
-0.775,-0.305,2563.8888888888887
-0.91,-0.295,2566.6666666666665
-0.96,-0.325,2569.4444444444443
-0.96,-0.34,2572.222222222222
-0.93,-0.4,2575.0
-0.895,-0.44,2577.777777777778
-0.855,-0.455,2580.5555555555557
-0.86,-0.455,2583.3333333333335
-0.87,-0.45,2586.1111111111113
-0.895,-0.425,2588.8888888888887
-0.89,-0.41,2591.6666666666665
-0.915,-0.415,2594.4444444444443
-0.965,-0.4,2597.222222222222
-1.03,-0.42,2600.0
-1.085,-0.425,2602.777777777778
-1.07,-0.44,2605.5555555555557
-1.05,-0.435,2608.3333333333335
-1.03,-0.44,2611.1111111111113
-1.005,-0.455,2613.8888888888887
-0.98,-0.435,2616.6666666666665
-0.965,-0.43,2619.4444444444443
-0.955,-0.425,2622.222222222222
-0.95,-0.42,2625.0
-0.94,-0.45,2627.777777777778
-0.92,-0.45,2630.5555555555557
-0.87,-0.475,2633.3333333333335
-0.845,-0.48,2636.1111111111113
-0.86,-0.47,2638.8888888888887
-0.87,-0.445,2641.6666666666665
-0.895,-0.435,2644.4444444444443
-0.9,-0.42,2647.222222222222
-0.905,-0.43,2650.0
-0.9,-0.445,2652.777777777778
-0.94,-0.5,2655.5555555555557
-0.935,-0.525,2658.3333333333335
-0.925,-0.55,2661.1111111111113
-0.935,-0.565,2663.8888888888887
-0.935,-0.565,2666.6666666666665
-0.975,-0.54,2669.4444444444443
-1.015,-0.53,2672.222222222222
-1.03,-0.52,2675.0
-1.05,-0.565,2677.777777777778
-1.05,-0.6,2680.5555555555557
-1.015,-0.685,2683.3333333333335
-0.94,-0.78,2686.1111111111113
-0.84,-0.885,2688.8888888888887
-0.725,-1.0,2691.6666666666665
-0.595,-1.12,2694.4444444444443
-0.46,-1.215,2697.222222222222
-0.32,-1.32,2700.0
-0.22,-1.36,2702.777777777778
-0.185,-1.34,2705.5555555555557
-0.19,-1.25,2708.3333333333335
-0.215,-1.13,2711.1111111111113
-0.19,-0.99,2713.8888888888887
-0.14,-0.835,2716.6666666666665
0.01,-0.705,2719.4444444444443
0.175,-0.525,2722.222222222222
0.29,-0.28,2725.0
0.295,0.04,2727.777777777778
0.135,0.37,2730.5555555555557
-0.175,0.625,2733.3333333333335
-0.605,0.74,2736.1111111111113
-1.035,0.71,2738.8888888888887
-1.415,0.52,2741.6666666666665
-1.67,0.255,2744.4444444444443
-1.845,-0.03,2747.222222222222
-1.94,-0.235,2750.0
-1.985,-0.375,2752.777777777778
-2.015,-0.435,2755.5555555555557
-2.02,-0.48,2758.3333333333335
-2.01,-0.52,2761.1111111111113
-2.02,-0.555,2763.8888888888887
-2.05,-0.59,2766.6666666666665
-2.09,-0.63,2769.4444444444443
-2.115,-0.64,2772.222222222222
-2.135,-0.635,2775.0
-2.145,-0.615,2777.777777777778
-2.15,-0.585,2780.5555555555557
-2.13,-0.58,2783.3333333333335
-2.095,-0.58,2786.1111111111113
-1.99,-0.6,2788.8888888888887
-1.875,-0.65,2791.6666666666665
-1.76,-0.66,2794.4444444444443
-1.62,-0.665,2797.222222222222
-1.465,-0.645,2800.0
-1.355,-0.58,2802.777777777778
-1.235,-0.495,2805.5555555555557
-1.175,-0.43,2808.3333333333335
-1.135,-0.365,2811.1111111111113
-1.14,-0.33,2813.8888888888887
-1.125,-0.335,2816.6666666666665
-1.115,-0.35,2819.4444444444443
-1.09,-0.395,2822.222222222222
-1.055,-0.435,2825.0
-1.04,-0.445,2827.777777777778
-1.025,-0.42,2830.5555555555557
-1.07,-0.37,2833.3333333333335
-1.125,-0.3,2836.1111111111113
-1.16,-0.265,2838.8888888888887
-1.12,-0.26,2841.6666666666665
-1.07,-0.285,2844.4444444444443
-1.03,-0.34,2847.222222222222
-1.03,-0.395,2850.0
-1.025,-0.435,2852.777777777778
-1.05,-0.45,2855.5555555555557
-1.075,-0.46,2858.3333333333335
-1.095,-0.46,2861.1111111111113
-1.11,-0.47,2863.8888888888887
-1.125,-0.46,2866.6666666666665
-1.115,-0.48,2869.4444444444443
-1.12,-0.47,2872.222222222222
-1.115,-0.485,2875.0
-1.125,-0.465,2877.777777777778
-1.14,-0.5,2880.5555555555557
-1.14,-0.525,2883.3333333333335
-1.14,-0.555,2886.1111111111113
-1.15,-0.595,2888.8888888888887
-1.165,-0.605,2891.6666666666665
-1.185,-0.645,2894.4444444444443
-1.19,-0.635,2897.222222222222
-1.21,-0.635,2900.0
-1.21,-0.63,2902.777777777778
-1.225,-0.605,2905.5555555555557
-1.22,-0.61,2908.3333333333335
-1.23,-0.63,2911.1111111111113
-1.245,-0.645,2913.8888888888887
-1.25,-0.67,2916.6666666666665
-1.265,-0.705,2919.4444444444443
-1.285,-0.755,2922.222222222222
-1.295,-0.765,2925.0
-1.3,-0.78,2927.777777777778
-1.32,-0.78,2930.5555555555557
-1.32,-0.785,2933.3333333333335
-1.315,-0.79,2936.1111111111113
-1.295,-0.765,2938.8888888888887
-1.295,-0.77,2941.6666666666665
-1.315,-0.775,2944.4444444444443
-1.345,-0.8,2947.222222222222
-1.365,-0.795,2950.0
-1.39,-0.805,2952.777777777778
-1.365,-0.825,2955.5555555555557
-1.33,-0.83,2958.3333333333335
-1.31,-0.845,2961.1111111111113
-1.305,-0.86,2963.8888888888887
-1.3,-0.875,2966.6666666666665
-1.31,-0.875,2969.4444444444443
-1.315,-0.86,2972.222222222222
-1.31,-0.84,2975.0
-1.315,-0.83,2977.777777777778
-1.3,-0.815,2980.5555555555557
-1.28,-0.8,2983.3333333333335
-1.25,-0.8,2986.1111111111113
-1.23,-0.775,2988.8888888888887
-1.215,-0.765,2991.6666666666665
-1.195,-0.76,2994.4444444444443
-1.205,-0.755,2997.222222222222
-1.2,-0.755,3000.0
-1.19,-0.745,3002.777777777778
-1.17,-0.735,3005.5555555555557
-1.145,-0.72,3008.3333333333335
-1.11,-0.685,3011.1111111111113
-1.09,-0.68,3013.8888888888887
-1.075,-0.66,3016.6666666666665
-1.045,-0.64,3019.4444444444443
-1.015,-0.62,3022.222222222222
-1.0,-0.6,3025.0
-1.0,-0.58,3027.777777777778
-1.02,-0.54,3030.5555555555557
-1.045,-0.51,3033.3333333333335
-1.045,-0.485,3036.1111111111113
-1.01,-0.495,3038.8888888888887
-0.99,-0.475,3041.6666666666665
-0.965,-0.46,3044.4444444444443
-0.95,-0.445,3047.222222222222
-0.945,-0.45,3050.0
-0.945,-0.455,3052.777777777778
-0.94,-0.46,3055.5555555555557
-0.945,-0.47,3058.3333333333335
-0.945,-0.48,3061.1111111111113
-0.97,-0.475,3063.8888888888887
-0.96,-0.465,3066.6666666666665
-0.95,-0.42,3069.4444444444443
-0.955,-0.38,3072.222222222222
-0.945,-0.37,3075.0
-0.95,-0.355,3077.777777777778
-0.975,-0.34,3080.5555555555557
-0.97,-0.37,3083.3333333333335
-0.96,-0.37,3086.1111111111113
-0.97,-0.385,3088.8888888888887
-0.975,-0.4,3091.6666666666665
-0.965,-0.41,3094.4444444444443
-0.98,-0.42,3097.222222222222
-0.965,-0.42,3100.0
-0.975,-0.425,3102.777777777778
-0.97,-0.425,3105.5555555555557
-0.965,-0.435,3108.3333333333335
-0.97,-0.435,3111.1111111111113
-0.99,-0.42,3113.8888888888887
-1.0,-0.44,3116.6666666666665
-1.015,-0.44,3119.4444444444443
-1.005,-0.47,3122.222222222222
-1.015,-0.48,3125.0
-1.02,-0.465,3127.777777777778
-1.025,-0.455,3130.5555555555557
-1.015,-0.42,3133.3333333333335
-1.005,-0.415,3136.1111111111113
-1.0,-0.385,3138.8888888888887
-0.995,-0.385,3141.6666666666665
-0.99,-0.4,3144.4444444444443
-0.985,-0.385,3147.222222222222
-0.975,-0.4,3150.0
-0.975,-0.39,3152.777777777778
-1.0,-0.425,3155.5555555555557
-1.015,-0.435,3158.3333333333335
-0.99,-0.455,3161.1111111111113
-0.98,-0.45,3163.8888888888887
-0.96,-0.465,3166.6666666666665
-0.97,-0.44,3169.4444444444443
-1.005,-0.43,3172.222222222222
-1.02,-0.44,3175.0
-1.03,-0.435,3177.777777777778
-1.05,-0.45,3180.5555555555557
-1.04,-0.465,3183.3333333333335
-1.025,-0.47,3186.1111111111113
-1.045,-0.475,3188.8888888888887
-1.045,-0.47,3191.6666666666665
-1.045,-0.47,3194.4444444444443
-1.05,-0.47,3197.222222222222
-1.035,-0.465,3200.0
-1.055,-0.475,3202.777777777778
-1.045,-0.45,3205.5555555555557
-1.04,-0.455,3208.3333333333335
-1.035,-0.435,3211.1111111111113
-1.015,-0.425,3213.8888888888887
-1.025,-0.44,3216.6666666666665
-1.01,-0.43,3219.4444444444443
-1.02,-0.425,3222.222222222222
-1.01,-0.44,3225.0
-1.02,-0.46,3227.777777777778
-0.995,-0.475,3230.5555555555557
-0.995,-0.47,3233.3333333333335
-0.99,-0.47,3236.1111111111113
-0.985,-0.435,3238.8888888888887
-1.0,-0.455,3241.6666666666665
-1.03,-0.43,3244.4444444444443
-1.035,-0.425,3247.222222222222
-1.045,-0.435,3250.0
-1.065,-0.47,3252.777777777778
-1.08,-0.48,3255.5555555555557
-1.09,-0.485,3258.3333333333335
-1.095,-0.505,3261.1111111111113
-1.08,-0.515,3263.8888888888887
-1.055,-0.52,3266.6666666666665
-1.045,-0.5,3269.4444444444443
-1.04,-0.475,3272.222222222222
-1.05,-0.465,3275.0
-1.04,-0.455,3277.777777777778
-1.05,-0.47,3280.5555555555557
-1.055,-0.48,3283.3333333333335
-1.035,-0.495,3286.1111111111113
-1.025,-0.5,3288.8888888888887
-1.02,-0.5,3291.6666666666665
-0.995,-0.515,3294.4444444444443
-0.985,-0.49,3297.222222222222
-0.96,-0.47,3300.0
-0.95,-0.43,3302.777777777778
-0.95,-0.4,3305.5555555555557
-0.96,-0.405,3308.3333333333335
-0.95,-0.41,3311.1111111111113
-0.965,-0.41,3313.8888888888887
-0.985,-0.425,3316.6666666666665
-0.98,-0.445,3319.4444444444443
-0.965,-0.465,3322.222222222222
-0.945,-0.5,3325.0
-0.96,-0.505,3327.777777777778
-0.955,-0.515,3330.5555555555557
-0.95,-0.525,3333.3333333333335
-0.96,-0.52,3336.1111111111113
-0.95,-0.515,3338.8888888888887
-0.935,-0.515,3341.6666666666665
-0.91,-0.5,3344.4444444444443
-0.86,-0.51,3347.222222222222
-0.825,-0.5,3350.0
-0.8,-0.5,3352.777777777778
-0.795,-0.48,3355.5555555555557
-0.785,-0.435,3358.3333333333335
-0.81,-0.395,3361.1111111111113
-0.835,-0.365,3363.8888888888887
-0.855,-0.37,3366.6666666666665
-0.885,-0.355,3369.4444444444443
-0.895,-0.405,3372.222222222222
-0.905,-0.42,3375.0
-0.9,-0.46,3377.777777777778
-0.875,-0.46,3380.5555555555557
-0.84,-0.45,3383.3333333333335
-0.805,-0.4,3386.1111111111113
-0.805,-0.345,3388.8888888888887
-0.79,-0.335,3391.6666666666665
-0.805,-0.29,3394.4444444444443
-0.81,-0.27,3397.222222222222
-0.84,-0.26,3400.0
-0.855,-0.27,3402.777777777778
-0.87,-0.295,3405.5555555555557
-0.895,-0.32,3408.3333333333335
-0.915,-0.355,3411.1111111111113
-0.935,-0.36,3413.8888888888887
-0.95,-0.385,3416.6666666666665
-0.96,-0.385,3419.4444444444443
-0.97,-0.405,3422.222222222222
-0.965,-0.405,3425.0
-0.975,-0.415,3427.777777777778
-0.965,-0.42,3430.5555555555557
-0.97,-0.45,3433.3333333333335
-0.975,-0.43,3436.1111111111113
-0.985,-0.445,3438.8888888888887
-0.995,-0.44,3441.6666666666665
-1.01,-0.44,3444.4444444444443
-1.0,-0.43,3447.222222222222
-0.995,-0.455,3450.0
-1.005,-0.45,3452.777777777778
-1.025,-0.445,3455.5555555555557
-1.045,-0.46,3458.3333333333335
-1.055,-0.425,3461.1111111111113
-1.065,-0.45,3463.8888888888887
-1.065,-0.475,3466.6666666666665
-1.075,-0.475,3469.4444444444443
-1.075,-0.49,3472.222222222222
-1.06,-0.475,3475.0
-1.06,-0.465,3477.777777777778
-1.06,-0.455,3480.5555555555557
-1.05,-0.505,3483.3333333333335
-1.045,-0.495,3486.1111111111113
-1.06,-0.53,3488.8888888888887
-1.065,-0.54,3491.6666666666665
-1.105,-0.535,3494.4444444444443
-1.125,-0.545,3497.222222222222
-1.165,-0.555,3500.0
-1.175,-0.55,3502.777777777778
-1.165,-0.555,3505.5555555555557
-1.13,-0.565,3508.3333333333335
-1.095,-0.565,3511.1111111111113
-1.09,-0.55,3513.8888888888887
-1.075,-0.535,3516.6666666666665
-1.08,-0.545,3519.4444444444443
-1.055,-0.59,3522.222222222222
-1.06,-0.645,3525.0
-1.0,-0.74,3527.777777777778
-0.91,-0.84,3530.5555555555557
-0.805,-0.97,3533.3333333333335
-0.66,-1.1,3536.1111111111113
-0.515,-1.205,3538.8888888888887
-0.36,-1.315,3541.6666666666665
-0.24,-1.375,3544.4444444444443
-0.185,-1.415,3547.222222222222
-0.19,-1.355,3550.0
-0.205,-1.25,3552.777777777778
-0.2,-1.11,3555.5555555555557
-0.16,-0.97,3558.3333333333335
-0.065,-0.79,3561.1111111111113
0.07,-0.635,3563.8888888888887
0.205,-0.455,3566.6666666666665
0.28,-0.22,3569.4444444444443
0.275,0.085,3572.222222222222
0.14,0.37,3575.0
-0.12,0.615,3577.777777777778
-0.495,0.73,3580.5555555555557
-0.905,0.69,3583.3333333333335
-1.28,0.515,3586.1111111111113
-1.575,0.24,3588.8888888888887
-1.765,-0.04,3591.6666666666665
-1.865,-0.27,3594.4444444444443
-1.905,-0.395,3597.222222222222
-1.94,-0.46,3600.0
-1.97,-0.49,3602.777777777778
-2.0,-0.54,3605.5555555555557
-2.03,-0.58,3608.3333333333335
-2.045,-0.63,3611.1111111111113
-2.05,-0.66,3613.8888888888887
-2.06,-0.67,3616.6666666666665
-2.085,-0.665,3619.4444444444443
-2.085,-0.675,3622.222222222222
-2.095,-0.64,3625.0
-2.075,-0.625,3627.777777777778
-2.045,-0.63,3630.5555555555557
-2.025,-0.645,3633.3333333333335
-1.975,-0.675,3636.1111111111113
-1.895,-0.67,3638.8888888888887
-1.785,-0.675,3641.6666666666665
-1.65,-0.66,3644.4444444444443
-1.505,-0.625,3647.222222222222
-1.355,-0.585,3650.0
-1.245,-0.505,3652.777777777778
-1.15,-0.46,3655.5555555555557
-1.085,-0.415,3658.3333333333335
-1.065,-0.385,3661.1111111111113
-1.09,-0.37,3663.8888888888887
-1.08,-0.395,3666.6666666666665
-1.095,-0.385,3669.4444444444443
-1.09,-0.385,3672.222222222222
-1.055,-0.39,3675.0
-1.025,-0.365,3677.777777777778
-1.005,-0.345,3680.5555555555557
-0.99,-0.35,3683.3333333333335
-0.98,-0.35,3686.1111111111113
-0.98,-0.37,3688.8888888888887
-0.995,-0.38,3691.6666666666665
-1.01,-0.39,3694.4444444444443
-1.03,-0.4,3697.222222222222
-1.03,-0.4,3700.0
-1.04,-0.4,3702.777777777778
-1.04,-0.385,3705.5555555555557
-1.03,-0.395,3708.3333333333335
-1.025,-0.39,3711.1111111111113
-1.015,-0.4,3713.8888888888887
-1.03,-0.415,3716.6666666666665
-1.04,-0.435,3719.4444444444443
-1.065,-0.465,3722.222222222222
-1.075,-0.49,3725.0
-1.1,-0.495,3727.777777777778
-1.105,-0.51,3730.5555555555557
-1.095,-0.535,3733.3333333333335
-1.1,-0.53,3736.1111111111113
-1.115,-0.55,3738.8888888888887
-1.115,-0.56,3741.6666666666665
-1.125,-0.565,3744.4444444444443
-1.13,-0.59,3747.222222222222
-1.11,-0.59,3750.0
-1.13,-0.605,3752.777777777778
-1.155,-0.63,3755.5555555555557
-1.17,-0.665,3758.3333333333335
-1.205,-0.675,3761.1111111111113
-1.215,-0.685,3763.8888888888887
-1.23,-0.715,3766.6666666666665
-1.24,-0.73,3769.4444444444443
-1.24,-0.74,3772.222222222222
-1.235,-0.74,3775.0
-1.245,-0.74,3777.777777777778
-1.235,-0.745,3780.5555555555557
-1.25,-0.735,3783.3333333333335
-1.26,-0.75,3786.1111111111113
-1.25,-0.775,3788.8888888888887
-1.27,-0.805,3791.6666666666665
-1.27,-0.815,3794.4444444444443
-1.29,-0.825,3797.222222222222
-1.305,-0.855,3800.0
-1.31,-0.845,3802.777777777778
-1.325,-0.845,3805.5555555555557
-1.32,-0.85,3808.3333333333335
-1.31,-0.85,3811.1111111111113
-1.3,-0.845,3813.8888888888887
-1.285,-0.855,3816.6666666666665
-1.27,-0.865,3819.4444444444443
-1.275,-0.86,3822.222222222222
-1.27,-0.88,3825.0
-1.265,-0.865,3827.777777777778
-1.27,-0.87,3830.5555555555557
-1.25,-0.865,3833.3333333333335
-1.275,-0.86,3836.1111111111113
-1.235,-0.855,3838.8888888888887
-1.215,-0.85,3841.6666666666665
-1.185,-0.825,3844.4444444444443
-1.16,-0.81,3847.222222222222
-1.155,-0.79,3850.0
-1.135,-0.775,3852.777777777778
-1.13,-0.77,3855.5555555555557
-1.13,-0.765,3858.3333333333335
-1.12,-0.75,3861.1111111111113
-1.095,-0.745,3863.8888888888887
-1.08,-0.74,3866.6666666666665
-1.07,-0.71,3869.4444444444443
-1.055,-0.67,3872.222222222222
-1.03,-0.65,3875.0
-1.015,-0.625,3877.777777777778
-0.99,-0.6,3880.5555555555557
-0.99,-0.59,3883.3333333333335
-0.975,-0.615,3886.1111111111113
-0.95,-0.62,3888.8888888888887
-0.945,-0.625,3891.6666666666665
-0.945,-0.605,3894.4444444444443
-0.94,-0.615,3897.222222222222
-0.935,-0.585,3900.0
-0.93,-0.56,3902.777777777778
-0.925,-0.54,3905.5555555555557
-0.9,-0.52,3908.3333333333335
-0.9,-0.52,3911.1111111111113
-0.875,-0.51,3913.8888888888887
-0.87,-0.485,3916.6666666666665
-0.875,-0.49,3919.4444444444443
-0.87,-0.495,3922.222222222222
-0.865,-0.5,3925.0
-0.88,-0.495,3927.777777777778
-0.885,-0.505,3930.5555555555557
-0.895,-0.5,3933.3333333333335
-0.89,-0.495,3936.1111111111113
-0.89,-0.495,3938.8888888888887
-0.89,-0.475,3941.6666666666665
-0.88,-0.47,3944.4444444444443
-0.88,-0.445,3947.222222222222
-0.855,-0.45,3950.0
-0.865,-0.455,3952.777777777778
-0.855,-0.445,3955.5555555555557
-0.88,-0.47,3958.3333333333335
-0.885,-0.47,3961.1111111111113
-0.88,-0.495,3963.8888888888887
-0.885,-0.495,3966.6666666666665
-0.89,-0.5,3969.4444444444443
-0.885,-0.48,3972.222222222222
-0.9,-0.465,3975.0
-0.88,-0.455,3977.777777777778
-0.87,-0.44,3980.5555555555557
-0.87,-0.445,3983.3333333333335
-0.885,-0.445,3986.1111111111113
-0.875,-0.445,3988.8888888888887
-0.885,-0.45,3991.6666666666665
-0.9,-0.455,3994.4444444444443
-0.905,-0.47,3997.222222222222
-0.89,-0.49,4000.0
-0.9,-0.48,4002.777777777778
-0.905,-0.48,4005.5555555555557
-0.895,-0.45,4008.3333333333335
-0.89,-0.44,4011.1111111111113
-0.89,-0.435,4013.8888888888887
-0.87,-0.42,4016.6666666666665
-0.87,-0.43,4019.4444444444443
-0.89,-0.435,4022.222222222222
-0.885,-0.465,4025.0
-0.92,-0.48,4027.777777777778
-0.91,-0.485,4030.5555555555557
-0.915,-0.475,4033.3333333333335
-0.905,-0.485,4036.1111111111113
-0.92,-0.48,4038.8888888888887
-0.88,-0.475,4041.6666666666665
-0.885,-0.465,4044.4444444444443
-0.86,-0.46,4047.222222222222
-0.865,-0.455,4050.0
-0.88,-0.455,4052.777777777778
-0.87,-0.48,4055.5555555555557
-0.875,-0.495,4058.3333333333335
-0.885,-0.495,4061.1111111111113
-0.89,-0.51,4063.8888888888887
-0.895,-0.51,4066.6666666666665
-0.895,-0.5,4069.4444444444443
-0.89,-0.5,4072.222222222222
-0.88,-0.475,4075.0
-0.865,-0.475,4077.777777777778
-0.855,-0.455,4080.5555555555557
-0.855,-0.475,4083.3333333333335
-0.87,-0.485,4086.1111111111113
-0.885,-0.48,4088.8888888888887
-0.885,-0.5,4091.6666666666665
-0.88,-0.5,4094.4444444444443
-0.88,-0.525,4097.222222222223
-0.89,-0.515,4100.0
-0.89,-0.51,4102.777777777777
-0.875,-0.5,4105.555555555556
-0.87,-0.5,4108.333333333333
-0.875,-0.485,4111.111111111111
-0.85,-0.475,4113.888888888889
-0.85,-0.485,4116.666666666667
-0.855,-0.48,4119.444444444444
-0.85,-0.5,4122.222222222223
-0.86,-0.5,4125.0
-0.86,-0.505,4127.777777777777
-0.87,-0.515,4130.555555555556
-0.865,-0.505,4133.333333333333
-0.89,-0.535,4136.111111111111
-0.875,-0.515,4138.888888888889
-0.855,-0.52,4141.666666666667
-0.835,-0.48,4144.444444444444
-0.835,-0.485,4147.222222222223
-0.825,-0.47,4150.0
-0.84,-0.465,4152.777777777777
-0.84,-0.455,4155.555555555556
-0.815,-0.45,4158.333333333333
-0.825,-0.47,4161.111111111111
-0.825,-0.49,4163.888888888889
-0.82,-0.47,4166.666666666667
-0.82,-0.495,4169.444444444444
-0.795,-0.485,4172.222222222223
-0.795,-0.48,4175.0
-0.765,-0.505,4177.777777777777
-0.75,-0.49,4180.555555555556
-0.73,-0.515,4183.333333333333
-0.72,-0.535,4186.111111111111
-0.73,-0.525,4188.888888888889
-0.73,-0.545,4191.666666666667
-0.72,-0.55,4194.444444444444
-0.705,-0.55,4197.222222222223
-0.68,-0.54,4200.0
-0.67,-0.54,4202.777777777777
-0.655,-0.495,4205.555555555556
-0.66,-0.47,4208.333333333333
-0.66,-0.445,4211.111111111111
-0.65,-0.43,4213.888888888889
-0.645,-0.435,4216.666666666667
-0.69,-0.46,4219.444444444444
-0.7,-0.465,4222.222222222223
-0.725,-0.495,4225.0
-0.735,-0.505,4227.777777777777
-0.725,-0.5,4230.555555555556
-0.71,-0.495,4233.333333333333
-0.67,-0.455,4236.111111111111
-0.645,-0.425,4238.888888888889
-0.615,-0.37,4241.666666666667
-0.61,-0.33,4244.444444444444
-0.605,-0.305,4247.222222222223
-0.625,-0.3,4250.0
-0.68,-0.335,4252.777777777777
-0.71,-0.365,4255.555555555556
-0.735,-0.41,4258.333333333333
-0.76,-0.48,4261.111111111111
-0.78,-0.495,4263.888888888889
-0.785,-0.49,4266.666666666667
-0.805,-0.475,4269.444444444444
-0.82,-0.45,4272.222222222223
-0.815,-0.445,4275.0
-0.83,-0.445,4277.777777777777
-0.825,-0.44,4280.555555555556
-0.815,-0.455,4283.333333333333
-0.825,-0.48,4286.111111111111
-0.855,-0.505,4288.888888888889
-0.855,-0.52,4291.666666666667
-0.86,-0.515,4294.444444444444
-0.86,-0.515,4297.222222222223
-0.865,-0.5,4300.0
-0.87,-0.47,4302.777777777777
-0.875,-0.485,4305.555555555556
-0.85,-0.47,4308.333333333333
-0.84,-0.485,4311.111111111111
-0.845,-0.48,4313.888888888889
-0.84,-0.485,4316.666666666667
-0.85,-0.49,4319.444444444444
-0.845,-0.5,4322.222222222223
-0.845,-0.51,4325.0
-0.845,-0.525,4327.777777777777
-0.85,-0.535,4330.555555555556
-0.845,-0.525,4333.333333333333
-0.845,-0.535,4336.111111111111
-0.84,-0.53,4338.888888888889
-0.825,-0.52,4341.666666666667
-0.84,-0.515,4344.444444444444
-0.825,-0.52,4347.222222222223
-0.825,-0.52,4350.0
-0.825,-0.535,4352.777777777777
-0.835,-0.555,4355.555555555556
-0.86,-0.58,4358.333333333333
-0.875,-0.605,4361.111111111111
-0.895,-0.65,4363.888888888889
-0.905,-0.725,4366.666666666667
-0.895,-0.77,4369.444444444444
-0.84,-0.87,4372.222222222223
-0.745,-0.97,4375.0
-0.61,-1.105,4377.777777777777
-0.455,-1.235,4380.555555555556
-0.32,-1.38,4383.333333333333
-0.205,-1.48,4386.111111111111
-0.185,-1.54,4388.888888888889
-0.185,-1.52,4391.666666666667
-0.215,-1.425,4394.444444444444
-0.26,-1.3,4397.222222222223
-0.23,-1.145,4400.0
-0.18,-0.98,4402.777777777777
-0.045,-0.8,4405.555555555556
0.13,-0.585,4408.333333333333
0.27,-0.345,4411.111111111111
0.345,-0.015,4413.888888888889
0.275,0.285,4416.666666666667
0.035,0.535,4419.444444444444
-0.335,0.65,4422.222222222223
-0.73,0.615,4425.0
-1.09,0.435,4427.777777777777
-1.345,0.19,4430.555555555556
-1.51,-0.065,4433.333333333333
-1.615,-0.245,4436.111111111111
-1.685,-0.38,4438.888888888889
-1.72,-0.45,4441.666666666667
-1.77,-0.475,4444.444444444444
-1.805,-0.515,4447.222222222223
-1.83,-0.55,4450.0
-1.85,-0.605,4452.777777777777
-1.855,-0.645,4455.555555555556
-1.865,-0.67,4458.333333333333
-1.875,-0.675,4461.111111111111
-1.87,-0.685,4463.888888888889
-1.87,-0.68,4466.666666666667
-1.885,-0.68,4469.444444444444
-1.85,-0.67,4472.222222222223
-1.805,-0.655,4475.0
-1.75,-0.68,4477.777777777777
-1.655,-0.695,4480.555555555556
-1.5,-0.695,4483.333333333333
-1.355,-0.66,4486.111111111111
-1.2,-0.635,4488.888888888889
-1.065,-0.585,4491.666666666667
-0.97,-0.54,4494.444444444444
-0.915,-0.52,4497.222222222223
-0.88,-0.475,4500.0
-0.885,-0.475,4502.777777777777
-0.885,-0.465,4505.555555555556
-0.86,-0.455,4508.333333333333
-0.85,-0.455,4511.111111111111
-0.84,-0.465,4513.888888888889
-0.815,-0.475,4516.666666666667
-0.83,-0.465,4519.444444444444
-0.82,-0.49,4522.222222222223
-0.835,-0.51,4525.0
-0.85,-0.505,4527.777777777777
-0.86,-0.515,4530.555555555556
-0.86,-0.52,4533.333333333333
-0.885,-0.525,4536.111111111111
-0.88,-0.52,4538.888888888889
-0.895,-0.505,4541.666666666667
-0.87,-0.53,4544.444444444444
-0.875,-0.515,4547.222222222223
-0.865,-0.53,4550.0
-0.865,-0.555,4552.777777777777
-0.885,-0.565,4555.555555555556
-0.905,-0.575,4558.333333333333
-0.915,-0.595,4561.111111111111
-0.945,-0.62,4563.888888888889
-0.965,-0.64,4566.666666666667
-0.975,-0.64,4569.444444444444
-0.975,-0.65,4572.222222222223
-0.99,-0.66,4575.0
-0.975,-0.64,4577.777777777777
-0.975,-0.655,4580.555555555556
-0.975,-0.68,4583.333333333333
-0.975,-0.685,4586.111111111111
-1.01,-0.7,4588.888888888889
-1.02,-0.735,4591.666666666667
-1.035,-0.755,4594.444444444444
-1.045,-0.77,4597.222222222223
-1.07,-0.78,4600.0
-1.085,-0.8,4602.777777777777
-1.095,-0.8,4605.555555555556
-1.115,-0.8,4608.333333333333
-1.125,-0.79,4611.111111111111
-1.145,-0.8,4613.888888888889
-1.16,-0.815,4616.666666666667
-1.18,-0.835,4619.444444444444
-1.2,-0.83,4622.222222222223
-1.225,-0.855,4625.0
-1.245,-0.865,4627.777777777777
-1.275,-0.875,4630.555555555556
-1.28,-0.905,4633.333333333333
-1.31,-0.89,4636.111111111111
-1.315,-0.885,4638.888888888889
-1.31,-0.87,4641.666666666667
-1.28,-0.88,4644.444444444444
-1.275,-0.855,4647.222222222223
-1.235,-0.88,4650.0
-1.23,-0.88,4652.777777777777
-1.205,-0.89,4655.555555555556
-1.185,-0.905,4658.333333333333
-1.16,-0.915,4661.111111111111
-1.125,-0.925,4663.888888888889
-1.1,-0.925,4666.666666666667
-1.075,-0.92,4669.444444444444
-1.055,-0.91,4672.222222222223
-1.02,-0.89,4675.0
-1.005,-0.895,4677.777777777777
-0.985,-0.865,4680.555555555556
-0.945,-0.85,4683.333333333333
-0.95,-0.85,4686.111111111111
-0.925,-0.84,4688.888888888889
-0.91,-0.82,4691.666666666667
-0.91,-0.815,4694.444444444444
-0.905,-0.805,4697.222222222223
-0.885,-0.8,4700.0
-0.905,-0.77,4702.777777777777
-0.9,-0.75,4705.555555555556
-0.88,-0.72,4708.333333333333
-0.86,-0.7,4711.111111111111
-0.84,-0.685,4713.888888888889
-0.84,-0.67,4716.666666666667
-0.825,-0.66,4719.444444444444
-0.835,-0.64,4722.222222222223
-0.825,-0.64,4725.0
-0.84,-0.65,4727.777777777777
-0.835,-0.65,4730.555555555556
-0.84,-0.63,4733.333333333333
-0.84,-0.61,4736.111111111111
-0.825,-0.595,4738.888888888889
-0.82,-0.575,4741.666666666667
-0.785,-0.58,4744.444444444444
-0.795,-0.565,4747.222222222223
-0.78,-0.56,4750.0
-0.78,-0.565,4752.777777777777
-0.775,-0.55,4755.555555555556
-0.765,-0.55,4758.333333333333
-0.78,-0.56,4761.111111111111
-0.79,-0.56,4763.888888888889
-0.81,-0.555,4766.666666666667
-0.805,-0.55,4769.444444444444
-0.805,-0.56,4772.222222222223
-0.805,-0.54,4775.0
-0.795,-0.54,4777.777777777777
-0.79,-0.525,4780.555555555556
-0.77,-0.505,4783.333333333333
-0.765,-0.535,4786.111111111111
-0.785,-0.53,4788.888888888889
-0.795,-0.54,4791.666666666667
-0.8,-0.57,4794.444444444444
-0.82,-0.57,4797.222222222223
-0.825,-0.575,4800.0
-0.845,-0.56,4802.777777777777
-0.845,-0.575,4805.555555555556
-0.845,-0.58,4808.333333333333
-0.835,-0.57,4811.111111111111
-0.825,-0.56,4813.888888888889
-0.825,-0.565,4816.666666666667
-0.825,-0.57,4819.444444444444
-0.825,-0.58,4822.222222222223
-0.835,-0.58,4825.0
-0.86,-0.595,4827.777777777777
-0.855,-0.62,4830.555555555556
-0.855,-0.625,4833.333333333333
-0.885,-0.625,4836.111111111111
-0.87,-0.61,4838.888888888889
-0.865,-0.6,4841.666666666667
-0.86,-0.615,4844.444444444444
-0.855,-0.625,4847.222222222223
-0.865,-0.625,4850.0
-0.855,-0.63,4852.777777777777
-0.875,-0.635,4855.555555555556
-0.86,-0.64,4858.333333333333
-0.855,-0.655,4861.111111111111
-0.855,-0.655,4863.888888888889
-0.855,-0.67,4866.666666666667
-0.865,-0.66,4869.444444444444
-0.855,-0.67,4872.222222222223
-0.84,-0.635,4875.0
-0.845,-0.65,4877.777777777777
-0.84,-0.645,4880.555555555556
-0.835,-0.65,4883.333333333333
-0.835,-0.655,4886.111111111111
-0.83,-0.64,4888.888888888889
-0.845,-0.665,4891.666666666667
-0.865,-0.665,4894.444444444444
-0.865,-0.68,4897.222222222223
-0.87,-0.675,4900.0
-0.875,-0.68,4902.777777777777
-0.87,-0.685,4905.555555555556
-0.855,-0.665,4908.333333333333
-0.845,-0.66,4911.111111111111
-0.82,-0.62,4913.888888888889
-0.815,-0.615,4916.666666666667
-0.83,-0.63,4919.444444444444
-0.835,-0.645,4922.222222222223
-0.84,-0.65,4925.0
-0.855,-0.65,4927.777777777777
-0.86,-0.68,4930.555555555556
-0.855,-0.665,4933.333333333333
-0.865,-0.675,4936.111111111111
-0.845,-0.67,4938.888888888889
-0.85,-0.655,4941.666666666667
-0.835,-0.63,4944.444444444444
-0.855,-0.645,4947.222222222223
-0.815,-0.63,4950.0
-0.835,-0.63,4952.777777777777
-0.825,-0.65,4955.555555555556
-0.835,-0.69,4958.333333333333
-0.835,-0.71,4961.111111111111
-0.84,-0.725,4963.888888888889
-0.84,-0.725,4966.666666666667
-0.835,-0.71,4969.444444444444
-0.815,-0.71,4972.222222222223
-0.8,-0.685,4975.0
-0.785,-0.675,4977.777777777777
-0.775,-0.68,4980.555555555556
-0.76,-0.675,4983.333333333333
-0.765,-0.7,4986.111111111111
-0.74,-0.72,4988.888888888889
-0.75,-0.735,4991.666666666667
-0.75,-0.765,4994.444444444444
-0.74,-0.765,4997.222222222223
-0.74,-0.775,5000.0
-0.725,-0.75,5002.777777777777
-0.705,-0.72,5005.555555555556
-0.67,-0.695,5008.333333333333
-0.65,-0.685,5011.111111111111
-0.63,-0.67,5013.888888888889
-0.625,-0.655,5016.666666666667
-0.645,-0.655,5019.444444444444
-0.66,-0.67,5022.222222222223
-0.69,-0.68,5025.0
-0.715,-0.695,5027.777777777777
-0.73,-0.715,5030.555555555556
-0.75,-0.715,5033.333333333333
-0.75,-0.705,5036.111111111111
-0.72,-0.715,5038.888888888889
-0.68,-0.685,5041.666666666667
-0.65,-0.655,5044.444444444444
-0.63,-0.595,5047.222222222223
-0.62,-0.58,5050.0
-0.64,-0.56,5052.777777777777
-0.675,-0.54,5055.555555555556
-0.71,-0.575,5058.333333333333
-0.76,-0.6,5061.111111111111
-0.795,-0.63,5063.888888888889
-0.825,-0.655,5066.666666666667
-0.84,-0.685,5069.444444444444
-0.83,-0.66,5072.222222222223
-0.835,-0.66,5075.0
-0.825,-0.64,5077.777777777777
-0.84,-0.64,5080.555555555556
-0.83,-0.635,5083.333333333333
-0.865,-0.66,5086.111111111111
-0.865,-0.685,5088.888888888889
-0.9,-0.705,5091.666666666667
-0.9,-0.725,5094.444444444444
-0.92,-0.72,5097.222222222223
-0.905,-0.755,5100.0
-0.91,-0.76,5102.777777777777
-0.91,-0.77,5105.555555555556
-0.915,-0.745,5108.333333333333
-0.895,-0.755,5111.111111111111
-0.87,-0.735,5113.888888888889
-0.87,-0.74,5116.666666666667
-0.865,-0.74,5119.444444444444
-0.87,-0.735,5122.222222222223
-0.885,-0.755,5125.0
-0.9,-0.745,5127.777777777777
-0.915,-0.76,5130.555555555556
-0.91,-0.77,5133.333333333333
-0.925,-0.77,5136.111111111111
-0.935,-0.755,5138.888888888889
-0.93,-0.765,5141.666666666667
-0.925,-0.73,5144.444444444444
-0.915,-0.75,5147.222222222223
-0.905,-0.74,5150.0
-0.885,-0.765,5152.777777777777
-0.89,-0.765,5155.555555555556
-0.9,-0.765,5158.333333333333
-0.89,-0.78,5161.111111111111
-0.885,-0.78,5163.888888888889
-0.91,-0.8,5166.666666666667
-0.935,-0.795,5169.444444444444
-0.94,-0.805,5172.222222222223
-0.94,-0.815,5175.0
-0.92,-0.835,5177.777777777777
-0.9,-0.895,5180.555555555556
-0.845,-0.97,5183.333333333333
-0.765,-1.08,5186.111111111111
-0.65,-1.185,5188.888888888889
-0.52,-1.31,5191.666666666667
-0.395,-1.415,5194.444444444444
-0.245,-1.515,5197.222222222223
-0.145,-1.59,5200.0
-0.11,-1.62,5202.777777777777
-0.135,-1.56,5205.555555555556
-0.16,-1.435,5208.333333333333
-0.15,-1.295,5211.111111111111
-0.09,-1.155,5213.888888888889
0.035,-1.025,5216.666666666667
0.18,-0.885,5219.444444444444
0.335,-0.685,5222.222222222223
0.405,-0.455,5225.0
0.355,-0.145,5227.777777777777
0.145,0.14,5230.555555555556
-0.22,0.33,5233.333333333333
-0.665,0.4,5236.111111111111
-1.11,0.295,5238.888888888889
-1.455,0.055,5241.666666666667
-1.685,-0.22,5244.444444444444
-1.805,-0.46,5247.222222222223
-1.89,-0.64,5250.0
-1.915,-0.755,5252.777777777777
-1.965,-0.825,5255.555555555556
-2.0,-0.88,5258.333333333333
-2.025,-0.92,5261.111111111111
-2.05,-0.955,5263.888888888889
-2.055,-0.98,5266.666666666667
-2.055,-1.01,5269.444444444444
-2.06,-1.0,5272.222222222223
-2.04,-0.985,5275.0
-2.025,-0.95,5277.777777777777
-2.01,-0.94,5280.555555555556
-1.98,-0.935,5283.333333333333
-1.94,-0.955,5286.111111111111
-1.88,-0.975,5288.888888888889
-1.78,-1.0,5291.666666666667
-1.665,-1.01,5294.444444444444
-1.505,-0.985,5297.222222222223
-1.36,-0.93,5300.0
-1.24,-0.85,5302.777777777777
-1.13,-0.76,5305.555555555556
-1.045,-0.69,5308.333333333333
-0.995,-0.63,5311.111111111111
-0.98,-0.6,5313.888888888889
-0.97,-0.585,5316.666666666667
-0.975,-0.595,5319.444444444444
-0.965,-0.605,5322.222222222223
-0.955,-0.625,5325.0
-0.945,-0.65,5327.777777777777
-0.95,-0.675,5330.555555555556
-0.95,-0.665,5333.333333333333
-0.945,-0.66,5336.111111111111
-0.93,-0.655,5338.888888888889
-0.935,-0.635,5341.666666666667
-0.935,-0.62,5344.444444444444
-0.94,-0.61,5347.222222222223
-0.935,-0.6,5350.0
-0.955,-0.625,5352.777777777777
-0.945,-0.645,5355.555555555556
-0.94,-0.65,5358.333333333333
-0.96,-0.67,5361.111111111111
-0.985,-0.685,5363.888888888889
-0.98,-0.695,5366.666666666667
-0.985,-0.685,5369.444444444444
-0.985,-0.675,5372.222222222223
-0.985,-0.67,5375.0
-1.005,-0.675,5377.777777777777
-1.0,-0.68,5380.555555555556
-1.005,-0.72,5383.333333333333
-1.015,-0.76,5386.111111111111
-1.0,-0.79,5388.888888888889
-1.03,-0.82,5391.666666666667
-1.04,-0.87,5394.444444444444
-1.055,-0.875,5397.222222222223
-1.075,-0.875,5400.0
-1.08,-0.895,5402.777777777777
-1.1,-0.91,5405.555555555556
-1.095,-0.915,5408.333333333333
-1.105,-0.93,5411.111111111111
-1.095,-0.945,5413.888888888889
-1.095,-0.98,5416.666666666667
-1.11,-0.985,5419.444444444444
-1.14,-1.02,5422.222222222223
-1.14,-1.03,5425.0
-1.165,-1.035,5427.777777777777
-1.19,-1.045,5430.555555555556
-1.205,-1.045,5433.333333333333
-1.195,-1.035,5436.111111111111
-1.2,-1.045,5438.888888888889
-1.19,-1.035,5441.666666666667
-1.18,-1.04,5444.444444444444
-1.185,-1.025,5447.222222222223
-1.165,-1.03,5450.0
-1.18,-1.01,5452.777777777777
-1.185,-1.01,5455.555555555556
-1.18,-1.02,5458.333333333333
-1.18,-1.04,5461.111111111111
-1.19,-1.045,5463.888888888889
-1.2,-1.04,5466.666666666667
-1.22,-1.04,5469.444444444444
-1.195,-1.02,5472.222222222223
-1.175,-1.03,5475.0
-1.16,-1.015,5477.777777777777
-1.135,-1.0,5480.555555555556
-1.135,-0.985,5483.333333333333
-1.105,-0.985,5486.111111111111
-1.1,-0.975,5488.888888888889
-1.08,-0.965,5491.666666666667
-1.08,-0.96,5494.444444444444
-1.065,-0.95,5497.222222222223
-1.065,-0.94,5500.0
-1.045,-0.9,5502.777777777777
-1.025,-0.91,5505.555555555556
-1.005,-0.89,5508.333333333333
-0.98,-0.875,5511.111111111111
-0.95,-0.84,5513.888888888889
-0.925,-0.82,5516.666666666667
-0.93,-0.805,5519.444444444444
-0.93,-0.775,5522.222222222223
-0.915,-0.77,5525.0
-0.9,-0.75,5527.777777777777
-0.895,-0.74,5530.555555555556
-0.87,-0.7,5533.333333333333
-0.87,-0.69,5536.111111111111
-0.865,-0.66,5538.888888888889
-0.855,-0.67,5541.666666666667
-0.855,-0.645,5544.444444444444
-0.845,-0.62,5547.222222222223
-0.835,-0.61,5550.0
-0.825,-0.6,5552.777777777777
-0.825,-0.605,5555.555555555556
-0.825,-0.62,5558.333333333333
-0.82,-0.625,5561.111111111111
-0.83,-0.64,5563.888888888889
-0.825,-0.635,5566.666666666667
-0.845,-0.63,5569.444444444444
-0.845,-0.61,5572.222222222223
-0.825,-0.6,5575.0
-0.83,-0.58,5577.777777777777
-0.825,-0.585,5580.555555555556
-0.82,-0.57,5583.333333333333
-0.82,-0.58,5586.111111111111
-0.805,-0.575,5588.888888888889
-0.81,-0.59,5591.666666666667
-0.84,-0.605,5594.444444444444
-0.81,-0.6,5597.222222222223
-0.82,-0.6,5600.0
-0.83,-0.575,5602.777777777777
-0.84,-0.56,5605.555555555556
-0.85,-0.565,5608.333333333333
-0.85,-0.56,5611.111111111111
-0.83,-0.57,5613.888888888889
-0.835,-0.58,5616.666666666667
-0.81,-0.585,5619.444444444444
-0.815,-0.59,5622.222222222223
-0.81,-0.6,5625.0
-0.82,-0.59,5627.777777777777
-0.835,-0.61,5630.555555555556
-0.855,-0.605,5633.333333333333
-0.84,-0.575,5636.111111111111
-0.85,-0.59,5638.888888888889
-0.855,-0.575,5641.666666666667
-0.855,-0.54,5644.444444444444
-0.85,-0.545,5647.222222222223
-0.835,-0.55,5650.0
-0.845,-0.565,5652.777777777777
-0.85,-0.58,5655.555555555556
-0.835,-0.585,5658.333333333333
-0.86,-0.59,5661.111111111111
-0.875,-0.59,5663.888888888889
-0.86,-0.6,5666.666666666667
-0.855,-0.57,5669.444444444444
-0.855,-0.555,5672.222222222223
-0.84,-0.555,5675.0
-0.83,-0.545,5677.777777777777
-0.835,-0.535,5680.555555555556
-0.82,-0.555,5683.333333333333
-0.825,-0.545,5686.111111111111
-0.84,-0.58,5688.888888888889
-0.84,-0.58,5691.666666666667
-0.845,-0.6,5694.444444444444
-0.845,-0.61,5697.222222222223
-0.84,-0.61,5700.0
-0.835,-0.595,5702.777777777777
-0.845,-0.6,5705.555555555556
-0.815,-0.605,5708.333333333333
-0.82,-0.585,5711.111111111111
-0.81,-0.565,5713.888888888889
-0.805,-0.575,5716.666666666667
-0.82,-0.575,5719.444444444444
-0.81,-0.565,5722.222222222223
-0.82,-0.585,5725.0
-0.825,-0.595,5727.777777777777
-0.83,-0.605,5730.555555555556
-0.83,-0.615,5733.333333333333
-0.825,-0.605,5736.111111111111
-0.82,-0.605,5738.888888888889
-0.8,-0.58,5741.666666666667
-0.8,-0.57,5744.444444444444
-0.795,-0.565,5747.222222222223
-0.78,-0.55,5750.0
-0.785,-0.58,5752.777777777777
-0.79,-0.6,5755.555555555556
-0.795,-0.615,5758.333333333333
-0.795,-0.635,5761.111111111111
-0.8,-0.635,5763.888888888889
-0.81,-0.63,5766.666666666667
-0.82,-0.63,5769.444444444444
-0.795,-0.615,5772.222222222223
-0.785,-0.595,5775.0
-0.785,-0.59,5777.777777777777
-0.775,-0.585,5780.555555555556
-0.76,-0.57,5783.333333333333
-0.755,-0.595,5786.111111111111
-0.765,-0.58,5788.888888888889
-0.775,-0.605,5791.666666666667
-0.77,-0.61,5794.444444444444
-0.775,-0.63,5797.222222222223
-0.75,-0.64,5800.0
-0.74,-0.67,5802.777777777777
-0.735,-0.65,5805.555555555556
-0.715,-0.655,5808.333333333333
-0.695,-0.67,5811.111111111111
-0.675,-0.64,5813.888888888889
-0.66,-0.615,5816.666666666667
-0.655,-0.62,5819.444444444444
-0.655,-0.615,5822.222222222223
-0.66,-0.635,5825.0
-0.67,-0.635,5827.777777777777
-0.66,-0.635,5830.555555555556
-0.65,-0.64,5833.333333333333
-0.65,-0.63,5836.111111111111
-0.63,-0.615,5838.888888888889
-0.605,-0.575,5841.666666666667
-0.6,-0.54,5844.444444444444
-0.61,-0.51,5847.222222222223
-0.61,-0.49,5850.0
-0.645,-0.48,5852.777777777777
-0.665,-0.495,5855.555555555556
-0.685,-0.53,5858.333333333333
-0.695,-0.57,5861.111111111111
-0.725,-0.555,5863.888888888889
-0.715,-0.56,5866.666666666667
-0.71,-0.545,5869.444444444444
-0.695,-0.51,5872.222222222223
-0.685,-0.46,5875.0
-0.67,-0.43,5877.777777777777
-0.65,-0.4,5880.555555555556
-0.67,-0.375,5883.333333333333
-0.69,-0.375,5886.111111111111
-0.72,-0.41,5888.888888888889
-0.76,-0.42,5891.666666666667
-0.8,-0.465,5894.444444444444
-0.835,-0.515,5897.222222222223
-0.845,-0.53,5900.0
-0.865,-0.54,5902.777777777777
-0.875,-0.505,5905.555555555556
-0.885,-0.495,5908.333333333333
-0.885,-0.495,5911.111111111111
-0.88,-0.48,5913.888888888889
-0.88,-0.49,5916.666666666667
-0.88,-0.52,5919.444444444444
-0.905,-0.54,5922.222222222223
-0.9,-0.54,5925.0
-0.91,-0.535,5927.777777777777
-0.925,-0.54,5930.555555555556
-0.945,-0.55,5933.333333333333
-0.955,-0.54,5936.111111111111
-0.95,-0.555,5938.888888888889
-0.935,-0.54,5941.666666666667
-0.94,-0.545,5944.444444444444
-0.92,-0.545,5947.222222222223
-0.905,-0.535,5950.0
-0.92,-0.54,5952.777777777777
-0.92,-0.53,5955.555555555556
-0.925,-0.51,5958.333333333333
-0.925,-0.525,5961.111111111111
-0.925,-0.525,5963.888888888889
-0.935,-0.545,5966.666666666667
-0.94,-0.525,5969.444444444444
-0.92,-0.545,5972.222222222223
-0.915,-0.525,5975.0
-0.915,-0.54,5977.777777777777
-0.89,-0.52,5980.555555555556
-0.88,-0.52,5983.333333333333
-0.88,-0.52,5986.111111111111
-0.865,-0.525,5988.888888888889
-0.885,-0.56,5991.666666666667
-0.905,-0.595,5994.444444444444
-0.945,-0.64,5997.222222222223
-0.94,-0.68,6000.0
-0.965,-0.72,6002.777777777777
-0.95,-0.77,6005.555555555556
-0.885,-0.85,6008.333333333333
-0.775,-0.955,6011.111111111111
-0.65,-1.045,6013.888888888889
-0.48,-1.185,6016.666666666667
-0.33,-1.285,6019.444444444444
-0.195,-1.395,6022.222222222223
-0.135,-1.44,6025.0
-0.125,-1.41,6027.777777777777
-0.14,-1.33,6030.555555555556
-0.135,-1.19,6033.333333333333
-0.1,-1.06,6036.111111111111
0.03,-0.91,6038.888888888889
0.185,-0.725,6041.666666666667
0.335,-0.5,6044.444444444444
0.415,-0.22,6047.222222222223
0.34,0.12,6050.0
0.095,0.42,6052.777777777777
-0.285,0.575,6055.555555555556
-0.725,0.55,6058.333333333333
-1.135,0.38,6061.111111111111
-1.44,0.085,6063.888888888889
-1.65,-0.18,6066.666666666667
-1.765,-0.385,6069.444444444444
-1.815,-0.505,6072.222222222223
-1.83,-0.555,6075.0
-1.85,-0.58,6077.777777777777
-1.87,-0.59,6080.555555555556
-1.88,-0.64,6083.333333333333
-1.9,-0.69,6086.111111111111
-1.91,-0.71,6088.888888888889
-1.925,-0.745,6091.666666666667
-1.945,-0.75,6094.444444444444
-1.945,-0.735,6097.222222222223
-1.935,-0.725,6100.0
-1.92,-0.715,6102.777777777777
-1.895,-0.705,6105.555555555556
-1.85,-0.725,6108.333333333333
-1.765,-0.74,6111.111111111111
-1.66,-0.745,6113.888888888889
-1.51,-0.725,6116.666666666667
-1.37,-0.71,6119.444444444444
-1.24,-0.67,6122.222222222223
-1.135,-0.615,6125.0
-1.055,-0.58,6127.777777777777
-1.015,-0.545,6130.555555555556
-1.02,-0.515,6133.333333333333
-1.005,-0.495,6136.111111111111
-1.01,-0.475,6138.888888888889
-1.01,-0.485,6141.666666666667
-0.98,-0.505,6144.444444444444
-0.96,-0.5,6147.222222222223
-0.96,-0.5,6150.0
-0.935,-0.505,6152.777777777777
-0.93,-0.515,6155.555555555556
-0.93,-0.535,6158.333333333333
-0.93,-0.55,6161.111111111111
-0.945,-0.545,6163.888888888889
-0.945,-0.585,6166.666666666667
-0.985,-0.56,6169.444444444444
-0.965,-0.58,6172.222222222223
-0.955,-0.565,6175.0
-0.955,-0.56,6177.777777777777
-0.95,-0.57,6180.555555555556
-0.94,-0.565,6183.333333333333
-0.945,-0.575,6186.111111111111
-0.95,-0.585,6188.888888888889
-0.975,-0.62,6191.666666666667
-0.975,-0.635,6194.444444444444
-0.995,-0.655,6197.222222222223
-1.0,-0.66,6200.0
-1.005,-0.665,6202.777777777777
-1.01,-0.67,6205.555555555556
-1.02,-0.665,6208.333333333333
-1.025,-0.67,6211.111111111111
-1.035,-0.7,6213.888888888889
-1.02,-0.7,6216.666666666667
-1.02,-0.73,6219.444444444444
-1.04,-0.77,6222.222222222223
-1.055,-0.795,6225.0
-1.07,-0.825,6227.777777777777
-1.08,-0.84,6230.555555555556
-1.09,-0.855,6233.333333333333
-1.095,-0.84,6236.111111111111
-1.115,-0.86,6238.888888888889
-1.125,-0.835,6241.666666666667
-1.13,-0.855,6244.444444444444
-1.105,-0.865,6247.222222222223
-1.115,-0.87,6250.0
-1.12,-0.895,6252.777777777777
-1.12,-0.91,6255.555555555556
-1.14,-0.925,6258.333333333333
-1.145,-0.935,6261.111111111111
-1.16,-0.955,6263.888888888889
-1.18,-0.96,6266.666666666667
-1.185,-0.96,6269.444444444444
-1.2,-0.955,6272.222222222223
-1.19,-0.955,6275.0
-1.185,-0.95,6277.777777777777
-1.185,-0.945,6280.555555555556
-1.175,-0.945,6283.333333333333
-1.165,-0.945,6286.111111111111
-1.16,-0.955,6288.888888888889
-1.16,-0.965,6291.666666666667
-1.17,-0.965,6294.444444444444
-1.175,-0.98,6297.222222222223
-1.175,-0.985,6300.0
-1.155,-0.975,6302.777777777777
-1.145,-0.985,6305.555555555556
-1.135,-0.96,6308.333333333333
-1.105,-0.95,6311.111111111111
-1.095,-0.95,6313.888888888889
-1.08,-0.94,6316.666666666667
-1.05,-0.915,6319.444444444444
-1.02,-0.93,6322.222222222223
-1.01,-0.925,6325.0
-0.99,-0.925,6327.777777777777
-0.965,-0.92,6330.555555555556
-0.955,-0.885,6333.333333333333
-0.955,-0.87,6336.111111111111
-0.94,-0.855,6338.888888888889
-0.92,-0.825,6341.666666666667
-0.91,-0.805,6344.444444444444
-0.89,-0.77,6347.222222222223
-0.87,-0.745,6350.0
-0.86,-0.75,6352.777777777777
-0.835,-0.765,6355.555555555556
-0.85,-0.755,6358.333333333333
-0.85,-0.76,6361.111111111111
-0.835,-0.745,6363.888888888889
-0.825,-0.745,6366.666666666667
-0.825,-0.71,6369.444444444444
-0.805,-0.7,6372.222222222223
-0.81,-0.66,6375.0
-0.795,-0.625,6377.777777777777
-0.77,-0.61,6380.555555555556
-0.765,-0.615,6383.333333333333
-0.765,-0.605,6386.111111111111
-0.765,-0.6,6388.888888888889
-0.77,-0.62,6391.666666666667
-0.76,-0.625,6394.444444444444
-0.77,-0.635,6397.222222222223
-0.765,-0.625,6400.0
-0.76,-0.615,6402.777777777777
-0.755,-0.605,6405.555555555556
-0.76,-0.59,6408.333333333333
-0.745,-0.565,6411.111111111111
-0.74,-0.545,6413.888888888889
-0.735,-0.535,6416.666666666667
-0.735,-0.55,6419.444444444444
-0.75,-0.55,6422.222222222223
-0.76,-0.565,6425.0
-0.76,-0.565,6427.777777777777
-0.76,-0.575,6430.555555555556
-0.77,-0.565,6433.333333333333
-0.765,-0.56,6436.111111111111
-0.76,-0.56,6438.888888888889
-0.755,-0.545,6441.666666666667
-0.74,-0.53,6444.444444444444
-0.74,-0.545,6447.222222222223
-0.74,-0.505,6450.0
-0.74,-0.515,6452.777777777777
-0.76,-0.505,6455.555555555556
-0.765,-0.52,6458.333333333333
-0.775,-0.53,6461.111111111111
-0.8,-0.535,6463.888888888889
-0.8,-0.55,6466.666666666667
-0.795,-0.525,6469.444444444444
-0.785,-0.515,6472.222222222223
-0.78,-0.495,6475.0
-0.785,-0.49,6477.777777777777
-0.785,-0.465,6480.555555555556
-0.79,-0.46,6483.333333333333
-0.78,-0.47,6486.111111111111
-0.81,-0.475,6488.888888888889
-0.805,-0.495,6491.666666666667
-0.84,-0.52,6494.444444444444
-0.845,-0.525,6497.222222222223
-0.86,-0.51,6500.0
-0.875,-0.525,6502.777777777777
-0.87,-0.515,6505.555555555556
-0.875,-0.48,6508.333333333333
-0.86,-0.495,6511.111111111111
-0.855,-0.475,6513.888888888889
-0.845,-0.48,6516.666666666667
-0.835,-0.46,6519.444444444444
-0.835,-0.495,6522.222222222223
-0.85,-0.5,6525.0
-0.865,-0.51,6527.777777777777
-0.87,-0.515,6530.555555555556
-0.875,-0.515,6533.333333333333
-0.875,-0.52,6536.111111111111
-0.865,-0.5,6538.888888888889
-0.87,-0.505,6541.666666666667
-0.87,-0.48,6544.444444444444
-0.875,-0.48,6547.222222222223
-0.865,-0.47,6550.0
-0.86,-0.5,6552.777777777777
-0.85,-0.51,6555.555555555556
-0.855,-0.52,6558.333333333333
-0.865,-0.555,6561.111111111111
-0.875,-0.57,6563.888888888889
-0.88,-0.575,6566.666666666667
-0.89,-0.575,6569.444444444444
-0.885,-0.555,6572.222222222223
-0.88,-0.56,6575.0
-0.88,-0.525,6577.777777777777
-0.875,-0.525,6580.555555555556
-0.87,-0.515,6583.333333333333
-0.86,-0.52,6586.111111111111
-0.87,-0.53,6588.888888888889
-0.875,-0.535,6591.666666666667
-0.885,-0.54,6594.444444444444
-0.88,-0.555,6597.222222222223
-0.895,-0.565,6600.0
-0.895,-0.575,6602.777777777777
-0.9,-0.57,6605.555555555556
-0.89,-0.56,6608.333333333333
-0.89,-0.555,6611.111111111111
-0.88,-0.54,6613.888888888889
-0.855,-0.52,6616.666666666667
-0.83,-0.53,6619.444444444444
-0.815,-0.54,6622.222222222223
-0.815,-0.54,6625.0
-0.81,-0.575,6627.777777777777
-0.81,-0.58,6630.555555555556
-0.82,-0.595,6633.333333333333
-0.805,-0.615,6636.111111111111
-0.78,-0.61,6638.888888888889
-0.795,-0.615,6641.666666666667
-0.76,-0.62,6644.444444444444
-0.745,-0.605,6647.222222222223
-0.72,-0.59,6650.0
-0.715,-0.585,6652.777777777777
-0.71,-0.58,6655.555555555556
-0.68,-0.57,6658.333333333333
-0.67,-0.565,6661.111111111111
-0.675,-0.55,6663.888888888889
-0.69,-0.54,6666.666666666667
-0.71,-0.535,6669.444444444444
-0.73,-0.525,6672.222222222223
-0.735,-0.53,6675.0
-0.72,-0.555,6677.777777777777
-0.745,-0.55,6680.555555555556
-0.745,-0.565,6683.333333333333
-0.72,-0.585,6686.111111111111
-0.715,-0.56,6688.888888888889
-0.685,-0.565,6691.666666666667
-0.69,-0.545,6694.444444444444
-0.685,-0.49,6697.222222222223
-0.67,-0.48,6700.0
-0.67,-0.465,6702.777777777777
-0.68,-0.445,6705.555555555556
-0.715,-0.44,6708.333333333333
-0.72,-0.46,6711.111111111111
-0.75,-0.485,6713.888888888889
-0.775,-0.515,6716.666666666667
-0.785,-0.55,6719.444444444444
-0.805,-0.585,6722.222222222223
-0.84,-0.59,6725.0
-0.865,-0.605,6727.777777777777
-0.86,-0.61,6730.555555555556
-0.89,-0.595,6733.333333333333
-0.915,-0.61,6736.111111111111
-0.905,-0.575,6738.888888888889
-0.905,-0.59,6741.666666666667
-0.885,-0.575,6744.444444444444
-0.875,-0.57,6747.222222222223
-0.88,-0.545,6750.0
-0.865,-0.565,6752.777777777777
-0.885,-0.585,6755.555555555556
-0.905,-0.59,6758.333333333333
-0.905,-0.585,6761.111111111111
-0.89,-0.615,6763.888888888889
-0.905,-0.615,6766.666666666667
-0.91,-0.61,6769.444444444444
-0.92,-0.605,6772.222222222223
-0.915,-0.575,6775.0
-0.9,-0.575,6777.777777777777
-0.92,-0.565,6780.555555555556
-0.885,-0.54,6783.333333333333
-0.885,-0.55,6786.111111111111
-0.895,-0.575,6788.888888888889
-0.895,-0.58,6791.666666666667
-0.9,-0.605,6794.444444444444
-0.91,-0.63,6797.222222222223
-0.94,-0.65,6800.0
-0.93,-0.645,6802.777777777777
-0.93,-0.63,6805.555555555556
-0.915,-0.63,6808.333333333333
-0.91,-0.595,6811.111111111111
-0.895,-0.605,6813.888888888889
-0.89,-0.585,6816.666666666667
-0.875,-0.61,6819.444444444444
-0.885,-0.63,6822.222222222223
-0.895,-0.645,6825.0
-0.93,-0.65,6827.777777777777
-0.925,-0.665,6830.555555555556
-0.92,-0.715,6833.333333333333
-0.915,-0.785,6836.111111111111
-0.855,-0.88,6838.888888888889
-0.755,-0.99,6841.666666666667
-0.625,-1.095,6844.444444444444
-0.48,-1.19,6847.222222222223
-0.305,-1.295,6850.0
-0.195,-1.405,6852.777777777777
-0.15,-1.455,6855.555555555556
-0.125,-1.43,6858.333333333333
-0.165,-1.365,6861.111111111111
-0.19,-1.25,6863.888888888889
-0.16,-1.105,6866.666666666667
-0.07,-0.975,6869.444444444444
0.085,-0.825,6872.222222222223
0.245,-0.66,6875.0
0.37,-0.39,6877.777777777777
0.4,-0.09,6880.555555555556
0.275,0.21,6883.333333333333
-0.035,0.455,6886.111111111111
-0.43,0.55,6888.888888888889
-0.87,0.5,6891.666666666667
-1.25,0.3,6894.444444444444
-1.515,0.02,6897.222222222223
-1.695,-0.23,6900.0
-1.795,-0.425,6902.777777777777
-1.845,-0.545,6905.555555555556
-1.91,-0.595,6908.333333333333
-1.96,-0.65,6911.111111111111
-1.985,-0.67,6913.888888888889
-2.0,-0.73,6916.666666666667
-2.02,-0.77,6919.444444444444
-2.01,-0.795,6922.222222222223
-2.015,-0.815,6925.0
-2.015,-0.81,6927.777777777777
-2.01,-0.805,6930.555555555556
-2.005,-0.79,6933.333333333333
-1.985,-0.8,6936.111111111111
-1.93,-0.8,6938.888888888889
-1.84,-0.825,6941.666666666667
-1.71,-0.825,6944.444444444444
-1.555,-0.805,6947.222222222223
-1.395,-0.765,6950.0
-1.255,-0.705,6952.777777777777
-1.155,-0.655,6955.555555555556
-1.07,-0.61,6958.333333333333
-1.025,-0.56,6961.111111111111
-1.01,-0.55,6963.888888888889
-1.01,-0.515,6966.666666666667
-1.02,-0.52,6969.444444444444
-1.015,-0.51,6972.222222222223
-1.005,-0.49,6975.0
-0.975,-0.475,6977.777777777777
-0.975,-0.475,6980.555555555556
-0.95,-0.465,6983.333333333333
-0.945,-0.49,6986.111111111111
-0.955,-0.505,6988.888888888889
-0.97,-0.525,6991.666666666667
-0.995,-0.535,6994.444444444444
-1.0,-0.545,6997.222222222223
-0.98,-0.555,7000.0
-0.99,-0.555,7002.777777777777
-0.995,-0.56,7005.555555555556
-1.0,-0.57,7008.333333333333
-0.975,-0.585,7011.111111111111
-0.97,-0.58,7013.888888888889
-0.95,-0.58,7016.666666666667
-0.975,-0.585,7019.444444444444
-0.98,-0.595,7022.222222222223
-1.02,-0.6,7025.0
-1.04,-0.6,7027.777777777777
-1.035,-0.62,7030.555555555556
-1.05,-0.63,7033.333333333333
-1.065,-0.635,7036.111111111111
-1.07,-0.665,7038.888888888889
-1.06,-0.67,7041.666666666667
-1.06,-0.67,7044.444444444444
-1.065,-0.7,7047.222222222223
-1.075,-0.705,7050.0
-1.105,-0.73,7052.777777777777
-1.085,-0.755,7055.555555555556
-1.11,-0.755,7058.333333333333
-1.12,-0.775,7061.111111111111
-1.125,-0.78,7063.888888888889
-1.155,-0.81,7066.666666666667
-1.165,-0.825,7069.444444444444
-1.18,-0.825,7072.222222222223
-1.175,-0.845,7075.0
-1.185,-0.845,7077.777777777777
-1.185,-0.86,7080.555555555556
-1.175,-0.85,7083.333333333333
-1.185,-0.865,7086.111111111111
-1.19,-0.86,7088.888888888889
-1.19,-0.86,7091.666666666667
-1.21,-0.88,7094.444444444444
-1.205,-0.91,7097.222222222223
-1.23,-0.93,7100.0
-1.23,-0.955,7102.777777777777
-1.235,-0.965,7105.555555555556
-1.22,-0.945,7108.333333333333
-1.215,-0.94,7111.111111111111
-1.2,-0.92,7113.888888888889
-1.19,-0.905,7116.666666666667
-1.16,-0.915,7119.444444444444
-1.15,-0.895,7122.222222222223
-1.155,-0.905,7125.0
-1.155,-0.91,7127.777777777777
-1.13,-0.9,7130.555555555556
-1.125,-0.885,7133.333333333333
-1.13,-0.87,7136.111111111111
-1.12,-0.845,7138.888888888889
-1.095,-0.83,7141.666666666667
-1.09,-0.825,7144.444444444444
-1.05,-0.835,7147.222222222223
-1.03,-0.805,7150.0
-1.005,-0.785,7152.777777777777
-0.985,-0.77,7155.555555555556
-0.96,-0.745,7158.333333333333
-0.97,-0.73,7161.111111111111
-0.96,-0.745,7163.888888888889
-0.955,-0.74,7166.666666666667
-0.94,-0.715,7169.444444444444
-0.935,-0.685,7172.222222222223
-0.92,-0.655,7175.0
-0.895,-0.625,7177.777777777777
-0.895,-0.59,7180.555555555556
-0.885,-0.57,7183.333333333333
-0.89,-0.58,7186.111111111111
-0.9,-0.58,7188.888888888889
-0.895,-0.575,7191.666666666667
-0.885,-0.575,7194.444444444444
-0.885,-0.595,7197.222222222223
-0.905,-0.58,7200.0
-0.89,-0.575,7202.777777777777
-0.875,-0.565,7205.555555555556
-0.875,-0.55,7208.333333333333
-0.86,-0.53,7211.111111111111
-0.86,-0.515,7213.888888888889
-0.845,-0.49,7216.666666666667
-0.85,-0.49,7219.444444444444
-0.845,-0.49,7222.222222222223
-0.845,-0.485,7225.0
-0.845,-0.49,7227.777777777777
-0.85,-0.505,7230.555555555556
-0.87,-0.505,7233.333333333333
-0.885,-0.51,7236.111111111111
-0.885,-0.52,7238.888888888889
-0.875,-0.505,7241.666666666667
-0.865,-0.485,7244.444444444444
-0.855,-0.46,7247.222222222223
-0.86,-0.46,7250.0
-0.865,-0.475,7252.777777777777
-0.85,-0.485,7255.555555555556
-0.86,-0.5,7258.333333333333
-0.86,-0.495,7261.111111111111
-0.885,-0.535,7263.888888888889
-0.88,-0.53,7266.666666666667
-0.895,-0.535,7269.444444444444
-0.905,-0.515,7272.222222222223
-0.9,-0.47,7275.0
-0.885,-0.475,7277.777777777777
-0.885,-0.47,7280.555555555556
-0.865,-0.465,7283.333333333333
-0.875,-0.48,7286.111111111111
-0.875,-0.47,7288.888888888889
-0.88,-0.475,7291.666666666667
-0.895,-0.51,7294.444444444444
-0.9,-0.51,7297.222222222223
-0.91,-0.525,7300.0
-0.92,-0.535,7302.777777777777
-0.915,-0.555,7305.555555555556
-0.925,-0.515,7308.333333333333
-0.91,-0.505,7311.111111111111
-0.89,-0.46,7313.888888888889
-0.895,-0.465,7316.666666666667
-0.885,-0.475,7319.444444444444
-0.89,-0.49,7322.222222222223
-0.89,-0.5,7325.0
-0.9,-0.525,7327.777777777777
-0.895,-0.5,7330.555555555556
-0.905,-0.515,7333.333333333333
-0.875,-0.515,7336.111111111111
-0.9,-0.5,7338.888888888889
-0.9,-0.48,7341.666666666667
-0.885,-0.465,7344.444444444444
-0.89,-0.46,7347.222222222223
-0.9,-0.43,7350.0
-0.875,-0.45,7352.777777777777
-0.895,-0.465,7355.555555555556
-0.895,-0.48,7358.333333333333
-0.875,-0.51,7361.111111111111
-0.885,-0.52,7363.888888888889
-0.885,-0.51,7366.666666666667
-0.885,-0.49,7369.444444444444
-0.885,-0.475,7372.222222222223
-0.875,-0.465,7375.0
-0.855,-0.46,7377.777777777777
-0.86,-0.45,7380.555555555556
-0.84,-0.445,7383.333333333333
-0.845,-0.45,7386.111111111111
-0.855,-0.465,7388.888888888889
-0.865,-0.475,7391.666666666667
-0.88,-0.48,7394.444444444444
-0.89,-0.48,7397.222222222223
-0.885,-0.495,7400.0
-0.885,-0.5,7402.777777777777
-0.875,-0.49,7405.555555555556
-0.875,-0.49,7408.333333333333
-0.88,-0.475,7411.111111111111
-0.86,-0.465,7413.888888888889
-0.835,-0.445,7416.666666666667
-0.85,-0.445,7419.444444444444
-0.84,-0.46,7422.222222222223
-0.835,-0.47,7425.0
-0.84,-0.49,7427.777777777777
-0.84,-0.48,7430.555555555556
-0.845,-0.47,7433.333333333333
-0.84,-0.485,7436.111111111111
-0.855,-0.485,7438.888888888889
-0.835,-0.47,7441.666666666667
-0.82,-0.45,7444.444444444444
-0.795,-0.44,7447.222222222223
-0.785,-0.44,7450.0
-0.77,-0.465,7452.777777777777
-0.765,-0.485,7455.555555555556
-0.76,-0.5,7458.333333333333
-0.775,-0.54,7461.111111111111
-0.765,-0.525,7463.888888888889
-0.765,-0.53,7466.666666666667
-0.76,-0.51,7469.444444444444
-0.74,-0.5,7472.222222222223
-0.715,-0.475,7475.0
-0.685,-0.43,7477.777777777777
-0.68,-0.41,7480.555555555556
-0.675,-0.37,7483.333333333333
-0.705,-0.38,7486.111111111111
-0.715,-0.405,7488.888888888889
-0.73,-0.425,7491.666666666667
-0.755,-0.445,7494.444444444444
-0.765,-0.47,7497.222222222223
-0.775,-0.475,7500.0
-0.755,-0.46,7502.777777777777
-0.745,-0.42,7505.555555555556
-0.72,-0.385,7508.333333333333
-0.695,-0.335,7511.111111111111
-0.685,-0.3,7513.888888888889
-0.68,-0.265,7516.666666666667
-0.685,-0.29,7519.444444444444
-0.715,-0.305,7522.222222222223
-0.75,-0.34,7525.0
-0.785,-0.395,7527.777777777777
-0.805,-0.43,7530.555555555556
-0.83,-0.45,7533.333333333333
-0.845,-0.465,7536.111111111111
-0.84,-0.45,7538.888888888889
-0.84,-0.435,7541.666666666667
-0.865,-0.395,7544.444444444444
-0.87,-0.395,7547.222222222223
-0.87,-0.38,7550.0
-0.865,-0.405,7552.777777777777
-0.88,-0.435,7555.555555555556
-0.89,-0.46,7558.333333333333
-0.895,-0.475,7561.111111111111
-0.905,-0.49,7563.888888888889
-0.915,-0.49,7566.666666666667
-0.915,-0.505,7569.444444444444
-0.92,-0.495,7572.222222222223
-0.91,-0.475,7575.0
-0.9,-0.46,7577.777777777777
-0.885,-0.435,7580.555555555556
-0.89,-0.43,7583.333333333333
-0.89,-0.425,7586.111111111111
-0.89,-0.435,7588.888888888889
-0.905,-0.465,7591.666666666667
-0.925,-0.46,7594.444444444444
-0.92,-0.47,7597.222222222223
-0.925,-0.485,7600.0
-0.93,-0.5,7602.777777777777
-0.925,-0.505,7605.555555555556
-0.91,-0.47,7608.333333333333
-0.905,-0.47,7611.111111111111
-0.91,-0.46,7613.888888888889
-0.9,-0.45,7616.666666666667
-0.89,-0.465,7619.444444444444
-0.885,-0.47,7622.222222222223
-0.905,-0.485,7625.0
-0.92,-0.5,7627.777777777777
-0.925,-0.505,7630.555555555556
-0.94,-0.515,7633.333333333333
-0.95,-0.525,7636.111111111111
-0.945,-0.55,7638.888888888889
-0.955,-0.575,7641.666666666667
-0.945,-0.625,7644.444444444444
-0.92,-0.69,7647.222222222223
-0.87,-0.79,7650.0
-0.765,-0.91,7652.777777777777
-0.645,-1.04,7655.555555555556
-0.5,-1.17,7658.333333333333
-0.375,-1.29,7661.111111111111
-0.26,-1.38,7663.888888888889
-0.215,-1.38,7666.666666666667
-0.22,-1.325,7669.444444444444
-0.245,-1.215,7672.222222222223
-0.235,-1.035,7675.0
-0.195,-0.865,7677.777777777777
-0.055,-0.725,7680.555555555556
0.095,-0.55,7683.333333333333
0.25,-0.315,7686.111111111111
0.32,-0.025,7688.888888888889
0.22,0.305,7691.666666666667
-0.035,0.55,7694.444444444444
-0.415,0.66,7697.222222222223
-0.83,0.64,7700.0
-1.16,0.425,7702.777777777777
-1.41,0.175,7705.555555555556
-1.54,-0.055,7708.333333333333
-1.605,-0.23,7711.111111111111
-1.64,-0.32,7713.888888888889
-1.69,-0.355,7716.666666666667
-1.725,-0.425,7719.444444444444
-1.785,-0.47,7722.222222222223
-1.825,-0.52,7725.0
-1.845,-0.57,7727.777777777777
-1.865,-0.61,7730.555555555556
-1.88,-0.61,7733.333333333333
-1.885,-0.605,7736.111111111111
-1.895,-0.59,7738.888888888889
-1.89,-0.6,7741.666666666667
-1.87,-0.585,7744.444444444444
-1.83,-0.6,7747.222222222223
-1.755,-0.61,7750.0
-1.655,-0.625,7752.777777777777
-1.525,-0.64,7755.555555555556
-1.405,-0.62,7758.333333333333
-1.27,-0.6,7761.111111111111
-1.145,-0.54,7763.888888888889
-1.075,-0.49,7766.666666666667
-1.035,-0.445,7769.444444444444
-1.005,-0.405,7772.222222222223
-1.01,-0.395,7775.0
-1.015,-0.395,7777.777777777777
-1.005,-0.395,7780.555555555556
-0.975,-0.385,7783.333333333333
-0.95,-0.395,7786.111111111111
-0.93,-0.4,7788.888888888889
-0.935,-0.395,7791.666666666667
-0.945,-0.4,7794.444444444444
-0.95,-0.41,7797.222222222223
-0.94,-0.41,7800.0
-0.93,-0.425,7802.777777777777
-0.92,-0.425,7805.555555555556
-0.925,-0.425,7808.333333333333
-0.945,-0.45,7811.111111111111
-0.945,-0.435,7813.888888888889
-0.95,-0.45,7816.666666666667
-0.94,-0.43,7819.444444444444
-0.955,-0.445,7822.222222222223
-0.96,-0.455,7825.0
-0.95,-0.5,7827.777777777777
-0.97,-0.525,7830.555555555556
-0.96,-0.55,7833.333333333333
-0.97,-0.57,7836.111111111111
-0.975,-0.575,7838.888888888889
-0.975,-0.58,7841.666666666667
-0.98,-0.58,7844.444444444444
-0.985,-0.58,7847.222222222223
-0.97,-0.605,7850.0
-0.985,-0.635,7852.777777777777
-1.015,-0.65,7855.555555555556
-1.04,-0.67,7858.333333333333
-1.065,-0.68,7861.111111111111
-1.085,-0.72,7863.888888888889
-1.07,-0.725,7866.666666666667
-1.07,-0.755,7869.444444444444
-1.07,-0.74,7872.222222222223
-1.07,-0.75,7875.0
-1.07,-0.75,7877.777777777777
-1.08,-0.755,7880.555555555556
-1.095,-0.79,7883.333333333333
-1.1,-0.8,7886.111111111111
-1.11,-0.83,7888.888888888889
-1.145,-0.86,7891.666666666667
-1.145,-0.85,7894.444444444444
-1.165,-0.9,7897.222222222223
-1.16,-0.88,7900.0
-1.18,-0.875,7902.777777777777
-1.175,-0.905,7905.555555555556
-1.185,-0.88,7908.333333333333
-1.185,-0.91,7911.111111111111
-1.185,-0.895,7913.888888888889
-1.17,-0.88,7916.666666666667
-1.16,-0.91,7919.444444444444
-1.16,-0.905,7922.222222222223
-1.165,-0.905,7925.0
-1.16,-0.935,7927.777777777777
-1.165,-0.945,7930.555555555556
-1.17,-0.945,7933.333333333333
-1.175,-0.935,7936.111111111111
-1.165,-0.925,7938.888888888889
-1.15,-0.89,7941.666666666667
-1.12,-0.865,7944.444444444444
-1.105,-0.85,7947.222222222223
-1.085,-0.83,7950.0
-1.06,-0.84,7952.777777777777
-1.04,-0.83,7955.555555555556
-1.03,-0.835,7958.333333333333
-1.03,-0.835,7961.111111111111
-1.035,-0.81,7963.888888888889
-1.005,-0.79,7966.666666666667
-0.995,-0.77,7969.444444444444
-0.98,-0.75,7972.222222222223
-0.96,-0.715,7975.0
-0.93,-0.695,7977.777777777777
-0.92,-0.685,7980.555555555556
-0.89,-0.675,7983.333333333333
-0.88,-0.67,7986.111111111111
-0.87,-0.66,7988.888888888889
-0.875,-0.66,7991.666666666667
-0.87,-0.645,7994.444444444444
-0.855,-0.65,7997.222222222223
-0.87,-0.625,8000.0
-0.87,-0.645,8002.777777777777
-0.875,-0.635,8005.555555555556
-0.87,-0.625,8008.333333333333
-0.84,-0.575,8011.111111111111
-0.825,-0.57,8013.888888888889
-0.83,-0.57,8016.666666666667
-0.805,-0.56,8019.444444444444
-0.815,-0.57,8022.222222222223
-0.825,-0.545,8025.0
-0.835,-0.56,8027.777777777777
-0.85,-0.56,8030.555555555556
-0.845,-0.56,8033.333333333333
-0.84,-0.54,8036.111111111111
-0.825,-0.545,8038.888888888889
-0.83,-0.51,8041.666666666667
-0.815,-0.52,8044.444444444444
-0.81,-0.5,8047.222222222223
-0.8,-0.5,8050.0
-0.805,-0.495,8052.777777777777
-0.8,-0.495,8055.555555555556
-0.81,-0.505,8058.333333333333
-0.82,-0.525,8061.111111111111
-0.845,-0.53,8063.888888888889
-0.855,-0.525,8066.666666666667
-0.845,-0.52,8069.444444444444
-0.85,-0.53,8072.222222222223
-0.84,-0.505,8075.0
-0.83,-0.5,8077.777777777777
-0.835,-0.49,8080.555555555556
-0.835,-0.495,8083.333333333333
-0.83,-0.5,8086.111111111111
-0.835,-0.495,8088.888888888889
-0.84,-0.495,8091.666666666667
-0.86,-0.515,8094.444444444444
-0.865,-0.525,8097.222222222223
-0.885,-0.52,8100.0
-0.895,-0.52,8102.777777777777
-0.885,-0.53,8105.555555555556
-0.895,-0.535,8108.333333333333
-0.89,-0.53,8111.111111111111
-0.885,-0.52,8113.888888888889
-0.885,-0.51,8116.666666666667
-0.865,-0.52,8119.444444444444
-0.84,-0.52,8122.222222222223
-0.815,-0.515,8125.0
-0.82,-0.535,8127.777777777777
-0.845,-0.535,8130.555555555556
-0.865,-0.545,8133.333333333333
-0.915,-0.545,8136.111111111111
-0.945,-0.54,8138.888888888889
-0.915,-0.52,8141.666666666667
-0.88,-0.51,8144.444444444444
-0.865,-0.48,8147.222222222223
-0.835,-0.48,8150.0
-0.855,-0.49,8152.777777777777
-0.88,-0.51,8155.555555555556
-0.92,-0.52,8158.333333333333
-0.935,-0.51,8161.111111111111
-0.94,-0.51,8163.888888888889
-0.935,-0.5,8166.666666666667
-0.945,-0.505,8169.444444444444
-0.93,-0.495,8172.222222222223
-0.935,-0.505,8175.0
-0.915,-0.51,8177.777777777777
-0.91,-0.515,8180.555555555556
-0.885,-0.53,8183.333333333333
-0.885,-0.52,8186.111111111111
-0.895,-0.515,8188.888888888889
-0.89,-0.545,8191.666666666667
-0.905,-0.55,8194.444444444445
-0.925,-0.54,8197.222222222223
-0.9,-0.535,8200.0
-0.91,-0.49,8202.777777777777
-0.91,-0.48,8205.555555555555
-0.895,-0.485,8208.333333333334
-0.885,-0.495,8211.111111111111
-0.865,-0.5,8213.888888888889
-0.855,-0.51,8216.666666666666
-0.85,-0.515,8219.444444444445
-0.855,-0.525,8222.222222222223
-0.865,-0.54,8225.0
-0.87,-0.55,8227.777777777777
-0.87,-0.565,8230.555555555555
-0.85,-0.565,8233.333333333334
-0.865,-0.545,8236.111111111111
-0.83,-0.54,8238.888888888889
-0.835,-0.51,8241.666666666666
-0.805,-0.51,8244.444444444445
-0.765,-0.495,8247.222222222223
-0.77,-0.51,8250.0
-0.75,-0.53,8252.777777777777
-0.745,-0.54,8255.555555555555
-0.735,-0.555,8258.333333333334
-0.745,-0.57,8261.111111111111
-0.745,-0.57,8263.888888888889
-0.76,-0.565,8266.666666666666
-0.775,-0.55,8269.444444444445
-0.78,-0.525,8272.222222222223
-0.765,-0.485,8275.0
-0.76,-0.445,8277.777777777777
-0.75,-0.435,8280.555555555555
-0.735,-0.42,8283.333333333334
-0.765,-0.43,8286.111111111111
-0.775,-0.455,8288.888888888889
-0.765,-0.455,8291.666666666666
-0.76,-0.475,8294.444444444445
-0.735,-0.49,8297.222222222223
-0.715,-0.485,8300.0
-0.73,-0.49,8302.777777777777
-0.725,-0.46,8305.555555555555
-0.75,-0.435,8308.333333333334
-0.75,-0.4,8311.111111111111
-0.79,-0.38,8313.888888888889
-0.795,-0.345,8316.666666666666
-0.83,-0.385,8319.444444444445
-0.895,-0.41,8322.222222222223
-0.92,-0.445,8325.0
-0.925,-0.505,8327.777777777777
-0.93,-0.53,8330.555555555555
-0.945,-0.54,8333.333333333334
-0.94,-0.57,8336.111111111111
-0.935,-0.565,8338.888888888889
-0.935,-0.545,8341.666666666666
-0.94,-0.535,8344.444444444445
-0.95,-0.515,8347.222222222223
-0.98,-0.495,8350.0
-0.965,-0.48,8352.777777777777
-0.96,-0.47,8355.555555555555
-0.965,-0.495,8358.333333333334
-0.98,-0.52,8361.111111111111
-0.995,-0.535,8363.888888888889
-0.99,-0.55,8366.666666666666
-0.985,-0.545,8369.444444444445
-0.97,-0.545,8372.222222222223
-0.98,-0.525,8375.0
-0.955,-0.51,8377.777777777777
-0.975,-0.51,8380.555555555555
-0.96,-0.505,8383.333333333334
-0.97,-0.525,8386.111111111111
-0.965,-0.535,8388.888888888889
-0.985,-0.555,8391.666666666666
-0.99,-0.565,8394.444444444445
-1.0,-0.58,8397.222222222223
-1.01,-0.56,8400.0
-1.035,-0.57,8402.777777777777
-1.04,-0.58,8405.555555555555
-1.035,-0.58,8408.333333333334
-1.02,-0.56,8411.111111111111
-1.015,-0.555,8413.888888888889
-1.005,-0.56,8416.666666666666
-1.0,-0.565,8419.444444444445
-0.995,-0.56,8422.222222222223
-1.015,-0.55,8425.0
-1.025,-0.555,8427.777777777777
-1.04,-0.575,8430.555555555555
-1.065,-0.605,8433.333333333334
-1.095,-0.655,8436.111111111111
-1.115,-0.73,8438.888888888889
-1.12,-0.795,8441.666666666666
-1.095,-0.895,8444.444444444445
-1.065,-1.02,8447.222222222223
-0.98,-1.18,8450.0
-0.885,-1.345,8452.777777777777
-0.76,-1.495,8455.555555555555
-0.66,-1.63,8458.333333333334
-0.61,-1.68,8461.111111111111
-0.59,-1.655,8463.888888888889
-0.585,-1.545,8466.666666666666
-0.575,-1.41,8469.444444444445
-0.505,-1.24,8472.222222222223
-0.37,-1.065,8475.0
-0.18,-0.92,8477.777777777777
0.025,-0.74,8480.555555555555
0.19,-0.485,8483.333333333334
0.23,-0.175,8486.111111111111
0.175,0.125,8488.888888888889
-0.015,0.375,8491.666666666666
-0.31,0.485,8494.444444444445
-0.65,0.46,8497.222222222223
-1.0,0.325,8500.0
-1.28,0.125,8502.777777777777
-1.475,-0.07,8505.555555555555
-1.595,-0.21,8508.333333333334
-1.665,-0.285,8511.111111111111
-1.695,-0.34,8513.888888888889
-1.735,-0.36,8516.666666666666
-1.785,-0.4,8519.444444444445
-1.86,-0.43,8522.222222222223
-1.905,-0.48,8525.0
-1.93,-0.505,8527.777777777777
-1.95,-0.53,8530.555555555555
-1.965,-0.545,8533.333333333334
-1.975,-0.555,8536.111111111111
-1.94,-0.57,8538.888888888889
-1.935,-0.58,8541.666666666666
-1.895,-0.615,8544.444444444445
-1.845,-0.615,8547.222222222223
-1.765,-0.64,8550.0
-1.665,-0.65,8552.777777777777
-1.535,-0.63,8555.555555555555
-1.405,-0.595,8558.333333333334
-1.3,-0.57,8561.111111111111
-1.21,-0.535,8563.888888888889
-1.145,-0.505,8566.666666666666
-1.125,-0.5,8569.444444444445
-1.11,-0.475,8572.222222222223
-1.125,-0.47,8575.0
-1.12,-0.495,8577.777777777777
-1.11,-0.48,8580.555555555555
-1.1,-0.475,8583.333333333334
-1.09,-0.49,8586.111111111111
-1.08,-0.475,8588.888888888889
-1.08,-0.45,8591.666666666666
-1.08,-0.445,8594.444444444445
-1.07,-0.455,8597.222222222223
-1.09,-0.48,8600.0
-1.085,-0.49,8602.777777777777
-1.08,-0.485,8605.555555555555
-1.065,-0.495,8608.333333333334
-1.06,-0.47,8611.111111111111
-1.07,-0.51,8613.888888888889
-1.075,-0.51,8616.666666666666
-1.06,-0.54,8619.444444444445
-1.075,-0.565,8622.222222222223
-1.08,-0.595,8625.0
-1.095,-0.63,8627.777777777777
-1.12,-0.62,8630.555555555555
-1.13,-0.62,8633.333333333334
-1.15,-0.61,8636.111111111111
-1.14,-0.605,8638.888888888889
-1.15,-0.605,8641.666666666666
-1.145,-0.61,8644.444444444445
-1.145,-0.61,8647.222222222223
-1.14,-0.645,8650.0
-1.155,-0.685,8652.777777777777
-1.18,-0.705,8655.555555555555
-1.185,-0.72,8658.333333333334
-1.185,-0.725,8661.111111111111
-1.175,-0.735,8663.888888888889
-1.185,-0.73,8666.666666666666
-1.22,-0.75,8669.444444444445
-1.24,-0.775,8672.222222222223
-1.265,-0.76,8675.0
-1.275,-0.77,8677.777777777777
-1.255,-0.8,8680.555555555555
-1.265,-0.815,8683.333333333334
-1.25,-0.825,8686.111111111111
-1.245,-0.83,8688.888888888889
-1.245,-0.82,8691.666666666666
-1.245,-0.81,8694.444444444445
-1.255,-0.835,8697.222222222223
-1.28,-0.86,8700.0
-1.3,-0.87,8702.777777777777
-1.305,-0.885,8705.555555555555
-1.295,-0.875,8708.333333333334
-1.29,-0.875,8711.111111111111
-1.295,-0.865,8713.888888888889
-1.295,-0.865,8716.666666666666
-1.28,-0.845,8719.444444444445
-1.265,-0.86,8722.222222222223
-1.265,-0.855,8725.0
-1.26,-0.845,8727.777777777777
-1.275,-0.875,8730.555555555555
-1.275,-0.885,8733.333333333334
-1.295,-0.905,8736.111111111111
-1.29,-0.915,8738.888888888889
-1.27,-0.905,8741.666666666666
-1.26,-0.895,8744.444444444445
-1.235,-0.86,8747.222222222223
-1.21,-0.85,8750.0
-1.185,-0.84,8752.777777777777
-1.185,-0.835,8755.555555555555
-1.175,-0.815,8758.333333333334
-1.16,-0.8,8761.111111111111
-1.16,-0.775,8763.888888888889
-1.14,-0.775,8766.666666666666
-1.135,-0.79,8769.444444444445
-1.135,-0.785,8772.222222222223
-1.105,-0.76,8775.0
-1.055,-0.75,8777.777777777777
-1.05,-0.73,8780.555555555555
-1.02,-0.7,8783.333333333334
-0.995,-0.665,8786.111111111111
-0.98,-0.65,8788.888888888889
-0.965,-0.645,8791.666666666666
-0.985,-0.645,8794.444444444445
-1.005,-0.67,8797.222222222223
-1.02,-0.665,8800.0
-1.04,-0.685,8802.777777777777
-1.025,-0.655,8805.555555555555
-1.015,-0.64,8808.333333333334
-1.01,-0.615,8811.111111111111
-1.0,-0.605,8813.888888888889
-0.985,-0.585,8816.666666666666
-0.96,-0.575,8819.444444444445
-0.955,-0.555,8822.222222222223
-0.955,-0.555,8825.0
-0.955,-0.56,8827.777777777777
-0.985,-0.56,8830.555555555555
-0.995,-0.595,8833.333333333334
-0.99,-0.6,8836.111111111111
-1.01,-0.59,8838.888888888889
-0.99,-0.585,8841.666666666666
-0.985,-0.56,8844.444444444445
-0.985,-0.53,8847.222222222223
-0.975,-0.5,8850.0
-0.96,-0.485,8852.777777777777
-0.945,-0.495,8855.555555555555
-0.935,-0.525,8858.333333333334
-0.955,-0.54,8861.111111111111
-0.995,-0.565,8863.888888888889
-1.025,-0.585,8866.666666666666
-1.045,-0.575,8869.444444444445
-1.065,-0.565,8872.222222222223
-1.065,-0.545,8875.0
-1.035,-0.52,8877.777777777777
-0.995,-0.5,8880.555555555555
-0.97,-0.505,8883.333333333334
-0.97,-0.515,8886.111111111111
-0.995,-0.525,8888.888888888889
-1.03,-0.54,8891.666666666666
-1.05,-0.57,8894.444444444445
-1.055,-0.575,8897.222222222223
-1.065,-0.58,8900.0
-1.035,-0.58,8902.777777777777
-1.015,-0.58,8905.555555555555
-1.0,-0.56,8908.333333333334
-1.0,-0.545,8911.111111111111
-1.005,-0.535,8913.888888888889
-1.01,-0.54,8916.666666666666
-1.04,-0.555,8919.444444444445
-1.045,-0.57,8922.222222222223
-1.065,-0.625,8925.0
-1.08,-0.63,8927.777777777777
-1.065,-0.645,8930.555555555555
-1.05,-0.63,8933.333333333334
-1.04,-0.59,8936.111111111111
-1.025,-0.565,8938.888888888889
-1.025,-0.515,8941.666666666666
-1.025,-0.51,8944.444444444445
-1.025,-0.5,8947.222222222223
-1.04,-0.49,8950.0
-1.04,-0.515,8952.777777777777
-1.04,-0.535,8955.555555555555
-1.06,-0.575,8958.333333333334
-1.075,-0.595,8961.111111111111
-1.08,-0.625,8963.888888888889
-1.07,-0.615,8966.666666666666
-1.06,-0.6,8969.444444444445
-1.065,-0.575,8972.222222222223
-1.045,-0.57,8975.0
-1.04,-0.52,8977.777777777777
-1.055,-0.525,8980.555555555555
-1.055,-0.53,8983.333333333334
-1.06,-0.575,8986.111111111111
-1.06,-0.575,8988.888888888889
-1.1,-0.585,8991.666666666666
-1.115,-0.615,8994.444444444445
-1.13,-0.625,8997.222222222223
-1.15,-0.625,9000.0
-1.155,-0.605,9002.777777777777
-1.125,-0.6,9005.555555555555
-1.075,-0.55,9008.333333333334
-1.04,-0.54,9011.111111111111
-1.02,-0.545,9013.888888888889
-1.035,-0.54,9016.666666666666
-1.06,-0.56,9019.444444444445
-1.09,-0.56,9022.222222222223
-1.115,-0.545,9025.0
-1.11,-0.54,9027.777777777777
-1.115,-0.535,9030.555555555555
-1.095,-0.525,9033.333333333334
-1.105,-0.54,9036.111111111111
-1.115,-0.555,9038.888888888889
-1.125,-0.55,9041.666666666666
-1.125,-0.55,9044.444444444445
-1.095,-0.535,9047.222222222223
-1.085,-0.51,9050.0
-1.075,-0.5,9052.777777777777
-1.07,-0.515,9055.555555555555
-1.07,-0.52,9058.333333333334
-1.09,-0.535,9061.111111111111
-1.11,-0.55,9063.888888888889
-1.11,-0.57,9066.666666666666
-1.125,-0.56,9069.444444444445
-1.145,-0.575,9072.222222222223
-1.13,-0.58,9075.0
-1.105,-0.565,9077.777777777777
-1.1,-0.58,9080.555555555555
-1.095,-0.595,9083.333333333334
-1.1,-0.575,9086.111111111111
-1.1,-0.58,9088.888888888889
-1.1,-0.55,9091.666666666666
-1.075,-0.545,9094.444444444445
-1.075,-0.525,9097.222222222223
-1.06,-0.545,9100.0
-1.065,-0.56,9102.777777777777
-1.065,-0.6,9105.555555555555
-1.07,-0.63,9108.333333333334
-1.07,-0.645,9111.111111111111
-1.06,-0.64,9113.888888888889
-1.06,-0.62,9116.666666666666
-1.015,-0.585,9119.444444444445
-1.025,-0.58,9122.222222222223
-1.015,-0.56,9125.0
-0.985,-0.585,9127.777777777777
-0.97,-0.6,9130.555555555555
-0.955,-0.6,9133.333333333334
-0.955,-0.585,9136.111111111111
-0.945,-0.56,9138.888888888889
-0.945,-0.525,9141.666666666666
-0.945,-0.5,9144.444444444445
-0.965,-0.495,9147.222222222223
-0.975,-0.505,9150.0
-0.995,-0.515,9152.777777777777
-1.01,-0.545,9155.555555555555
-1.01,-0.575,9158.333333333334
-1.025,-0.585,9161.111111111111
-1.01,-0.59,9163.888888888889
-0.99,-0.565,9166.666666666666
-0.96,-0.505,9169.444444444445
-0.94,-0.455,9172.222222222223
-0.935,-0.41,9175.0
-0.94,-0.36,9177.777777777777
-0.97,-0.385,9180.555555555555
-1.02,-0.39,9183.333333333334
-1.06,-0.44,9186.111111111111
-1.09,-0.49,9188.888888888889
-1.11,-0.495,9191.666666666666
-1.11,-0.54,9194.444444444445
-1.13,-0.555,9197.222222222223
-1.155,-0.56,9200.0
-1.16,-0.565,9202.777777777777
-1.165,-0.57,9205.555555555555
-1.185,-0.55,9208.333333333334
-1.195,-0.535,9211.111111111111
-1.19,-0.545,9213.888888888889
-1.2,-0.525,9216.666666666666
-1.19,-0.52,9219.444444444445
-1.195,-0.54,9222.222222222223
-1.2,-0.58,9225.0
-1.18,-0.58,9227.777777777777
-1.175,-0.6,9230.555555555555
-1.185,-0.61,9233.333333333334
-1.21,-0.615,9236.111111111111
-1.225,-0.595,9238.888888888889
-1.245,-0.59,9241.666666666666
-1.245,-0.585,9244.444444444445
-1.24,-0.58,9247.222222222223
-1.19,-0.58,9250.0
-1.18,-0.575,9252.777777777777
-1.165,-0.61,9255.555555555555
-1.205,-0.59,9258.333333333334
-1.2,-0.59,9261.111111111111
-1.225,-0.59,9263.888888888889
-1.22,-0.625,9266.666666666666
-1.23,-0.62,9269.444444444445
-1.235,-0.635,9272.222222222223
-1.225,-0.62,9275.0
-1.205,-0.61,9277.777777777777
-1.185,-0.595,9280.555555555555
-1.155,-0.57,9283.333333333334
-1.15,-0.555,9286.111111111111
-1.18,-0.575,9288.888888888889
-1.21,-0.61,9291.666666666666
-1.245,-0.65,9294.444444444445
-1.285,-0.7,9297.222222222223
-1.325,-0.76,9300.0
-1.33,-0.825,9302.777777777777
-1.31,-0.88,9305.555555555555
-1.24,-0.96,9308.333333333334
-1.125,-1.04,9311.111111111111
-0.96,-1.145,9313.888888888889
-0.815,-1.27,9316.666666666666
-0.685,-1.405,9319.444444444445
-0.62,-1.52,9322.222222222223
-0.56,-1.55,9325.0
-0.565,-1.545,9327.777777777777
-0.585,-1.435,9330.555555555555
-0.58,-1.31,9333.333333333334
-0.55,-1.145,9336.111111111111
-0.43,-0.99,9338.888888888889
-0.27,-0.82,9341.666666666666
-0.1,-0.64,9344.444444444445
0.04,-0.415,9347.222222222223
0.05,-0.13,9350.0
-0.04,0.15,9352.777777777777
-0.345,0.355,9355.555555555555
-0.765,0.415,9358.333333333334
-1.18,0.33,9361.111111111111
-1.56,0.095,9363.888888888889
-1.845,-0.155,9366.666666666666
-2.03,-0.4,9369.444444444445
-2.165,-0.525,9372.222222222223
-2.215,-0.61,9375.0
-2.245,-0.64,9377.777777777777
-2.24,-0.665,9380.555555555555
-2.24,-0.715,9383.333333333334
-2.21,-0.76,9386.111111111111
-2.215,-0.815,9388.888888888889
-2.205,-0.83,9391.666666666666
-2.215,-0.84,9394.444444444445
-2.23,-0.815,9397.222222222223
-2.26,-0.82,9400.0
-2.26,-0.81,9402.777777777777
-2.235,-0.825,9405.555555555555
-2.19,-0.825,9408.333333333334
-2.09,-0.83,9411.111111111111
-1.955,-0.845,9413.888888888889
-1.815,-0.815,9416.666666666666
-1.685,-0.785,9419.444444444445
-1.575,-0.735,9422.222222222223
-1.51,-0.67,9425.0
-1.43,-0.62,9427.777777777777
-1.395,-0.6,9430.555555555555
-1.385,-0.585,9433.333333333334
-1.385,-0.58,9436.111111111111
-1.375,-0.595,9438.888888888889
-1.38,-0.595,9441.666666666666
-1.35,-0.615,9444.444444444445
-1.315,-0.605,9447.222222222223
-1.29,-0.585,9450.0
-1.265,-0.57,9452.777777777777
-1.265,-0.575,9455.555555555555
-1.27,-0.56,9458.333333333334
-1.29,-0.575,9461.111111111111
-1.305,-0.59,9463.888888888889
-1.3,-0.595,9466.666666666666
-1.325,-0.595,9469.444444444445
-1.345,-0.6,9472.222222222223
-1.38,-0.595,9475.0
-1.365,-0.6,9477.777777777777
-1.375,-0.63,9480.555555555555
-1.335,-0.645,9483.333333333334
-1.32,-0.65,9486.111111111111
-1.305,-0.66,9488.888888888889
-1.305,-0.66,9491.666666666666
-1.345,-0.67,9494.444444444445
-1.36,-0.67,9497.222222222223
-1.36,-0.675,9500.0
-1.385,-0.685,9502.777777777777
-1.39,-0.695,9505.555555555555
-1.385,-0.71,9508.333333333334
-1.38,-0.73,9511.111111111111
-1.365,-0.745,9513.888888888889
-1.38,-0.73,9516.666666666666
-1.41,-0.76,9519.444444444445
-1.43,-0.79,9522.222222222223
-1.44,-0.81,9525.0
-1.445,-0.845,9527.777777777777
-1.455,-0.87,9530.555555555555
-1.465,-0.86,9533.333333333334
-1.48,-0.86,9536.111111111111
-1.5,-0.845,9538.888888888889
-1.525,-0.875,9541.666666666666
-1.525,-0.865,9544.444444444445
-1.54,-0.89,9547.222222222223
-1.525,-0.91,9550.0
-1.5,-0.91,9552.777777777777
-1.515,-0.925,9555.555555555555
-1.5,-0.95,9558.333333333334
-1.495,-0.99,9561.111111111111
-1.495,-1.0,9563.888888888889
-1.535,-1.0,9566.666666666666
-1.54,-1.0,9569.444444444445
-1.55,-0.995,9572.222222222223
-1.545,-0.99,9575.0
-1.535,-0.975,9577.777777777777
-1.52,-0.985,9580.555555555555
-1.495,-0.995,9583.333333333334
-1.49,-0.99,9586.111111111111
-1.495,-1.0,9588.888888888889
-1.505,-1.0,9591.666666666666
-1.5,-1.0,9594.444444444445
-1.51,-1.015,9597.222222222223
-1.505,-1.01,9600.0
-1.515,-1.0,9602.777777777777
-1.52,-0.995,9605.555555555555
-1.505,-0.96,9608.333333333334
-1.475,-0.94,9611.111111111111
-1.425,-0.9,9613.888888888889
-1.375,-0.9,9616.666666666666
-1.34,-0.885,9619.444444444445
-1.315,-0.915,9622.222222222223
-1.315,-0.89,9625.0
-1.33,-0.9,9627.777777777777
-1.36,-0.91,9630.555555555555
-1.395,-0.885,9633.333333333334
-1.385,-0.88,9636.111111111111
-1.355,-0.865,9638.888888888889
-1.315,-0.83,9641.666666666666
-1.255,-0.81,9644.444444444445
-1.22,-0.775,9647.222222222223
-1.205,-0.75,9650.0
-1.175,-0.74,9652.777777777777
-1.17,-0.72,9655.555555555555
-1.175,-0.7,9658.333333333334
-1.16,-0.67,9661.111111111111
-1.165,-0.645,9663.888888888889
-1.16,-0.655,9666.666666666666
-1.175,-0.65,9669.444444444445
-1.185,-0.66,9672.222222222223
-1.205,-0.68,9675.0
-1.215,-0.685,9677.777777777777
-1.21,-0.685,9680.555555555555
-1.205,-0.67,9683.333333333334
-1.19,-0.635,9686.111111111111
-1.175,-0.605,9688.888888888889
-1.185,-0.58,9691.666666666666
-1.185,-0.585,9694.444444444445
-1.175,-0.605,9697.222222222223
-1.18,-0.635,9700.0
-1.185,-0.645,9702.777777777777
-1.185,-0.64,9705.555555555555
-1.2,-0.625,9708.333333333334
-1.195,-0.6,9711.111111111111
-1.175,-0.6,9713.888888888889
-1.165,-0.585,9716.666666666666
-1.15,-0.575,9719.444444444445
-1.16,-0.59,9722.222222222223
-1.145,-0.595,9725.0
-1.155,-0.615,9727.777777777777
-1.175,-0.625,9730.555555555555
-1.16,-0.635,9733.333333333334
-1.185,-0.65,9736.111111111111
-1.2,-0.645,9738.888888888889
-1.21,-0.645,9741.666666666666
-1.175,-0.63,9744.444444444445
-1.165,-0.63,9747.222222222223
-1.185,-0.61,9750.0
-1.175,-0.6,9752.777777777777
-1.165,-0.59,9755.555555555555
-1.175,-0.58,9758.333333333334
-1.205,-0.59,9761.111111111111
-1.235,-0.61,9763.888888888889
-1.26,-0.615,9766.666666666666
-1.245,-0.645,9769.444444444445
-1.245,-0.64,9772.222222222223
-1.24,-0.66,9775.0
-1.205,-0.645,9777.777777777777
-1.19,-0.635,9780.555555555555
-1.175,-0.61,9783.333333333334
-1.18,-0.645,9786.111111111111
-1.19,-0.615,9788.888888888889
-1.22,-0.62,9791.666666666666
-1.235,-0.61,9794.444444444445
-1.25,-0.615,9797.222222222223
-1.24,-0.625,9800.0
-1.235,-0.645,9802.777777777777
-1.23,-0.665,9805.555555555555
-1.205,-0.65,9808.333333333334
-1.205,-0.635,9811.111111111111
-1.18,-0.61,9813.888888888889
-1.2,-0.62,9816.666666666666
-1.19,-0.6,9819.444444444445
-1.185,-0.615,9822.222222222223
-1.165,-0.605,9825.0
-1.15,-0.615,9827.777777777777
-1.15,-0.62,9830.555555555555
-1.18,-0.625,9833.333333333334
-1.2,-0.635,9836.111111111111
-1.24,-0.645,9838.888888888889
-1.255,-0.675,9841.666666666666
-1.255,-0.66,9844.444444444445
-1.23,-0.675,9847.222222222223
-1.225,-0.65,9850.0
-1.205,-0.645,9852.777777777777
-1.175,-0.615,9855.555555555555
-1.195,-0.605,9858.333333333334
-1.185,-0.59,9861.111111111111
-1.165,-0.615,9863.888888888889
-1.17,-0.615,9866.666666666666
-1.165,-0.63,9869.444444444445
-1.18,-0.66,9872.222222222223
-1.19,-0.655,9875.0
-1.2,-0.66,9877.777777777777
-1.19,-0.655,9880.555555555555
-1.195,-0.645,9883.333333333334
-1.195,-0.65,9886.111111111111
-1.18,-0.655,9888.888888888889
-1.185,-0.64,9891.666666666666
-1.185,-0.645,9894.444444444445
-1.175,-0.64,9897.222222222223
-1.17,-0.615,9900.0
-1.16,-0.63,9902.777777777777
-1.175,-0.635,9905.555555555555
-1.185,-0.62,9908.333333333334
-1.18,-0.61,9911.111111111111
-1.185,-0.595,9913.888888888889
-1.195,-0.59,9916.666666666666
-1.17,-0.58,9919.444444444445
-1.175,-0.59,9922.222222222223
-1.15,-0.635,9925.0
-1.15,-0.645,9927.777777777777
-1.155,-0.655,9930.555555555555
-1.16,-0.66,9933.333333333334
-1.16,-0.645,9936.111111111111
-1.16,-0.64,9938.888888888889
-1.17,-0.62,9941.666666666666
-1.16,-0.62,9944.444444444445
-1.135,-0.6,9947.222222222223
-1.13,-0.62,9950.0
-1.11,-0.61,9952.777777777777
-1.125,-0.625,9955.555555555555
-1.135,-0.615,9958.333333333334
-1.16,-0.61,9961.111111111111
-1.175,-0.61,9963.888888888889
-1.18,-0.63,9966.666666666666
-1.16,-0.63,9969.444444444445
-1.145,-0.645,9972.222222222223
-1.115,-0.645,9975.0
-1.095,-0.63,9977.777777777777
-1.085,-0.625,9980.555555555555
-1.075,-0.615,9983.333333333334
-1.05,-0.63,9986.111111111111
-1.055,-0.66,9988.888888888889
-1.055,-0.685,9991.666666666666
-1.04,-0.695,9994.444444444445
-1.035,-0.69,9997.222222222223
-1.015,-0.675,10000.0
-0.98,-0.665,10002.777777777777
-0.98,-0.645,10005.555555555555
-0.96,-0.625,10008.333333333334
-0.955,-0.625,10011.111111111111
-0.965,-0.62,10013.888888888889
-0.965,-0.605,10016.666666666666
-0.995,-0.615,10019.444444444445
-1.03,-0.61,10022.222222222223
-1.025,-0.6,10025.0
-1.035,-0.61,10027.777777777777
-1.05,-0.595,10030.555555555555
-1.015,-0.595,10033.333333333334
-0.97,-0.56,10036.111111111111
-0.94,-0.535,10038.888888888889
-0.94,-0.51,10041.666666666666
-0.95,-0.5,10044.444444444445
-0.965,-0.495,10047.222222222223
-0.99,-0.495,10050.0
-1.005,-0.51,10052.777777777777
-1.045,-0.535,10055.555555555555
-1.095,-0.57,10058.333333333334
-1.12,-0.615,10061.111111111111
-1.115,-0.65,10063.888888888889
-1.135,-0.675,10066.666666666666
-1.145,-0.69,10069.444444444445
-1.16,-0.65,10072.222222222223
-1.195,-0.625,10075.0
-1.19,-0.59,10077.777777777777
-1.205,-0.59,10080.555555555555
-1.2,-0.585,10083.333333333334
-1.19,-0.595,10086.111111111111
-1.185,-0.635,10088.888888888889
-1.175,-0.635,10091.666666666666
-1.16,-0.67,10094.444444444445
-1.18,-0.675,10097.222222222223
-1.18,-0.675,10100.0
-1.195,-0.67,10102.777777777777
-1.215,-0.675,10105.555555555555
-1.215,-0.665,10108.333333333334
-1.195,-0.635,10111.111111111111
-1.18,-0.635,10113.888888888889
-1.15,-0.63,10116.666666666666
-1.14,-0.635,10119.444444444445
-1.145,-0.635,10122.222222222223
-1.145,-0.63,10125.0
-1.185,-0.645,10127.777777777777
-1.205,-0.65,10130.555555555555
-1.26,-0.665,10133.333333333334
-1.265,-0.68,10136.111111111111
-1.27,-0.68,10138.888888888889
-1.245,-0.675,10141.666666666666
-1.225,-0.635,10144.444444444445
-1.205,-0.655,10147.222222222223
-1.17,-0.64,10150.0
-1.16,-0.645,10152.777777777777
-1.16,-0.645,10155.555555555555
-1.175,-0.68,10158.333333333334
-1.19,-0.725,10161.111111111111
-1.215,-0.77,10163.888888888889
-1.235,-0.82,10166.666666666666
-1.225,-0.87,10169.444444444445
-1.2,-0.92,10172.222222222223
-1.125,-0.995,10175.0
-1.0,-1.085,10177.777777777777
-0.84,-1.23,10180.555555555555
-0.67,-1.39,10183.333333333334
-0.52,-1.51,10186.111111111111
-0.46,-1.55,10188.888888888889
-0.455,-1.545,10191.666666666666
-0.51,-1.46,10194.444444444445
-0.515,-1.315,10197.222222222223
-0.475,-1.17,10200.0
-0.32,-0.98,10202.777777777777
-0.14,-0.785,10205.555555555555
0.025,-0.53,10208.333333333334
0.115,-0.205,10211.111111111111
0.04,0.065,10213.888888888889
-0.22,0.295,10216.666666666666
-0.62,0.36,10219.444444444445
-1.05,0.295,10222.222222222223
-1.445,0.1,10225.0
-1.735,-0.125,10227.777777777777
-1.9,-0.34,10230.555555555555
-1.975,-0.51,10233.333333333334
-2.015,-0.59,10236.111111111111
-2.07,-0.645,10238.888888888889
-2.12,-0.67,10241.666666666666
-2.165,-0.705,10244.444444444445
-2.22,-0.77,10247.222222222223
-2.255,-0.805,10250.0
-2.26,-0.83,10252.777777777777
-2.255,-0.83,10255.555555555555
-2.255,-0.85,10258.333333333334
-2.265,-0.86,10261.111111111111
-2.285,-0.87,10263.888888888889
-2.29,-0.87,10266.666666666666
-2.275,-0.865,10269.444444444445
-2.23,-0.89,10272.222222222223
-2.175,-0.91,10275.0
-2.095,-0.915,10277.777777777777
-2.005,-0.88,10280.555555555555
-1.89,-0.875,10283.333333333334
-1.735,-0.81,10286.111111111111
-1.625,-0.745,10288.888888888889
-1.515,-0.695,10291.666666666666
-1.415,-0.65,10294.444444444445
-1.365,-0.63,10297.222222222223
-1.355,-0.64,10300.0
-1.34,-0.615,10302.777777777777
-1.32,-0.61,10305.555555555555
-1.285,-0.6,10308.333333333334
-1.25,-0.605,10311.111111111111
-1.225,-0.61,10313.888888888889
-1.205,-0.59,10316.666666666666
-1.2,-0.58,10319.444444444445
-1.185,-0.585,10322.222222222223
-1.21,-0.595,10325.0
-1.24,-0.625,10327.777777777777
-1.27,-0.66,10330.555555555555
-1.28,-0.66,10333.333333333334
-1.27,-0.68,10336.111111111111
-1.28,-0.685,10338.888888888889
-1.235,-0.69,10341.666666666666
-1.245,-0.675,10344.444444444445
-1.245,-0.675,10347.222222222223
-1.235,-0.665,10350.0
-1.23,-0.65,10352.777777777777
-1.25,-0.655,10355.555555555555
-1.25,-0.675,10358.333333333334
-1.265,-0.68,10361.111111111111
-1.27,-0.715,10363.888888888889
-1.275,-0.73,10366.666666666666
-1.28,-0.755,10369.444444444445
-1.275,-0.745,10372.222222222223
-1.285,-0.73,10375.0
-1.285,-0.725,10377.777777777777
-1.305,-0.75,10380.555555555555
-1.3,-0.76,10383.333333333334
-1.32,-0.805,10386.111111111111
-1.325,-0.845,10388.888888888889
-1.345,-0.865,10391.666666666666
-1.345,-0.88,10394.444444444445
-1.35,-0.915,10397.222222222223
-1.365,-0.93,10400.0
-1.375,-0.945,10402.777777777777
-1.4,-0.935,10405.555555555555
-1.42,-0.93,10408.333333333334
-1.435,-0.925,10411.111111111111
-1.45,-0.93,10413.888888888889
-1.445,-0.91,10416.666666666666
-1.43,-0.92,10419.444444444445
-1.435,-0.94,10422.222222222223
-1.435,-0.955,10425.0
-1.43,-0.94,10427.777777777777
-1.43,-0.955,10430.555555555555
-1.435,-0.945,10433.333333333334
-1.445,-0.98,10436.111111111111
-1.46,-0.995,10438.888888888889
-1.47,-1.0,10441.666666666666
-1.45,-1.005,10444.444444444445
-1.435,-1.015,10447.222222222223
-1.43,-1.02,10450.0
-1.41,-1.015,10452.777777777777
-1.42,-1.0,10455.555555555555
-1.445,-1.005,10458.333333333334
-1.45,-1.01,10461.111111111111
-1.445,-1.015,10463.888888888889
-1.44,-1.005,10466.666666666666
-1.42,-1.015,10469.444444444445
-1.415,-1.01,10472.222222222223
-1.39,-1.005,10475.0
-1.355,-1.005,10477.777777777777
-1.335,-0.995,10480.555555555555
-1.305,-0.995,10483.333333333334
-1.29,-0.96,10486.111111111111
-1.285,-0.955,10488.888888888889
-1.28,-0.9,10491.666666666666
-1.275,-0.89,10494.444444444445
-1.28,-0.88,10497.222222222223
-1.26,-0.885,10500.0
-1.22,-0.895,10502.777777777777
-1.21,-0.885,10505.555555555555
-1.205,-0.87,10508.333333333334
-1.185,-0.86,10511.111111111111
-1.17,-0.825,10513.888888888889
-1.15,-0.805,10516.666666666666
-1.12,-0.785,10519.444444444445
-1.11,-0.785,10522.222222222223
-1.1,-0.78,10525.0
-1.105,-0.775,10527.777777777777
-1.13,-0.76,10530.555555555555
-1.13,-0.765,10533.333333333334
-1.115,-0.73,10536.111111111111
-1.11,-0.715,10538.888888888889
-1.105,-0.71,10541.666666666666
-1.09,-0.705,10544.444444444445
-1.065,-0.7,10547.222222222223
-1.035,-0.68,10550.0
-1.015,-0.67,10552.777777777777
-1.04,-0.64,10555.555555555555
-1.065,-0.615,10558.333333333334
-1.065,-0.625,10561.111111111111
-1.105,-0.605,10563.888888888889
-1.11,-0.62,10566.666666666666
-1.1,-0.62,10569.444444444445
-1.1,-0.615,10572.222222222223
-1.08,-0.62,10575.0
-1.06,-0.63,10577.777777777777
-1.04,-0.635,10580.555555555555
-1.03,-0.615,10583.333333333334
-1.03,-0.63,10586.111111111111
-1.04,-0.61,10588.888888888889
-1.065,-0.58,10591.666666666666
-1.105,-0.6,10594.444444444445
-1.115,-0.605,10597.222222222223
-1.115,-0.64,10600.0
-1.115,-0.65,10602.777777777777
-1.115,-0.65,10605.555555555555
-1.105,-0.66,10608.333333333334
-1.075,-0.68,10611.111111111111
-1.075,-0.645,10613.888888888889
-1.075,-0.63,10616.666666666666
-1.06,-0.615,10619.444444444445
-1.075,-0.605,10622.222222222223
-1.095,-0.605,10625.0
-1.125,-0.62,10627.777777777777
-1.16,-0.62,10630.555555555555
-1.185,-0.67,10633.333333333334
-1.18,-0.67,10636.111111111111
-1.16,-0.67,10638.888888888889
-1.14,-0.655,10641.666666666666
-1.115,-0.65,10644.444444444445
-1.105,-0.64,10647.222222222223
-1.1,-0.635,10650.0
-1.105,-0.64,10652.777777777777
-1.11,-0.665,10655.555555555555
-1.11,-0.665,10658.333333333334
-1.11,-0.685,10661.111111111111
-1.115,-0.685,10663.888888888889
-1.11,-0.69,10666.666666666666
-1.115,-0.665,10669.444444444445
-1.13,-0.65,10672.222222222223
-1.135,-0.64,10675.0
-1.13,-0.625,10677.777777777777
-1.13,-0.635,10680.555555555555
-1.11,-0.66,10683.333333333334
-1.105,-0.665,10686.111111111111
-1.105,-0.665,10688.888888888889
-1.085,-0.65,10691.666666666666
-1.08,-0.635,10694.444444444445
-1.09,-0.655,10697.222222222223
-1.095,-0.66,10700.0
-1.105,-0.675,10702.777777777777
-1.115,-0.665,10705.555555555555
-1.12,-0.655,10708.333333333334
-1.12,-0.63,10711.111111111111
-1.12,-0.61,10713.888888888889
-1.095,-0.605,10716.666666666666
-1.09,-0.615,10719.444444444445
-1.115,-0.625,10722.222222222223
-1.11,-0.63,10725.0
-1.11,-0.65,10727.777777777777
-1.095,-0.655,10730.555555555555
-1.1,-0.66,10733.333333333334
-1.095,-0.66,10736.111111111111
-1.095,-0.665,10738.888888888889
-1.105,-0.68,10741.666666666666
-1.105,-0.66,10744.444444444445
-1.105,-0.655,10747.222222222223
-1.08,-0.64,10750.0
-1.055,-0.62,10752.777777777777
-1.05,-0.625,10755.555555555555
-1.075,-0.615,10758.333333333334
-1.095,-0.605,10761.111111111111
-1.135,-0.62,10763.888888888889
-1.135,-0.59,10766.666666666666
-1.13,-0.63,10769.444444444445
-1.125,-0.625,10772.222222222223
-1.13,-0.63,10775.0
-1.095,-0.645,10777.777777777777
-1.075,-0.655,10780.555555555555
-1.06,-0.655,10783.333333333334
-1.055,-0.645,10786.111111111111
-1.05,-0.64,10788.888888888889
-1.055,-0.64,10791.666666666666
-1.075,-0.645,10794.444444444445
-1.075,-0.645,10797.222222222223
-1.08,-0.67,10800.0
-1.07,-0.675,10802.777777777777
-1.075,-0.65,10805.555555555555
-1.07,-0.64,10808.333333333334
-1.04,-0.63,10811.111111111111
-1.04,-0.62,10813.888888888889
-1.015,-0.62,10816.666666666666
-1.0,-0.65,10819.444444444445
-1.01,-0.675,10822.222222222223
-1.0,-0.71,10825.0
-1.005,-0.715,10827.777777777777
-0.98,-0.7,10830.555555555555
-0.975,-0.68,10833.333333333334
-0.94,-0.66,10836.111111111111
-0.925,-0.625,10838.888888888889
-0.885,-0.615,10841.666666666666
-0.86,-0.605,10844.444444444445
-0.865,-0.58,10847.222222222223
-0.895,-0.555,10850.0
-0.92,-0.56,10852.777777777777
-0.945,-0.595,10855.555555555555
-0.965,-0.62,10858.333333333334
-0.97,-0.655,10861.111111111111
-0.99,-0.68,10863.888888888889
-0.99,-0.665,10866.666666666666
-0.995,-0.655,10869.444444444445
-0.975,-0.615,10872.222222222223
-0.945,-0.57,10875.0
-0.92,-0.535,10877.777777777777
-0.885,-0.495,10880.555555555555
-0.86,-0.44,10883.333333333334
-0.875,-0.425,10886.111111111111
-0.92,-0.43,10888.888888888889
-0.96,-0.425,10891.666666666666
-0.98,-0.45,10894.444444444445
-1.0,-0.5,10897.222222222223
-1.03,-0.55,10900.0
-1.04,-0.59,10902.777777777777
-1.05,-0.59,10905.555555555555
-1.075,-0.565,10908.333333333334
-1.08,-0.555,10911.111111111111
-1.085,-0.555,10913.888888888889
-1.075,-0.565,10916.666666666666
-1.065,-0.575,10919.444444444445
-1.055,-0.595,10922.222222222223
-1.065,-0.61,10925.0
-1.09,-0.645,10927.777777777777
-1.125,-0.645,10930.555555555555
-1.16,-0.665,10933.333333333334
-1.185,-0.65,10936.111111111111
-1.2,-0.62,10938.888888888889
-1.175,-0.59,10941.666666666666
-1.15,-0.555,10944.444444444445
-1.125,-0.55,10947.222222222223
-1.11,-0.575,10950.0
-1.105,-0.58,10952.777777777777
-1.13,-0.6,10955.555555555555
-1.13,-0.635,10958.333333333334
-1.13,-0.64,10961.111111111111
-1.135,-0.64,10963.888888888889
-1.14,-0.64,10966.666666666666
-1.14,-0.635,10969.444444444445
-1.15,-0.625,10972.222222222223
-1.165,-0.625,10975.0
-1.16,-0.605,10977.777777777777
-1.155,-0.63,10980.555555555555
-1.145,-0.62,10983.333333333334
-1.095,-0.605,10986.111111111111
-1.095,-0.6,10988.888888888889
-1.08,-0.605,10991.666666666666
-1.085,-0.625,10994.444444444445
-1.11,-0.67,10997.222222222223
-1.125,-0.69,11000.0
-1.15,-0.695,11002.777777777777
-1.18,-0.725,11005.555555555555
-1.17,-0.72,11008.333333333334
-1.17,-0.765,11011.111111111111
-1.12,-0.84,11013.888888888889
-1.045,-0.88,11016.666666666666
-0.93,-1.0,11019.444444444445
-0.77,-1.095,11022.222222222223
-0.61,-1.215,11025.0
-0.45,-1.34,11027.777777777777
-0.35,-1.415,11030.555555555555
-0.315,-1.425,11033.333333333334
-0.335,-1.375,11036.111111111111
-0.385,-1.27,11038.888888888889
-0.385,-1.13,11041.666666666666
-0.335,-0.98,11044.444444444445
-0.225,-0.805,11047.222222222223
-0.065,-0.63,11050.0
0.105,-0.415,11052.777777777777
0.185,-0.16,11055.555555555555
0.18,0.1,11058.333333333334
0.005,0.325,11061.111111111111
-0.345,0.475,11063.888888888889
-0.765,0.475,11066.666666666666
-1.205,0.335,11069.444444444445
-1.575,0.1,11072.222222222223
-1.835,-0.16,11075.0
-1.975,-0.395,11077.777777777777
-2.05,-0.56,11080.555555555555
-2.09,-0.655,11083.333333333334
-2.11,-0.705,11086.111111111111
-2.145,-0.755,11088.888888888889
-2.18,-0.8,11091.666666666666
-2.19,-0.835,11094.444444444445
-2.215,-0.865,11097.222222222223
-2.205,-0.87,11100.0
-2.175,-0.86,11102.777777777777
-2.16,-0.845,11105.555555555555
-2.145,-0.82,11108.333333333334
-2.115,-0.82,11111.111111111111
-2.085,-0.835,11113.888888888889
-2.055,-0.835,11116.666666666666
-2.025,-0.835,11119.444444444445
