MLII,V1,time_ms
-0.995,-0.47,0.0
-0.995,-0.47,2.7777777777777777
-0.995,-0.47,5.555555555555555
-0.995,-0.47,8.333333333333334
-0.995,-0.47,11.11111111111111
-0.995,-0.47,13.88888888888889
-0.995,-0.47,16.666666666666668
-1.015,-0.47,19.444444444444443
-0.985,-0.455,22.22222222222222
-0.985,-0.45,25.0
-0.97,-0.445,27.77777777777778
-0.975,-0.41,30.555555555555557
-0.97,-0.425,33.333333333333336
-0.99,-0.415,36.111111111111114
-1.0,-0.42,38.888888888888886
-1.02,-0.425,41.666666666666664
-1.025,-0.445,44.44444444444444
-1.03,-0.45,47.22222222222222
-1.045,-0.455,50.0
-1.025,-0.445,52.77777777777778
-1.035,-0.425,55.55555555555556
-1.015,-0.405,58.333333333333336
-1.015,-0.4,61.111111111111114
-0.995,-0.385,63.888888888888886
-0.99,-0.38,66.66666666666667
-0.99,-0.385,69.44444444444444
-0.995,-0.385,72.22222222222223
-1.005,-0.405,75.0
-1.005,-0.4,77.77777777777777
-1.015,-0.415,80.55555555555556
-1.01,-0.41,83.33333333333333
-0.99,-0.405,86.11111111111111
-1.02,-0.4,88.88888888888889
-1.01,-0.38,91.66666666666667
-1.015,-0.39,94.44444444444444
-1.0,-0.37,97.22222222222223
-0.99,-0.375,100.0
-0.995,-0.385,102.77777777777777
-1.01,-0.395,105.55555555555556
-1.005,-0.415,108.33333333333333
-1.015,-0.42,111.11111111111111
-0.995,-0.41,113.88888888888889
-1.005,-0.415,116.66666666666667
-1.005,-0.42,119.44444444444444
-0.985,-0.41,122.22222222222223
-0.985,-0.37,125.0
-0.98,-0.365,127.77777777777777
-0.96,-0.35,130.55555555555554
-0.94,-0.37,133.33333333333334
-0.96,-0.37,136.11111111111111
-0.94,-0.385,138.88888888888889
-0.945,-0.38,141.66666666666666
-0.945,-0.39,144.44444444444446
-0.94,-0.385,147.22222222222223
-0.95,-0.405,150.0
-0.935,-0.38,152.77777777777777
-0.915,-0.385,155.55555555555554
-0.905,-0.37,158.33333333333334
-0.89,-0.37,161.11111111111111
-0.875,-0.36,163.88888888888889
-0.86,-0.38,166.66666666666666
-0.865,-0.385,169.44444444444446
-0.86,-0.385,172.22222222222223
-0.845,-0.38,175.0
-0.85,-0.41,177.77777777777777
-0.85,-0.385,180.55555555555554
-0.84,-0.375,183.33333333333334
-0.82,-0.39,186.11111111111111
-0.805,-0.365,188.88888888888889
-0.775,-0.35,191.66666666666666
-0.755,-0.35,194.44444444444446
-0.725,-0.325,197.22222222222223
-0.705,-0.335,200.0
-0.685,-0.33,202.77777777777777
-0.67,-0.355,205.55555555555554
-0.67,-0.365,208.33333333333334
-0.66,-0.365,211.11111111111111
-0.65,-0.365,213.88888888888889
-0.63,-0.375,216.66666666666666
-0.605,-0.385,219.44444444444446
-0.6,-0.38,222.22222222222223
-0.56,-0.365,225.0
-0.53,-0.35,227.77777777777777
-0.52,-0.355,230.55555555555554
-0.495,-0.36,233.33333333333334
-0.475,-0.36,236.11111111111111
-0.47,-0.37,238.88888888888889
-0.45,-0.4,241.66666666666666
-0.45,-0.405,244.44444444444446
-0.445,-0.4,247.22222222222223
-0.435,-0.41,250.0
-0.425,-0.4,252.77777777777777
-0.415,-0.4,255.55555555555554
-0.385,-0.38,258.3333333333333
-0.37,-0.38,261.1111111111111
-0.365,-0.365,263.8888888888889
-0.365,-0.36,266.6666666666667
-0.35,-0.385,269.44444444444446
-0.37,-0.395,272.22222222222223
-0.395,-0.405,275.0
-0.42,-0.415,277.77777777777777
-0.445,-0.41,280.55555555555554
-0.47,-0.41,283.3333333333333
-0.49,-0.405,286.1111111111111
-0.525,-0.38,288.8888888888889
-0.55,-0.38,291.6666666666667
-0.555,-0.375,294.44444444444446
-0.59,-0.385,297.22222222222223
-0.615,-0.37,300.0
-0.65,-0.36,302.77777777777777
-0.685,-0.37,305.55555555555554
-0.74,-0.365,308.3333333333333
-0.765,-0.4,311.1111111111111
-0.8,-0.4,313.8888888888889
-0.83,-0.4,316.6666666666667
-0.845,-0.39,319.44444444444446
-0.85,-0.37,322.22222222222223
-0.865,-0.375,325.0
-0.875,-0.365,327.77777777777777
-0.87,-0.37,330.55555555555554
-0.865,-0.385,333.3333333333333
-0.87,-0.385,336.1111111111111
-0.89,-0.385,338.8888888888889
-0.905,-0.395,341.6666666666667
-0.925,-0.405,344.44444444444446
-0.93,-0.43,347.22222222222223
-0.945,-0.425,350.0
-0.95,-0.43,352.77777777777777
-0.935,-0.415,355.55555555555554
-0.93,-0.405,358.3333333333333
-0.93,-0.405,361.1111111111111
-0.925,-0.395,363.8888888888889
-0.93,-0.395,366.6666666666667
-0.935,-0.395,369.44444444444446
-0.94,-0.405,372.22222222222223
-0.93,-0.415,375.0
-0.95,-0.42,377.77777777777777
-0.935,-0.435,380.55555555555554
-0.95,-0.425,383.3333333333333
-0.955,-0.41,386.1111111111111
-0.96,-0.415,388.8888888888889
-0.945,-0.41,391.6666666666667
-0.92,-0.38,394.44444444444446
-0.915,-0.375,397.22222222222223
-0.905,-0.395,400.0
-0.92,-0.39,402.77777777777777
-0.915,-0.4,405.55555555555554
-0.93,-0.405,408.3333333333333
-0.935,-0.415,411.1111111111111
-0.945,-0.415,413.8888888888889
-0.92,-0.43,416.6666666666667
-0.915,-0.43,419.44444444444446
-0.905,-0.415,422.22222222222223
-0.9,-0.42,425.0
-0.905,-0.405,427.77777777777777
-0.88,-0.39,430.55555555555554
-0.875,-0.405,433.3333333333333
-0.87,-0.39,436.1111111111111
-0.87,-0.395,438.8888888888889
-0.88,-0.405,441.6666666666667
-0.88,-0.42,444.44444444444446
-0.905,-0.42,447.22222222222223
-0.9,-0.43,450.0
-0.91,-0.435,452.77777777777777
-0.9,-0.425,455.55555555555554
-0.885,-0.41,458.3333333333333
-0.865,-0.415,461.1111111111111
-0.85,-0.4,463.8888888888889
-0.85,-0.415,466.6666666666667
-0.845,-0.42,469.44444444444446
-0.855,-0.425,472.22222222222223
-0.865,-0.425,475.0
-0.875,-0.425,477.77777777777777
-0.89,-0.44,480.55555555555554
-0.895,-0.445,483.3333333333333
-0.895,-0.45,486.1111111111111
-0.89,-0.43,488.8888888888889
-0.885,-0.435,491.6666666666667
-0.875,-0.41,494.44444444444446
-0.875,-0.405,497.22222222222223
-0.86,-0.4,500.0
-0.87,-0.405,502.77777777777777
-0.88,-0.41,505.55555555555554
-0.89,-0.42,508.3333333333333
-0.9,-0.435,511.1111111111111
-0.915,-0.425,513.8888888888889
-0.93,-0.43,516.6666666666666
-0.93,-0.43,519.4444444444445
-0.905,-0.425,522.2222222222222
-0.92,-0.43,525.0
-0.88,-0.415,527.7777777777778
-0.89,-0.41,530.5555555555555
-0.885,-0.405,533.3333333333334
-0.905,-0.42,536.1111111111111
-0.885,-0.425,538.8888888888889
-0.91,-0.445,541.6666666666666
-0.9,-0.45,544.4444444444445
-0.92,-0.455,547.2222222222222
-0.925,-0.45,550.0
-0.92,-0.43,552.7777777777778
-0.925,-0.425,555.5555555555555
-0.92,-0.425,558.3333333333334
-0.92,-0.39,561.1111111111111
-0.905,-0.39,563.8888888888889
-0.9,-0.4,566.6666666666666
-0.915,-0.41,569.4444444444445
-0.92,-0.41,572.2222222222222
-0.935,-0.43,575.0
-0.945,-0.445,577.7777777777778
-0.94,-0.44,580.5555555555555
-0.965,-0.45,583.3333333333334
-0.95,-0.445,586.1111111111111
-0.96,-0.445,588.8888888888889
-0.94,-0.425,591.6666666666666
-0.94,-0.425,594.4444444444445
-0.925,-0.42,597.2222222222222
-0.91,-0.425,600.0
-0.915,-0.41,602.7777777777778
-0.92,-0.425,605.5555555555555
-0.915,-0.44,608.3333333333334
-0.92,-0.445,611.1111111111111
-0.93,-0.45,613.8888888888889
-0.94,-0.46,616.6666666666666
-0.94,-0.45,619.4444444444445
-0.935,-0.43,622.2222222222222
-0.915,-0.415,625.0
-0.915,-0.42,627.7777777777778
-0.905,-0.395,630.5555555555555
-0.895,-0.415,633.3333333333334
-0.905,-0.41,636.1111111111111
-0.9,-0.425,638.8888888888889
-0.91,-0.435,641.6666666666666
-0.91,-0.425,644.4444444444445
-0.91,-0.445,647.2222222222222
-0.925,-0.445,650.0
-0.91,-0.425,652.7777777777778
-0.89,-0.415,655.5555555555555
-0.865,-0.4,658.3333333333334
-0.845,-0.395,661.1111111111111
-0.82,-0.365,663.8888888888889
-0.8,-0.37,666.6666666666666
-0.79,-0.365,669.4444444444445
-0.77,-0.37,672.2222222222222
-0.77,-0.37,675.0
-0.755,-0.37,677.7777777777778
-0.745,-0.34,680.5555555555555
-0.72,-0.355,683.3333333333334
-0.675,-0.34,686.1111111111111
-0.64,-0.345,688.8888888888889
-0.605,-0.325,691.6666666666666
-0.58,-0.35,694.4444444444445
-0.55,-0.345,697.2222222222222
-0.56,-0.39,700.0
-0.575,-0.41,702.7777777777778
-0.61,-0.45,705.5555555555555
-0.605,-0.465,708.3333333333334
-0.625,-0.47,711.1111111111111
-0.655,-0.465,713.8888888888889
-0.665,-0.48,716.6666666666666
-0.705,-0.48,719.4444444444445
-0.745,-0.48,722.2222222222222
-0.78,-0.48,725.0
-0.85,-0.455,727.7777777777778
-0.875,-0.455,730.5555555555555
-0.91,-0.455,733.3333333333334
-0.91,-0.44,736.1111111111111
-0.925,-0.455,738.8888888888889
-0.935,-0.47,741.6666666666666
-0.95,-0.465,744.4444444444445
-0.945,-0.475,747.2222222222222
-0.95,-0.49,750.0
-0.955,-0.48,752.7777777777778
-0.96,-0.48,755.5555555555555
-0.96,-0.475,758.3333333333334
-0.945,-0.465,761.1111111111111
-0.935,-0.45,763.8888888888889
-0.94,-0.475,766.6666666666666
-0.945,-0.46,769.4444444444445
-0.95,-0.47,772.2222222222222
-0.955,-0.495,775.0
-0.965,-0.48,777.7777777777778
-0.98,-0.49,780.5555555555555
-0.97,-0.505,783.3333333333334
-0.975,-0.5,786.1111111111111
-0.975,-0.505,788.8888888888889
-0.95,-0.49,791.6666666666666
-0.955,-0.485,794.4444444444445
-0.945,-0.465,797.2222222222222
-0.93,-0.45,800.0
-0.945,-0.46,802.7777777777778
-0.97,-0.47,805.5555555555555
-0.955,-0.46,808.3333333333334
-0.95,-0.475,811.1111111111111
-0.955,-0.485,813.8888888888889
-0.965,-0.475,816.6666666666666
-0.975,-0.47,819.4444444444445
-0.99,-0.455,822.2222222222222
-1.005,-0.425,825.0
-1.0,-0.4,827.7777777777778
-0.97,-0.335,830.5555555555555
-0.89,-0.275,833.3333333333334
-0.755,-0.245,836.1111111111111
-0.57,-0.225,838.8888888888889
-0.335,-0.26,841.6666666666666
-0.04,-0.355,844.4444444444445
0.32,-0.5,847.2222222222222
0.665,-0.675,850.0
0.945,-0.905,852.7777777777778
1.115,-1.125,855.5555555555555
1.205,-1.335,858.3333333333334
1.175,-1.475,861.1111111111111
1.04,-1.53,863.8888888888889
0.82,-1.545,866.6666666666666
0.45,-1.505,869.4444444444445
-0.03,-1.445,872.2222222222222
-0.535,-1.385,875.0
-0.905,-1.29,877.7777777777778
-1.085,-1.195,880.5555555555555
-1.07,-1.09,883.3333333333334
-0.965,-0.99,886.1111111111111
-0.83,-0.89,888.8888888888889
-0.735,-0.79,891.6666666666666
-0.69,-0.72,894.4444444444445
-0.71,-0.65,897.2222222222222
-0.755,-0.595,900.0
-0.825,-0.56,902.7777777777778
-0.88,-0.51,905.5555555555555
-0.92,-0.495,908.3333333333334
-0.955,-0.495,911.1111111111111
-0.955,-0.49,913.8888888888889
-0.965,-0.485,916.6666666666666
-0.955,-0.47,919.4444444444445
-0.94,-0.455,922.2222222222222
-0.935,-0.445,925.0
-0.945,-0.42,927.7777777777778
-0.93,-0.405,930.5555555555555
-0.96,-0.4,933.3333333333334
-0.945,-0.395,936.1111111111111
-0.965,-0.4,938.8888888888889
-0.97,-0.4,941.6666666666666
-0.97,-0.41,944.4444444444445
-0.98,-0.41,947.2222222222222
-0.98,-0.425,950.0
-0.985,-0.405,952.7777777777778
-0.98,-0.405,955.5555555555555
-0.98,-0.405,958.3333333333334
-0.97,-0.385,961.1111111111111
-0.965,-0.385,963.8888888888889
-0.975,-0.39,966.6666666666666
-0.97,-0.385,969.4444444444445
-0.98,-0.39,972.2222222222222
-0.975,-0.395,975.0
-0.985,-0.405,977.7777777777778
-1.0,-0.4,980.5555555555555
-1.015,-0.41,983.3333333333334
-0.99,-0.41,986.1111111111111
-0.97,-0.39,988.8888888888889
-0.97,-0.38,991.6666666666666
-0.96,-0.37,994.4444444444445
-0.96,-0.35,997.2222222222222
-0.94,-0.355,1000.0
-0.95,-0.35,1002.7777777777778
-0.95,-0.355,1005.5555555555555
-0.975,-0.365,1008.3333333333334
-0.97,-0.38,1011.1111111111111
-0.965,-0.38,1013.8888888888889
-0.95,-0.4,1016.6666666666666
-0.96,-0.39,1019.4444444444445
-0.955,-0.39,1022.2222222222222
-0.93,-0.385,1025.0
-0.935,-0.36,1027.7777777777778
-0.915,-0.355,1030.5555555555557
-0.905,-0.365,1033.3333333333333
-0.905,-0.375,1036.111111111111
-0.9,-0.385,1038.888888888889
-0.91,-0.395,1041.6666666666667
-0.91,-0.395,1044.4444444444443
-0.92,-0.41,1047.2222222222222
-0.9,-0.395,1050.0
-0.895,-0.405,1052.7777777777778
-0.885,-0.375,1055.5555555555557
-0.885,-0.36,1058.3333333333333
-0.865,-0.36,1061.111111111111
-0.835,-0.335,1063.888888888889
-0.825,-0.335,1066.6666666666667
-0.82,-0.345,1069.4444444444443
-0.81,-0.36,1072.2222222222222
-0.815,-0.355,1075.0
-0.805,-0.355,1077.7777777777778
-0.81,-0.36,1080.5555555555557
-0.8,-0.35,1083.3333333333333
-0.78,-0.345,1086.111111111111
-0.775,-0.32,1088.888888888889
-0.745,-0.345,1091.6666666666667
-0.725,-0.325,1094.4444444444443
-0.685,-0.32,1097.2222222222222
-0.665,-0.315,1100.0
-0.65,-0.325,1102.7777777777778
-0.65,-0.33,1105.5555555555557
-0.65,-0.335,1108.3333333333333
-0.65,-0.325,1111.111111111111
-0.61,-0.335,1113.888888888889
-0.59,-0.355,1116.6666666666667
-0.555,-0.34,1119.4444444444443
-0.535,-0.32,1122.2222222222222
-0.5,-0.325,1125.0
-0.485,-0.315,1127.7777777777778
-0.455,-0.31,1130.5555555555557
-0.43,-0.32,1133.3333333333333
-0.405,-0.305,1136.111111111111
-0.405,-0.34,1138.888888888889
-0.395,-0.345,1141.6666666666667
-0.395,-0.355,1144.4444444444443
-0.385,-0.365,1147.2222222222222
-0.375,-0.365,1150.0
-0.37,-0.38,1152.7777777777778
-0.36,-0.37,1155.5555555555557
-0.34,-0.36,1158.3333333333333
-0.335,-0.36,1161.111111111111
-0.305,-0.345,1163.888888888889
-0.31,-0.365,1166.6666666666667
-0.345,-0.37,1169.4444444444443
-0.365,-0.365,1172.2222222222222
-0.38,-0.37,1175.0
-0.405,-0.375,1177.7777777777778
-0.425,-0.38,1180.5555555555557
-0.455,-0.375,1183.3333333333333
-0.485,-0.36,1186.111111111111
-0.515,-0.365,1188.888888888889
-0.535,-0.35,1191.6666666666667
-0.545,-0.33,1194.4444444444443
-0.58,-0.34,1197.2222222222222
-0.585,-0.325,1200.0
-0.625,-0.325,1202.7777777777778
-0.645,-0.35,1205.5555555555557
-0.685,-0.355,1208.3333333333333
-0.72,-0.375,1211.111111111111
-0.735,-0.38,1213.888888888889
-0.765,-0.385,1216.6666666666667
-0.785,-0.375,1219.4444444444443
-0.8,-0.38,1222.2222222222222
-0.805,-0.37,1225.0
-0.805,-0.37,1227.7777777777778
-0.805,-0.375,1230.5555555555557
-0.83,-0.38,1233.3333333333333
-0.825,-0.375,1236.111111111111
-0.84,-0.385,1238.888888888889
-0.87,-0.4,1241.6666666666667
-0.875,-0.395,1244.4444444444443
-0.89,-0.39,1247.2222222222222
-0.895,-0.415,1250.0
-0.89,-0.395,1252.7777777777778
-0.91,-0.395,1255.5555555555557
-0.9,-0.39,1258.3333333333333
-0.9,-0.395,1261.111111111111
-0.905,-0.385,1263.888888888889
-0.89,-0.375,1266.6666666666667
-0.91,-0.385,1269.4444444444443
-0.9,-0.385,1272.2222222222222
-0.91,-0.405,1275.0
-0.915,-0.415,1277.7777777777778
-0.915,-0.405,1280.5555555555557
-0.93,-0.415,1283.3333333333333
-0.925,-0.43,1286.111111111111
-0.91,-0.405,1288.888888888889
-0.895,-0.4,1291.6666666666667
-0.89,-0.395,1294.4444444444443
-0.87,-0.375,1297.2222222222222
-0.865,-0.38,1300.0
-0.87,-0.39,1302.7777777777778
-0.875,-0.4,1305.5555555555557
-0.885,-0.395,1308.3333333333333
-0.89,-0.41,1311.111111111111
-0.89,-0.405,1313.888888888889
-0.87,-0.415,1316.6666666666667
-0.855,-0.395,1319.4444444444443
-0.865,-0.38,1322.2222222222222
-0.85,-0.37,1325.0
-0.855,-0.35,1327.7777777777778
-0.855,-0.35,1330.5555555555557
-0.85,-0.345,1333.3333333333333
-0.855,-0.335,1336.111111111111
-0.85,-0.325,1338.888888888889
-0.86,-0.315,1341.6666666666667
-0.85,-0.295,1344.4444444444443
-0.83,-0.28,1347.2222222222222
-0.77,-0.23,1350.0
-0.685,-0.195,1352.7777777777778
-0.55,-0.175,1355.5555555555557
-0.41,-0.2,1358.3333333333333
-0.245,-0.275,1361.111111111111
-0.1,-0.41,1363.888888888889
0.075,-0.56,1366.6666666666667
0.235,-0.71,1369.4444444444443
0.445,-0.88,1372.2222222222222
0.63,-1.045,1375.0
0.835,-1.22,1377.7777777777778
1.06,-1.445,1380.5555555555557
1.26,-1.67,1383.3333333333333
1.44,-1.87,1386.111111111111
1.61,-2.065,1388.888888888889
1.735,-2.19,1391.6666666666667
1.825,-2.245,1394.4444444444443
1.885,-2.285,1397.2222222222222
1.91,-2.295,1400.0
1.905,-2.31,1402.7777777777778
1.875,-2.305,1405.5555555555557
1.825,-2.305,1408.3333333333333
1.76,-2.305,1411.111111111111
1.675,-2.285,1413.888888888889
1.575,-2.225,1416.6666666666667
1.53,-2.15,1419.4444444444443
1.51,-2.035,1422.2222222222222
1.55,-1.94,1425.0
1.56,-1.845,1427.7777777777778
1.54,-1.745,1430.5555555555557
1.535,-1.665,1433.3333333333333
1.445,-1.575,1436.111111111111
1.335,-1.475,1438.888888888889
1.2,-1.41,1441.6666666666667
1.065,-1.345,1444.4444444444443
0.89,-1.285,1447.2222222222222
0.71,-1.2,1450.0
0.48,-1.125,1452.7777777777778
0.18,-1.03,1455.5555555555557
-0.175,-0.935,1458.3333333333333
-0.52,-0.86,1461.111111111111
-0.81,-0.755,1463.888888888889
-0.975,-0.63,1466.6666666666667
-1.045,-0.53,1469.4444444444443
-1.065,-0.44,1472.2222222222222
-1.05,-0.375,1475.0
-1.05,-0.35,1477.7777777777778
-1.065,-0.36,1480.5555555555557
-1.11,-0.35,1483.3333333333333
-1.155,-0.345,1486.111111111111
-1.22,-0.31,1488.888888888889
-1.245,-0.29,1491.6666666666667
-1.27,-0.245,1494.4444444444443
-1.27,-0.225,1497.2222222222222
-1.28,-0.185,1500.0
-1.3,-0.175,1502.7777777777778
-1.32,-0.19,1505.5555555555557
-1.33,-0.17,1508.3333333333333
-1.365,-0.19,1511.111111111111
-1.37,-0.185,1513.888888888889
-1.39,-0.175,1516.6666666666667
-1.415,-0.175,1519.4444444444443
-1.405,-0.155,1522.2222222222222
-1.425,-0.145,1525.0
-1.425,-0.11,1527.7777777777778
-1.445,-0.095,1530.5555555555557
-1.435,-0.1,1533.3333333333333
-1.445,-0.1,1536.111111111111
-1.48,-0.085,1538.888888888889
-1.49,-0.1,1541.6666666666667
-1.505,-0.095,1544.4444444444443
-1.54,-0.085,1547.2222222222222
-1.535,-0.08,1550.0
-1.555,-0.065,1552.7777777777778
-1.545,-0.055,1555.5555555555557
-1.565,-0.02,1558.3333333333333
-1.565,-0.01,1561.111111111111
-1.57,0.03,1563.888888888889
-1.57,0.04,1566.6666666666667
-1.575,0.065,1569.4444444444443
-1.585,0.07,1572.2222222222222
-1.585,0.085,1575.0
-1.59,0.095,1577.7777777777778
-1.6,0.095,1580.5555555555557
-1.615,0.105,1583.3333333333333
-1.62,0.15,1586.111111111111
-1.63,0.175,1588.888888888889
-1.63,0.205,1591.6666666666667
-1.645,0.22,1594.4444444444443
-1.615,0.255,1597.2222222222222
-1.61,0.29,1600.0
-1.62,0.295,1602.7777777777778
-1.615,0.31,1605.5555555555557
-1.61,0.295,1608.3333333333333
-1.605,0.3,1611.111111111111
-1.63,0.295,1613.888888888889
-1.64,0.285,1616.6666666666667
-1.675,0.3,1619.4444444444443
-1.7,0.305,1622.2222222222222
-1.725,0.31,1625.0
-1.745,0.33,1627.7777777777778
-1.755,0.355,1630.5555555555557
-1.78,0.39,1633.3333333333333
-1.815,0.425,1636.111111111111
-1.885,0.445,1638.888888888889
-1.92,0.425,1641.6666666666667
-1.985,0.45,1644.4444444444443
-2.055,0.445,1647.2222222222222
-2.12,0.465,1650.0
-2.18,0.5,1652.7777777777778
-2.225,0.515,1655.5555555555557
-2.25,0.53,1658.3333333333333
-2.27,0.575,1661.111111111111
-2.295,0.565,1663.888888888889
-2.3,0.58,1666.6666666666667
-2.305,0.555,1669.4444444444443
-2.31,0.53,1672.2222222222222
-2.315,0.515,1675.0
-2.305,0.5,1677.7777777777778
-2.295,0.485,1680.5555555555557
-2.285,0.475,1683.3333333333333
-2.285,0.455,1686.111111111111
-2.25,0.445,1688.888888888889
-2.22,0.435,1691.6666666666667
-2.18,0.405,1694.4444444444443
-2.145,0.4,1697.2222222222222
-2.125,0.35,1700.0
-2.095,0.325,1702.7777777777778
-2.05,0.285,1705.5555555555557
-2.015,0.24,1708.3333333333333
-1.995,0.205,1711.111111111111
-1.94,0.155,1713.888888888889
-1.88,0.115,1716.6666666666667
-1.825,0.07,1719.4444444444443
-1.77,0.05,1722.2222222222222
-1.7,0.03,1725.0
-1.63,-0.01,1727.7777777777778
-1.575,-0.03,1730.5555555555557
-1.515,-0.075,1733.3333333333333
-1.485,-0.105,1736.111111111111
-1.45,-0.14,1738.888888888889
-1.42,-0.17,1741.6666666666667
-1.4,-0.22,1744.4444444444443
-1.37,-0.23,1747.2222222222222
-1.33,-0.26,1750.0
-1.31,-0.275,1752.7777777777778
-1.285,-0.295,1755.5555555555557
-1.255,-0.28,1758.3333333333333
-1.23,-0.295,1761.111111111111
-1.23,-0.29,1763.888888888889
-1.195,-0.3,1766.6666666666667
-1.195,-0.305,1769.4444444444443
-1.195,-0.315,1772.2222222222222
-1.21,-0.32,1775.0
-1.22,-0.35,1777.7777777777778
-1.235,-0.355,1780.5555555555557
-1.23,-0.37,1783.3333333333333
-1.22,-0.36,1786.111111111111
-1.225,-0.355,1788.888888888889
-1.215,-0.345,1791.6666666666667
-1.21,-0.345,1794.4444444444443
-1.175,-0.32,1797.2222222222222
-1.18,-0.32,1800.0
-1.185,-0.33,1802.7777777777778
-1.21,-0.315,1805.5555555555557
-1.19,-0.335,1808.3333333333333
-1.2,-0.34,1811.111111111111
-1.205,-0.345,1813.888888888889
-1.21,-0.345,1816.6666666666667
-1.21,-0.355,1819.4444444444443
-1.21,-0.34,1822.2222222222222
-1.205,-0.34,1825.0
-1.185,-0.325,1827.7777777777778
-1.195,-0.315,1830.5555555555557
-1.16,-0.31,1833.3333333333333
-1.175,-0.315,1836.111111111111
-1.165,-0.32,1838.888888888889
-1.17,-0.325,1841.6666666666667
-1.17,-0.33,1844.4444444444443
-1.175,-0.355,1847.2222222222222
-1.175,-0.36,1850.0
-1.165,-0.355,1852.7777777777778
-1.175,-0.345,1855.5555555555557
-1.155,-0.335,1858.3333333333333
-1.145,-0.335,1861.111111111111
-1.16,-0.32,1863.888888888889
-1.15,-0.305,1866.6666666666667
-1.14,-0.315,1869.4444444444443
-1.155,-0.33,1872.2222222222222
-1.155,-0.335,1875.0
-1.15,-0.325,1877.7777777777778
-1.14,-0.355,1880.5555555555557
-1.145,-0.335,1883.3333333333333
-1.155,-0.355,1886.111111111111
-1.16,-0.34,1888.888888888889
-1.135,-0.325,1891.6666666666667
-1.135,-0.325,1894.4444444444443
-1.12,-0.315,1897.2222222222222
-1.125,-0.32,1900.0
-1.13,-0.33,1902.7777777777778
-1.125,-0.325,1905.5555555555557
-1.13,-0.36,1908.3333333333333
-1.135,-0.365,1911.111111111111
-1.145,-0.365,1913.888888888889
-1.15,-0.36,1916.6666666666667
-1.145,-0.375,1919.4444444444443
-1.135,-0.37,1922.2222222222222
-1.125,-0.35,1925.0
-1.12,-0.345,1927.7777777777778
-1.1,-0.33,1930.5555555555557
-1.095,-0.335,1933.3333333333333
-1.1,-0.34,1936.111111111111
-1.1,-0.35,1938.888888888889
-1.11,-0.36,1941.6666666666667
-1.12,-0.355,1944.4444444444443
-1.135,-0.385,1947.2222222222222
-1.135,-0.385,1950.0
-1.135,-0.395,1952.7777777777778
-1.125,-0.385,1955.5555555555557
-1.125,-0.375,1958.3333333333333
-1.095,-0.375,1961.111111111111
-1.11,-0.355,1963.888888888889
-1.095,-0.365,1966.6666666666667
-1.12,-0.38,1969.4444444444443
-1.14,-0.385,1972.2222222222222
-1.115,-0.39,1975.0
-1.13,-0.39,1977.7777777777778
-1.1,-0.4,1980.5555555555557
-1.12,-0.405,1983.3333333333333
-1.13,-0.405,1986.111111111111
-1.13,-0.39,1988.888888888889
-1.12,-0.385,1991.6666666666667
-1.11,-0.38,1994.4444444444443
-1.1,-0.375,1997.2222222222222
-1.09,-0.38,2000.0
-1.1,-0.37,2002.7777777777778
-1.095,-0.38,2005.5555555555557
-1.095,-0.395,2008.3333333333333
-1.1,-0.395,2011.111111111111
-1.125,-0.42,2013.888888888889
-1.12,-0.405,2016.6666666666667
-1.13,-0.415,2019.4444444444443
-1.115,-0.41,2022.2222222222222
-1.105,-0.4,2025.0
-1.1,-0.4,2027.7777777777778
-1.085,-0.39,2030.5555555555557
-1.075,-0.39,2033.3333333333333
-1.085,-0.42,2036.111111111111
-1.09,-0.4,2038.888888888889
-1.085,-0.415,2041.6666666666667
-1.09,-0.435,2044.4444444444443
-1.1,-0.425,2047.2222222222222
-1.09,-0.425,2050.0
-1.095,-0.425,2052.777777777778
-1.1,-0.4,2055.5555555555557
-1.08,-0.405,2058.3333333333335
-1.08,-0.4,2061.1111111111113
-1.085,-0.4,2063.8888888888887
-1.07,-0.39,2066.6666666666665
-1.08,-0.39,2069.4444444444443
-1.085,-0.415,2072.222222222222
-1.075,-0.42,2075.0
-1.07,-0.405,2077.777777777778
-1.08,-0.425,2080.5555555555557
-1.09,-0.43,2083.3333333333335
-1.085,-0.435,2086.1111111111113
-1.08,-0.425,2088.8888888888887
-1.075,-0.425,2091.6666666666665
-1.07,-0.41,2094.4444444444443
-1.065,-0.405,2097.222222222222
-1.055,-0.415,2100.0
-1.05,-0.405,2102.777777777778
-1.05,-0.415,2105.5555555555557
-1.06,-0.42,2108.3333333333335
-1.065,-0.42,2111.1111111111113
-1.075,-0.43,2113.8888888888887
-1.085,-0.43,2116.6666666666665
-1.085,-0.43,2119.4444444444443
-1.075,-0.43,2122.222222222222
-1.08,-0.41,2125.0
-1.075,-0.4,2127.777777777778
-1.075,-0.39,2130.5555555555557
-1.06,-0.39,2133.3333333333335
-1.06,-0.4,2136.1111111111113
-1.05,-0.4,2138.8888888888887
-1.055,-0.415,2141.6666666666665
-1.06,-0.42,2144.4444444444443
-1.07,-0.435,2147.222222222222
-1.075,-0.44,2150.0
-1.065,-0.45,2152.777777777778
-1.07,-0.435,2155.5555555555557
-1.07,-0.44,2158.3333333333335
-1.055,-0.42,2161.1111111111113
-1.05,-0.41,2163.8888888888887
-1.05,-0.43,2166.6666666666665
-1.045,-0.41,2169.4444444444443
-1.055,-0.41,2172.222222222222
-1.055,-0.425,2175.0
-1.06,-0.43,2177.777777777778
-1.06,-0.425,2180.5555555555557
-1.065,-0.45,2183.3333333333335
-1.07,-0.43,2186.1111111111113
-1.07,-0.445,2188.8888888888887
-1.075,-0.42,2191.6666666666665
-1.065,-0.42,2194.4444444444443
-1.05,-0.41,2197.222222222222
-1.04,-0.42,2200.0
-1.04,-0.42,2202.777777777778
-1.045,-0.43,2205.5555555555557
-1.05,-0.445,2208.3333333333335
-1.055,-0.45,2211.1111111111113
-1.07,-0.475,2213.8888888888887
-1.06,-0.46,2216.6666666666665
-1.08,-0.465,2219.4444444444443
-1.08,-0.47,2222.222222222222
-1.07,-0.465,2225.0
-1.065,-0.43,2227.777777777778
-1.055,-0.425,2230.5555555555557
-1.035,-0.425,2233.3333333333335
-1.04,-0.42,2236.1111111111113
-1.045,-0.43,2238.8888888888887
-1.035,-0.425,2241.6666666666665
-1.05,-0.455,2244.4444444444443
-1.055,-0.47,2247.222222222222
-1.06,-0.475,2250.0
-1.055,-0.47,2252.777777777778
-1.065,-0.465,2255.5555555555557
-1.05,-0.455,2258.3333333333335
-1.065,-0.45,2261.1111111111113
-1.055,-0.46,2263.8888888888887
-1.035,-0.435,2266.6666666666665
-1.045,-0.44,2269.4444444444443
-1.045,-0.44,2272.222222222222
-1.035,-0.46,2275.0
-1.04,-0.46,2277.777777777778
-1.04,-0.485,2280.5555555555557
-1.045,-0.495,2283.3333333333335
-1.045,-0.49,2286.1111111111113
-1.04,-0.465,2288.8888888888887
-1.045,-0.45,2291.6666666666665
-1.025,-0.43,2294.4444444444443
-1.01,-0.425,2297.222222222222
-1.005,-0.415,2300.0
-1.02,-0.43,2302.777777777778
-1.015,-0.41,2305.5555555555557
-1.025,-0.44,2308.3333333333335
-1.03,-0.455,2311.1111111111113
-1.05,-0.47,2313.8888888888887
-1.055,-0.465,2316.6666666666665
-1.065,-0.455,2319.4444444444443
-1.045,-0.445,2322.222222222222
-1.02,-0.45,2325.0
-1.035,-0.435,2327.777777777778
-1.025,-0.42,2330.5555555555557
-1.015,-0.43,2333.3333333333335
-1.03,-0.45,2336.1111111111113
-1.005,-0.43,2338.8888888888887
-1.02,-0.45,2341.6666666666665
-1.025,-0.45,2344.4444444444443
-1.03,-0.475,2347.222222222222
-1.03,-0.47,2350.0
-1.04,-0.465,2352.777777777778
-1.035,-0.435,2355.5555555555557
-1.035,-0.445,2358.3333333333335
-1.015,-0.435,2361.1111111111113
-1.03,-0.405,2363.8888888888887
-1.0,-0.415,2366.6666666666665
-0.995,-0.42,2369.4444444444443
-0.995,-0.42,2372.222222222222
-1.005,-0.445,2375.0
-1.01,-0.445,2377.777777777778
-1.035,-0.455,2380.5555555555557
-1.04,-0.45,2383.3333333333335
-1.045,-0.47,2386.1111111111113
-1.035,-0.45,2388.8888888888887
-1.03,-0.455,2391.6666666666665
-1.01,-0.445,2394.4444444444443
-1.015,-0.425,2397.222222222222
-1.0,-0.425,2400.0
-1.0,-0.44,2402.777777777778
-1.005,-0.435,2405.5555555555557
-1.01,-0.445,2408.3333333333335
-1.02,-0.45,2411.1111111111113
-1.02,-0.455,2413.8888888888887
-1.035,-0.47,2416.6666666666665
-1.05,-0.465,2419.4444444444443
-1.045,-0.45,2422.222222222222
-1.05,-0.44,2425.0
-1.045,-0.43,2427.777777777778
-1.03,-0.43,2430.5555555555557
-1.01,-0.41,2433.3333333333335
-1.0,-0.415,2436.1111111111113
-1.01,-0.425,2438.8888888888887
-1.01,-0.44,2441.6666666666665
-1.015,-0.455,2444.4444444444443
-1.025,-0.46,2447.222222222222
-1.045,-0.47,2450.0
-1.045,-0.46,2452.777777777778
-1.04,-0.46,2455.5555555555557
-1.02,-0.45,2458.3333333333335
-1.015,-0.44,2461.1111111111113
-1.015,-0.44,2463.8888888888887
-1.01,-0.45,2466.6666666666665
-1.01,-0.43,2469.4444444444443
-1.0,-0.445,2472.222222222222
-0.995,-0.45,2475.0
-1.01,-0.45,2477.777777777778
-1.015,-0.45,2480.5555555555557
-1.02,-0.46,2483.3333333333335
-1.025,-0.445,2486.1111111111113
-1.02,-0.455,2488.8888888888887
-1.015,-0.43,2491.6666666666665
-1.01,-0.44,2494.4444444444443
-0.985,-0.42,2497.222222222222
-0.98,-0.425,2500.0
-0.985,-0.415,2502.777777777778
-0.99,-0.425,2505.5555555555557
-0.995,-0.45,2508.3333333333335
-1.015,-0.44,2511.1111111111113
-1.015,-0.45,2513.8888888888887
-1.02,-0.47,2516.6666666666665
-1.01,-0.465,2519.4444444444443
-1.015,-0.445,2522.222222222222
-0.99,-0.46,2525.0
-0.985,-0.44,2527.777777777778
-0.97,-0.44,2530.5555555555557
-0.95,-0.435,2533.3333333333335
-0.93,-0.425,2536.1111111111113
-0.93,-0.415,2538.8888888888887
-0.915,-0.42,2541.6666666666665
-0.905,-0.42,2544.4444444444443
-0.895,-0.4,2547.222222222222
-0.875,-0.395,2550.0
-0.86,-0.39,2552.777777777778
-0.865,-0.365,2555.5555555555557
-0.83,-0.35,2558.3333333333335
-0.805,-0.355,2561.1111111111113
-0.78,-0.33,2563.8888888888887
-0.74,-0.33,2566.6666666666665
-0.7,-0.34,2569.4444444444443
-0.665,-0.345,2572.222222222222
-0.63,-0.375,2575.0
-0.625,-0.41,2577.777777777778
-0.655,-0.43,2580.5555555555557
-0.675,-0.465,2583.3333333333335
-0.705,-0.49,2586.1111111111113
-0.7,-0.465,2588.8888888888887
-0.685,-0.485,2591.6666666666665
-0.69,-0.485,2594.4444444444443
-0.705,-0.46,2597.222222222222
-0.72,-0.46,2600.0
-0.77,-0.47,2602.777777777778
-0.82,-0.46,2605.5555555555557
-0.885,-0.46,2608.3333333333335
-0.955,-0.48,2611.1111111111113
-0.995,-0.48,2613.8888888888887
-1.02,-0.485,2616.6666666666665
-1.015,-0.495,2619.4444444444443
-1.02,-0.49,2622.222222222222
-1.02,-0.485,2625.0
-1.015,-0.485,2627.777777777778
-0.985,-0.485,2630.5555555555557
-0.98,-0.49,2633.3333333333335
-1.0,-0.475,2636.1111111111113
-0.995,-0.48,2638.8888888888887
-1.02,-0.495,2641.6666666666665
-1.035,-0.495,2644.4444444444443
-1.03,-0.525,2647.222222222222
-1.035,-0.53,2650.0
-1.03,-0.525,2652.777777777778
-1.03,-0.52,2655.5555555555557
-1.035,-0.505,2658.3333333333335
-1.01,-0.5,2661.1111111111113
-1.0,-0.48,2663.8888888888887
-0.99,-0.465,2666.6666666666665
-0.995,-0.465,2669.4444444444443
-0.995,-0.48,2672.222222222222
-1.015,-0.495,2675.0
-1.025,-0.5,2677.777777777778
-1.06,-0.505,2680.5555555555557
-1.09,-0.485,2683.3333333333335
-1.08,-0.46,2686.1111111111113
-1.045,-0.42,2688.8888888888887
-0.965,-0.35,2691.6666666666665
-0.8,-0.29,2694.4444444444443
-0.575,-0.27,2697.222222222222
-0.27,-0.3,2700.0
0.085,-0.375,2702.777777777778
0.455,-0.525,2705.5555555555557
0.78,-0.725,2708.3333333333335
1.03,-0.97,2711.1111111111113
1.145,-1.2,2713.8888888888887
1.14,-1.38,2716.6666666666665
0.99,-1.46,2719.4444444444443
0.685,-1.485,2722.222222222222
0.24,-1.43,2725.0
-0.3,-1.375,2727.777777777778
-0.755,-1.265,2730.5555555555557
-1.04,-1.17,2733.3333333333335
-1.115,-1.07,2736.1111111111113
-1.035,-0.975,2738.8888888888887
-0.92,-0.9,2741.6666666666665
-0.815,-0.81,2744.4444444444443
-0.77,-0.765,2747.222222222222
-0.79,-0.71,2750.0
-0.87,-0.635,2752.777777777778
-0.915,-0.59,2755.5555555555557
-0.98,-0.535,2758.3333333333335
-1.0,-0.515,2761.1111111111113
-1.005,-0.49,2763.8888888888887
-1.005,-0.485,2766.6666666666665
-1.005,-0.48,2769.4444444444443
-1.015,-0.465,2772.222222222222
-1.02,-0.485,2775.0
-1.04,-0.49,2777.777777777778
-1.03,-0.475,2780.5555555555557
-1.04,-0.455,2783.3333333333335
-1.06,-0.445,2786.1111111111113
-1.045,-0.425,2788.8888888888887
-1.055,-0.41,2791.6666666666665
-1.045,-0.415,2794.4444444444443
-1.05,-0.4,2797.222222222222
-1.045,-0.41,2800.0
-1.03,-0.415,2802.777777777778
-1.025,-0.425,2805.5555555555557
-1.045,-0.43,2808.3333333333335
-1.055,-0.445,2811.1111111111113
-1.065,-0.435,2813.8888888888887
-1.07,-0.445,2816.6666666666665
-1.06,-0.44,2819.4444444444443
-1.055,-0.42,2822.222222222222
-1.055,-0.42,2825.0
-1.05,-0.415,2827.777777777778
-1.045,-0.41,2830.5555555555557
-1.025,-0.42,2833.3333333333335
-1.045,-0.41,2836.1111111111113
-1.065,-0.43,2838.8888888888887
-1.065,-0.425,2841.6666666666665
-1.06,-0.435,2844.4444444444443
-1.07,-0.435,2847.222222222222
-1.08,-0.41,2850.0
-1.07,-0.425,2852.777777777778
-1.06,-0.41,2855.5555555555557
-1.06,-0.405,2858.3333333333335
-1.055,-0.4,2861.1111111111113
-1.035,-0.395,2863.8888888888887
-1.025,-0.395,2866.6666666666665
-1.03,-0.385,2869.4444444444443
-1.025,-0.415,2872.222222222222
-1.04,-0.425,2875.0
-1.035,-0.425,2877.777777777778
-1.045,-0.425,2880.5555555555557
-1.04,-0.42,2883.3333333333335
-1.025,-0.43,2886.1111111111113
-1.025,-0.42,2888.8888888888887
-1.005,-0.41,2891.6666666666665
-1.01,-0.41,2894.4444444444443
-0.995,-0.39,2897.222222222222
-0.99,-0.395,2900.0
-0.985,-0.385,2902.777777777778
-0.975,-0.405,2905.5555555555557
-0.985,-0.405,2908.3333333333335
-0.985,-0.4,2911.1111111111113
-0.985,-0.4,2913.8888888888887
-0.99,-0.4,2916.6666666666665
-0.97,-0.4,2919.4444444444443
-0.96,-0.38,2922.222222222222
-0.95,-0.375,2925.0
-0.915,-0.365,2927.777777777778
-0.91,-0.35,2930.5555555555557
-0.91,-0.35,2933.3333333333335
-0.885,-0.35,2936.1111111111113
-0.885,-0.36,2938.8888888888887
-0.885,-0.35,2941.6666666666665
-0.875,-0.355,2944.4444444444443
-0.865,-0.36,2947.222222222222
-0.86,-0.365,2950.0
-0.85,-0.37,2952.777777777778
-0.835,-0.355,2955.5555555555557
-0.795,-0.335,2958.3333333333335
-0.785,-0.315,2961.1111111111113
-0.765,-0.32,2963.8888888888887
-0.745,-0.31,2966.6666666666665
-0.72,-0.305,2969.4444444444443
-0.71,-0.315,2972.222222222222
-0.695,-0.335,2975.0
-0.69,-0.32,2977.777777777778
-0.675,-0.355,2980.5555555555557
-0.66,-0.325,2983.3333333333335
-0.65,-0.335,2986.1111111111113
-0.62,-0.345,2988.8888888888887
-0.62,-0.315,2991.6666666666665
-0.575,-0.325,2994.4444444444443
-0.545,-0.315,2997.222222222222
-0.545,-0.33,3000.0
-0.535,-0.33,3002.777777777778
-0.52,-0.345,3005.5555555555557
-0.515,-0.38,3008.3333333333335
-0.51,-0.38,3011.1111111111113
-0.505,-0.39,3013.8888888888887
-0.495,-0.39,3016.6666666666665
-0.485,-0.39,3019.4444444444443
-0.47,-0.395,3022.222222222222
-0.46,-0.39,3025.0
-0.455,-0.385,3027.777777777778
-0.45,-0.37,3030.5555555555557
-0.46,-0.375,3033.3333333333335
-0.48,-0.4,3036.1111111111113
-0.5,-0.41,3038.8888888888887
-0.525,-0.405,3041.6666666666665
-0.55,-0.44,3044.4444444444443
-0.57,-0.44,3047.222222222222
-0.595,-0.435,3050.0
-0.615,-0.42,3052.777777777778
-0.63,-0.415,3055.5555555555557
-0.65,-0.405,3058.3333333333335
-0.675,-0.41,3061.1111111111113
-0.695,-0.4,3063.8888888888887
-0.7,-0.405,3066.6666666666665
-0.74,-0.425,3069.4444444444443
-0.765,-0.425,3072.222222222222
-0.78,-0.43,3075.0
-0.81,-0.445,3077.777777777778
-0.81,-0.445,3080.5555555555557
-0.835,-0.43,3083.3333333333335
-0.84,-0.425,3086.1111111111113
-0.85,-0.42,3088.8888888888887
-0.85,-0.42,3091.6666666666665
-0.84,-0.41,3094.4444444444443
-0.835,-0.41,3097.222222222222
-0.84,-0.42,3100.0
-0.85,-0.415,3102.777777777778
-0.855,-0.425,3105.5555555555557
-0.875,-0.43,3108.3333333333335
-0.895,-0.46,3111.1111111111113
-0.91,-0.45,3113.8888888888887
-0.915,-0.465,3116.6666666666665
-0.915,-0.465,3119.4444444444443
-0.905,-0.445,3122.222222222222
-0.89,-0.435,3125.0
-0.87,-0.435,3127.777777777778
-0.88,-0.43,3130.5555555555557
-0.88,-0.435,3133.3333333333335
-0.875,-0.435,3136.1111111111113
-0.885,-0.435,3138.8888888888887
-0.89,-0.445,3141.6666666666665
-0.88,-0.445,3144.4444444444443
-0.895,-0.455,3147.222222222222
-0.9,-0.45,3150.0
-0.895,-0.445,3152.777777777778
-0.885,-0.44,3155.5555555555557
-0.87,-0.44,3158.3333333333335
-0.86,-0.45,3161.1111111111113
-0.85,-0.425,3163.8888888888887
-0.84,-0.44,3166.6666666666665
-0.85,-0.445,3169.4444444444443
-0.865,-0.465,3172.222222222222
-0.85,-0.46,3175.0
-0.86,-0.49,3177.777777777778
-0.855,-0.485,3180.5555555555557
-0.86,-0.485,3183.3333333333335
-0.86,-0.48,3186.1111111111113
-0.87,-0.47,3188.8888888888887
-0.85,-0.46,3191.6666666666665
-0.855,-0.46,3194.4444444444443
-0.845,-0.445,3197.222222222222
-0.84,-0.45,3200.0
-0.865,-0.44,3202.777777777778
-0.86,-0.455,3205.5555555555557
-0.855,-0.46,3208.3333333333335
-0.85,-0.475,3211.1111111111113
-0.855,-0.47,3213.8888888888887
-0.875,-0.47,3216.6666666666665
-0.875,-0.475,3219.4444444444443
-0.875,-0.47,3222.222222222222
-0.86,-0.455,3225.0
-0.845,-0.43,3227.777777777778
-0.84,-0.44,3230.5555555555557
-0.835,-0.43,3233.3333333333335
-0.855,-0.45,3236.1111111111113
-0.865,-0.47,3238.8888888888887
-0.875,-0.485,3241.6666666666665
-0.89,-0.48,3244.4444444444443
-0.9,-0.49,3247.222222222222
-0.89,-0.485,3250.0
-0.895,-0.49,3252.777777777778
-0.89,-0.465,3255.5555555555557
-0.9,-0.45,3258.3333333333335
-0.895,-0.44,3261.1111111111113
-0.88,-0.44,3263.8888888888887
-0.86,-0.44,3266.6666666666665
-0.885,-0.435,3269.4444444444443
-0.885,-0.465,3272.222222222222
-0.9,-0.46,3275.0
-0.905,-0.475,3277.777777777778
-0.92,-0.485,3280.5555555555557
-0.925,-0.485,3283.3333333333335
-0.925,-0.475,3286.1111111111113
-0.91,-0.465,3288.8888888888887
-0.925,-0.455,3291.6666666666665
-0.93,-0.445,3294.4444444444443
-0.92,-0.435,3297.222222222222
-0.93,-0.45,3300.0
-0.91,-0.46,3302.777777777778
-0.93,-0.48,3305.5555555555557
-0.92,-0.49,3308.3333333333335
-0.945,-0.475,3311.1111111111113
-0.955,-0.49,3313.8888888888887
-0.945,-0.49,3316.6666666666665
-0.955,-0.485,3319.4444444444443
-0.95,-0.49,3322.222222222222
-0.95,-0.47,3325.0
-0.94,-0.46,3327.777777777778
-0.92,-0.465,3330.5555555555557
-0.915,-0.465,3333.3333333333335
-0.925,-0.455,3336.1111111111113
-0.94,-0.475,3338.8888888888887
-0.945,-0.49,3341.6666666666665
-0.955,-0.505,3344.4444444444443
-0.96,-0.51,3347.222222222222
-0.95,-0.515,3350.0
-0.955,-0.51,3352.777777777778
-0.955,-0.5,3355.5555555555557
-0.945,-0.49,3358.3333333333335
-0.955,-0.485,3361.1111111111113
-0.95,-0.475,3363.8888888888887
-0.94,-0.48,3366.6666666666665
-0.935,-0.51,3369.4444444444443
-0.94,-0.51,3372.222222222222
-0.95,-0.515,3375.0
-0.96,-0.53,3377.777777777778
-0.96,-0.525,3380.5555555555557
-0.965,-0.515,3383.3333333333335
-0.96,-0.51,3386.1111111111113
-0.965,-0.485,3388.8888888888887
-0.945,-0.48,3391.6666666666665
-0.915,-0.48,3394.4444444444443
-0.93,-0.475,3397.222222222222
-0.935,-0.475,3400.0
-0.945,-0.485,3402.777777777778
-0.93,-0.495,3405.5555555555557
-0.955,-0.515,3408.3333333333335
-0.945,-0.505,3411.1111111111113
-0.945,-0.51,3413.8888888888887
-0.955,-0.505,3416.6666666666665
-0.935,-0.52,3419.4444444444443
-0.95,-0.5,3422.222222222222
-0.945,-0.49,3425.0
-0.935,-0.505,3427.777777777778
-0.925,-0.48,3430.5555555555557
-0.92,-0.495,3433.3333333333335
-0.92,-0.485,3436.1111111111113
-0.91,-0.495,3438.8888888888887
-0.915,-0.495,3441.6666666666665
-0.92,-0.5,3444.4444444444443
-0.915,-0.505,3447.222222222222
-0.905,-0.5,3450.0
-0.89,-0.47,3452.777777777778
-0.85,-0.445,3455.5555555555557
-0.83,-0.44,3458.3333333333335
-0.81,-0.43,3461.1111111111113
-0.79,-0.415,3463.8888888888887
-0.77,-0.42,3466.6666666666665
-0.765,-0.39,3469.4444444444443
-0.76,-0.4,3472.222222222222
-0.735,-0.4,3475.0
-0.725,-0.405,3477.777777777778
-0.71,-0.4,3480.5555555555557
-0.67,-0.4,3483.3333333333335
-0.635,-0.41,3486.1111111111113
-0.6,-0.415,3488.8888888888887
-0.585,-0.425,3491.6666666666665
-0.58,-0.445,3494.4444444444443
-0.59,-0.445,3497.222222222222
-0.595,-0.46,3500.0
-0.61,-0.49,3502.777777777778
-0.615,-0.52,3505.5555555555557
-0.615,-0.515,3508.3333333333335
-0.62,-0.535,3511.1111111111113
-0.65,-0.525,3513.8888888888887
-0.685,-0.525,3516.6666666666665
-0.73,-0.535,3519.4444444444443
-0.765,-0.535,3522.222222222222
-0.815,-0.53,3525.0
-0.865,-0.52,3527.777777777778
-0.895,-0.515,3530.5555555555557
-0.92,-0.5,3533.3333333333335
-0.94,-0.505,3536.1111111111113
-0.945,-0.52,3538.8888888888887
-0.96,-0.54,3541.6666666666665
-0.96,-0.55,3544.4444444444443
-0.965,-0.555,3547.222222222222
-0.97,-0.56,3550.0
-0.975,-0.56,3552.777777777778
-0.965,-0.535,3555.5555555555557
-0.96,-0.53,3558.3333333333335
-0.95,-0.515,3561.1111111111113
-0.96,-0.52,3563.8888888888887
-0.96,-0.52,3566.6666666666665
-0.96,-0.52,3569.4444444444443
-0.96,-0.52,3572.222222222222
-0.965,-0.52,3575.0
-0.97,-0.535,3577.777777777778
-0.97,-0.54,3580.5555555555557
-0.98,-0.535,3583.3333333333335
-0.97,-0.54,3586.1111111111113
-0.97,-0.53,3588.8888888888887
-0.97,-0.535,3591.6666666666665
-0.95,-0.525,3594.4444444444443
-0.93,-0.52,3597.222222222222
-0.945,-0.525,3600.0
-0.925,-0.525,3602.777777777778
-0.93,-0.525,3605.5555555555557
-0.945,-0.53,3608.3333333333335
-0.945,-0.54,3611.1111111111113
-0.98,-0.55,3613.8888888888887
-1.02,-0.54,3616.6666666666665
-1.04,-0.5,3619.4444444444443
-1.015,-0.44,3622.222222222222
-0.96,-0.365,3625.0
-0.86,-0.34,3627.777777777778
-0.695,-0.275,3630.5555555555557
-0.48,-0.275,3633.3333333333335
-0.225,-0.32,3636.1111111111113
0.09,-0.415,3638.8888888888887
0.395,-0.55,3641.6666666666665
0.715,-0.72,3644.4444444444443
0.955,-0.93,3647.222222222222
1.115,-1.13,3650.0
1.17,-1.345,3652.777777777778
1.165,-1.48,3655.5555555555557
1.095,-1.555,3658.3333333333335
0.925,-1.565,3661.1111111111113
0.64,-1.54,3663.8888888888887
0.23,-1.495,3666.6666666666665
-0.265,-1.445,3669.4444444444443
-0.705,-1.38,3672.222222222222
-1.01,-1.325,3675.0
-1.085,-1.245,3677.777777777778
-1.05,-1.135,3680.5555555555557
-0.9,-1.035,3683.3333333333335
-0.77,-0.96,3686.1111111111113
-0.71,-0.885,3688.8888888888887
-0.7,-0.795,3691.6666666666665
-0.72,-0.72,3694.4444444444443
-0.77,-0.65,3697.222222222222
-0.845,-0.605,3700.0
-0.905,-0.56,3702.777777777778
-0.915,-0.535,3705.5555555555557
-0.925,-0.53,3708.3333333333335
-0.935,-0.52,3711.1111111111113
-0.945,-0.52,3713.8888888888887
-0.945,-0.515,3716.6666666666665
-0.94,-0.52,3719.4444444444443
-0.94,-0.495,3722.222222222222
-0.935,-0.47,3725.0
-0.935,-0.47,3727.777777777778
-0.925,-0.46,3730.5555555555557
-0.935,-0.445,3733.3333333333335
-0.945,-0.465,3736.1111111111113
-0.95,-0.48,3738.8888888888887
-0.955,-0.47,3741.6666666666665
-0.965,-0.475,3744.4444444444443
-0.975,-0.48,3747.222222222222
-1.0,-0.49,3750.0
-0.985,-0.48,3752.777777777778
-0.98,-0.455,3755.5555555555557
-0.985,-0.45,3758.3333333333335
-0.97,-0.445,3761.1111111111113
-0.965,-0.42,3763.8888888888887
-0.965,-0.42,3766.6666666666665
-0.975,-0.425,3769.4444444444443
-0.98,-0.435,3772.222222222222
-0.97,-0.44,3775.0
-0.97,-0.46,3777.777777777778
-0.98,-0.455,3780.5555555555557
-0.99,-0.455,3783.3333333333335
-0.965,-0.445,3786.1111111111113
-0.97,-0.445,3788.8888888888887
-0.96,-0.44,3791.6666666666665
-0.945,-0.435,3794.4444444444443
-0.94,-0.42,3797.222222222222
-0.94,-0.435,3800.0
-0.945,-0.425,3802.777777777778
-0.945,-0.435,3805.5555555555557
-0.95,-0.44,3808.3333333333335
-0.96,-0.465,3811.1111111111113
-0.96,-0.46,3813.8888888888887
-0.96,-0.47,3816.6666666666665
-0.95,-0.455,3819.4444444444443
-0.945,-0.46,3822.222222222222
-0.945,-0.44,3825.0
-0.93,-0.435,3827.777777777778
-0.91,-0.41,3830.5555555555557
-0.91,-0.41,3833.3333333333335
-0.91,-0.405,3836.1111111111113
-0.925,-0.41,3838.8888888888887
-0.91,-0.445,3841.6666666666665
-0.92,-0.455,3844.4444444444443
-0.935,-0.44,3847.222222222222
-0.92,-0.435,3850.0
-0.915,-0.43,3852.777777777778
-0.905,-0.445,3855.5555555555557
-0.88,-0.425,3858.3333333333335
-0.87,-0.405,3861.1111111111113
-0.86,-0.395,3863.8888888888887
-0.85,-0.405,3866.6666666666665
-0.865,-0.41,3869.4444444444443
-0.855,-0.41,3872.222222222222
-0.835,-0.435,3875.0
-0.84,-0.445,3877.777777777778
-0.825,-0.425,3880.5555555555557
-0.81,-0.425,3883.3333333333335
-0.815,-0.42,3886.1111111111113
-0.78,-0.41,3888.8888888888887
-0.785,-0.385,3891.6666666666665
-0.755,-0.385,3894.4444444444443
-0.735,-0.365,3897.222222222222
-0.71,-0.37,3900.0
-0.71,-0.375,3902.777777777778
-0.705,-0.39,3905.5555555555557
-0.675,-0.39,3908.3333333333335
-0.67,-0.41,3911.1111111111113
-0.65,-0.4,3913.8888888888887
-0.645,-0.42,3916.6666666666665
-0.625,-0.385,3919.4444444444443
-0.605,-0.39,3922.222222222222
-0.59,-0.375,3925.0
-0.565,-0.37,3927.777777777778
-0.535,-0.365,3930.5555555555557
-0.51,-0.36,3933.3333333333335
-0.5,-0.39,3936.1111111111113
-0.485,-0.39,3938.8888888888887
-0.485,-0.415,3941.6666666666665
-0.475,-0.41,3944.4444444444443
-0.47,-0.425,3947.222222222222
-0.475,-0.44,3950.0
-0.44,-0.43,3952.777777777778
-0.425,-0.385,3955.5555555555557
-0.4,-0.39,3958.3333333333335
-0.39,-0.38,3961.1111111111113
-0.365,-0.385,3963.8888888888887
-0.365,-0.395,3966.6666666666665
-0.355,-0.4,3969.4444444444443
-0.35,-0.4,3972.222222222222
-0.35,-0.435,3975.0
-0.36,-0.44,3977.777777777778
-0.37,-0.44,3980.5555555555557
-0.39,-0.445,3983.3333333333335
-0.395,-0.445,3986.1111111111113
-0.41,-0.43,3988.8888888888887
-0.425,-0.425,3991.6666666666665
-0.44,-0.415,3994.4444444444443
-0.45,-0.4,3997.222222222222
-0.49,-0.42,4000.0
-0.51,-0.41,4002.777777777778
-0.55,-0.425,4005.5555555555557
-0.595,-0.435,4008.3333333333335
-0.62,-0.445,4011.1111111111113
-0.655,-0.45,4013.8888888888887
-0.68,-0.465,4016.6666666666665
-0.7,-0.45,4019.4444444444443
-0.715,-0.44,4022.222222222222
-0.745,-0.425,4025.0
-0.745,-0.41,4027.777777777778
-0.765,-0.395,4030.5555555555557
-0.775,-0.42,4033.3333333333335
-0.79,-0.425,4036.1111111111113
-0.8,-0.45,4038.8888888888887
-0.83,-0.445,4041.6666666666665
-0.84,-0.46,4044.4444444444443
-0.85,-0.46,4047.222222222222
-0.87,-0.485,4050.0
-0.88,-0.485,4052.777777777778
-0.89,-0.475,4055.5555555555557
-0.895,-0.465,4058.3333333333335
-0.89,-0.455,4061.1111111111113
-0.87,-0.45,4063.8888888888887
-0.875,-0.46,4066.6666666666665
-0.89,-0.47,4069.4444444444443
-0.885,-0.48,4072.222222222222
-0.885,-0.475,4075.0
-0.91,-0.48,4077.777777777778
-0.92,-0.485,4080.5555555555557
-0.915,-0.48,4083.3333333333335
-0.925,-0.465,4086.1111111111113
-0.92,-0.445,4088.8888888888887
-0.91,-0.445,4091.6666666666665
-0.91,-0.415,4094.4444444444443
-0.9,-0.44,4097.222222222223
-0.9,-0.44,4100.0
-0.9,-0.45,4102.777777777777
-0.915,-0.445,4105.555555555556
-0.92,-0.465,4108.333333333333
-0.925,-0.47,4111.111111111111
-0.93,-0.46,4113.888888888889
-0.925,-0.47,4116.666666666667
-0.925,-0.485,4119.444444444444
-0.915,-0.455,4122.222222222223
-0.9,-0.47,4125.0
-0.88,-0.465,4127.777777777777
-0.88,-0.44,4130.555555555556
-0.865,-0.45,4133.333333333333
-0.865,-0.465,4136.111111111111
-0.89,-0.465,4138.888888888889
-0.89,-0.475,4141.666666666667
-0.9,-0.485,4144.444444444444
-0.92,-0.475,4147.222222222223
-0.9,-0.475,4150.0
-0.89,-0.48,4152.777777777777
-0.89,-0.475,4155.555555555556
-0.89,-0.46,4158.333333333333
-0.875,-0.46,4161.111111111111
-0.88,-0.445,4163.888888888889
-0.875,-0.46,4166.666666666667
-0.86,-0.46,4169.444444444444
-0.86,-0.47,4172.222222222223
-0.88,-0.48,4175.0
-0.88,-0.485,4177.777777777777
-0.9,-0.495,4180.555555555556
-0.895,-0.49,4183.333333333333
-0.92,-0.505,4186.111111111111
-0.905,-0.485,4188.888888888889
-0.89,-0.49,4191.666666666667
-0.87,-0.48,4194.444444444444
-0.88,-0.465,4197.222222222223
-0.875,-0.47,4200.0
-0.885,-0.455,4202.777777777777
-0.89,-0.455,4205.555555555556
-0.905,-0.48,4208.333333333333
-0.905,-0.485,4211.111111111111
-0.9,-0.49,4213.888888888889
-0.915,-0.49,4216.666666666667
-0.92,-0.5,4219.444444444444
-0.92,-0.49,4222.222222222223
-0.905,-0.47,4225.0
-0.915,-0.465,4227.777777777777
-0.915,-0.445,4230.555555555556
-0.89,-0.46,4233.333333333333
-0.925,-0.47,4236.111111111111
-0.925,-0.485,4238.888888888889
-0.93,-0.49,4241.666666666667
-0.93,-0.49,4244.444444444444
-0.935,-0.505,4247.222222222223
-0.945,-0.52,4250.0
-0.935,-0.495,4252.777777777777
-0.925,-0.5,4255.555555555556
-0.93,-0.475,4258.333333333333
-0.92,-0.485,4261.111111111111
-0.92,-0.46,4263.888888888889
-0.91,-0.46,4266.666666666667
-0.91,-0.47,4269.444444444444
-0.93,-0.475,4272.222222222223
-0.945,-0.49,4275.0
-0.955,-0.5,4277.777777777777
-0.96,-0.5,4280.555555555556
-0.965,-0.52,4283.333333333333
-0.955,-0.5,4286.111111111111
-0.96,-0.495,4288.888888888889
-0.945,-0.48,4291.666666666667
-0.94,-0.485,4294.444444444444
-0.935,-0.48,4297.222222222223
-0.94,-0.475,4300.0
-0.94,-0.485,4302.777777777777
-0.93,-0.495,4305.555555555556
-0.945,-0.485,4308.333333333333
-0.955,-0.52,4311.111111111111
-0.955,-0.515,4313.888888888889
-0.965,-0.515,4316.666666666667
-0.95,-0.515,4319.444444444444
-0.955,-0.495,4322.222222222223
-0.95,-0.48,4325.0
-0.96,-0.47,4327.777777777777
-0.945,-0.47,4330.555555555556
-0.95,-0.47,4333.333333333333
-0.955,-0.47,4336.111111111111
-0.945,-0.475,4338.888888888889
-0.955,-0.495,4341.666666666667
-0.965,-0.495,4344.444444444444
-0.985,-0.51,4347.222222222223
-0.99,-0.51,4350.0
-0.965,-0.5,4352.777777777777
-0.965,-0.495,4355.555555555556
-0.96,-0.49,4358.333333333333
-0.955,-0.455,4361.111111111111
-0.96,-0.47,4363.888888888889
-0.94,-0.48,4366.666666666667
-0.945,-0.475,4369.444444444444
-0.94,-0.48,4372.222222222223
-0.94,-0.48,4375.0
-0.93,-0.485,4377.777777777777
-0.94,-0.49,4380.555555555556
-0.92,-0.505,4383.333333333333
-0.92,-0.46,4386.111111111111
-0.9,-0.44,4388.888888888889
-0.885,-0.43,4391.666666666667
-0.84,-0.41,4394.444444444444
-0.835,-0.39,4397.222222222223
-0.815,-0.38,4400.0
-0.79,-0.395,4402.777777777777
-0.8,-0.39,4405.555555555556
-0.785,-0.4,4408.333333333333
-0.75,-0.405,4411.111111111111
-0.735,-0.395,4413.888888888889
-0.69,-0.405,4416.666666666667
-0.65,-0.42,4419.444444444444
-0.65,-0.425,4422.222222222223
-0.64,-0.455,4425.0
-0.64,-0.475,4427.777777777777
-0.645,-0.47,4430.555555555556
-0.64,-0.495,4433.333333333333
-0.65,-0.5,4436.111111111111
-0.665,-0.505,4438.888888888889
-0.66,-0.515,4441.666666666667
-0.67,-0.53,4444.444444444444
-0.72,-0.53,4447.222222222223
-0.735,-0.515,4450.0
-0.785,-0.53,4452.777777777777
-0.83,-0.52,4455.555555555556
-0.885,-0.52,4458.333333333333
-0.93,-0.505,4461.111111111111
-0.945,-0.5,4463.888888888889
-0.96,-0.495,4466.666666666667
-0.975,-0.5,4469.444444444444
-0.975,-0.52,4472.222222222223
-1.0,-0.54,4475.0
-1.02,-0.545,4477.777777777777
-1.015,-0.55,4480.555555555556
-1.015,-0.555,4483.333333333333
-1.02,-0.555,4486.111111111111
-1.015,-0.545,4488.888888888889
-1.01,-0.545,4491.666666666667
-1.01,-0.525,4494.444444444444
-1.01,-0.505,4497.222222222223
-1.01,-0.535,4500.0
-1.015,-0.52,4502.777777777777
-1.01,-0.525,4505.555555555556
-1.015,-0.54,4508.333333333333
-1.035,-0.54,4511.111111111111
-1.035,-0.53,4513.888888888889
-1.03,-0.54,4516.666666666667
-1.04,-0.54,4519.444444444444
-1.04,-0.54,4522.222222222223
-1.04,-0.52,4525.0
-1.015,-0.52,4527.777777777777
-1.01,-0.515,4530.555555555556
-1.005,-0.525,4533.333333333333
-0.99,-0.51,4536.111111111111
-0.995,-0.53,4538.888888888889
-1.0,-0.535,4541.666666666667
-1.01,-0.545,4544.444444444444
-1.04,-0.55,4547.222222222223
-1.045,-0.525,4550.0
-1.075,-0.54,4552.777777777777
-1.095,-0.495,4555.555555555556
-1.075,-0.435,4558.333333333333
-0.995,-0.375,4561.111111111111
-0.87,-0.32,4563.888888888889
-0.68,-0.29,4566.666666666667
-0.43,-0.315,4569.444444444444
-0.105,-0.39,4572.222222222223
0.255,-0.53,4575.0
0.59,-0.7,4577.777777777777
0.88,-0.91,4580.555555555556
1.055,-1.155,4583.333333333333
1.11,-1.335,4586.111111111111
1.06,-1.47,4588.888888888889
0.91,-1.535,4591.666666666667
0.615,-1.515,4594.444444444444
0.195,-1.455,4597.222222222223
-0.295,-1.385,4600.0
-0.76,-1.325,4602.777777777777
-1.07,-1.26,4605.555555555556
-1.185,-1.18,4608.333333333333
-1.135,-1.085,4611.111111111111
-1.005,-1.0,4613.888888888889
-0.88,-0.93,4616.666666666667
-0.815,-0.85,4619.444444444444
-0.795,-0.77,4622.222222222223
-0.84,-0.705,4625.0
-0.885,-0.635,4627.777777777777
-0.945,-0.565,4630.555555555556
-0.99,-0.535,4633.333333333333
-1.01,-0.515,4636.111111111111
-1.025,-0.495,4638.888888888889
-1.02,-0.51,4641.666666666667
-1.035,-0.515,4644.444444444444
-1.04,-0.51,4647.222222222223
-1.055,-0.52,4650.0
-1.055,-0.495,4652.777777777777
-1.055,-0.48,4655.555555555556
-1.05,-0.455,4658.333333333333
-1.045,-0.45,4661.111111111111
-1.045,-0.435,4663.888888888889
-1.04,-0.45,4666.666666666667
-1.055,-0.445,4669.444444444444
-1.05,-0.45,4672.222222222223
-1.055,-0.46,4675.0
-1.065,-0.475,4677.777777777777
-1.08,-0.465,4680.555555555556
-1.07,-0.47,4683.333333333333
-1.075,-0.47,4686.111111111111
-1.06,-0.45,4688.888888888889
-1.08,-0.44,4691.666666666667
-1.07,-0.425,4694.444444444444
-1.07,-0.43,4697.222222222223
-1.065,-0.41,4700.0
-1.07,-0.425,4702.777777777777
-1.065,-0.43,4705.555555555556
-1.06,-0.455,4708.333333333333
-1.065,-0.445,4711.111111111111
-1.075,-0.465,4713.888888888889
-1.09,-0.475,4716.666666666667
-1.075,-0.455,4719.444444444444
-1.07,-0.445,4722.222222222223
-1.075,-0.455,4725.0
-1.055,-0.445,4727.777777777777
-1.04,-0.43,4730.555555555556
-1.035,-0.44,4733.333333333333
-1.045,-0.445,4736.111111111111
-1.055,-0.435,4738.888888888889
-1.055,-0.46,4741.666666666667
-1.06,-0.465,4744.444444444444
-1.06,-0.455,4747.222222222223
-1.08,-0.465,4750.0
-1.055,-0.455,4752.777777777777
-1.06,-0.45,4755.555555555556
-1.035,-0.44,4758.333333333333
-1.015,-0.425,4761.111111111111
-1.015,-0.415,4763.888888888889
-1.0,-0.41,4766.666666666667
-0.995,-0.415,4769.444444444444
-1.005,-0.44,4772.222222222223
-1.01,-0.44,4775.0
-1.015,-0.46,4777.777777777777
-1.01,-0.46,4780.555555555556
-1.005,-0.46,4783.333333333333
-0.985,-0.46,4786.111111111111
-0.975,-0.43,4788.888888888889
-0.96,-0.45,4791.666666666667
-0.94,-0.44,4794.444444444444
-0.915,-0.42,4797.222222222223
-0.91,-0.425,4800.0
-0.905,-0.44,4802.777777777777
-0.9,-0.445,4805.555555555556
-0.895,-0.445,4808.333333333333
-0.88,-0.445,4811.111111111111
-0.88,-0.44,4813.888888888889
-0.89,-0.435,4816.666666666667
-0.88,-0.435,4819.444444444444
-0.85,-0.415,4822.222222222223
-0.815,-0.42,4825.0
-0.785,-0.405,4827.777777777777
-0.75,-0.395,4830.555555555556
-0.735,-0.395,4833.333333333333
-0.715,-0.435,4836.111111111111
-0.705,-0.43,4838.888888888889
-0.705,-0.435,4841.666666666667
-0.69,-0.45,4844.444444444444
-0.685,-0.46,4847.222222222223
-0.67,-0.48,4850.0
-0.66,-0.48,4852.777777777777
-0.63,-0.47,4855.555555555556
-0.635,-0.465,4858.333333333333
-0.59,-0.47,4861.111111111111
-0.56,-0.455,4863.888888888889
-0.555,-0.455,4866.666666666667
-0.53,-0.445,4869.444444444444
-0.52,-0.455,4872.222222222223
-0.52,-0.465,4875.0
-0.51,-0.47,4877.777777777777
-0.51,-0.47,4880.555555555556
-0.51,-0.475,4883.333333333333
-0.5,-0.475,4886.111111111111
-0.49,-0.475,4888.888888888889
-0.48,-0.455,4891.666666666667
-0.47,-0.45,4894.444444444444
-0.465,-0.455,4897.222222222223
-0.46,-0.45,4900.0
-0.48,-0.455,4902.777777777777
-0.495,-0.45,4905.555555555556
-0.53,-0.47,4908.333333333333
-0.545,-0.475,4911.111111111111
-0.585,-0.475,4913.888888888889
-0.605,-0.475,4916.666666666667
-0.635,-0.475,4919.444444444444
-0.65,-0.46,4922.222222222223
-0.67,-0.44,4925.0
-0.71,-0.435,4927.777777777777
-0.72,-0.42,4930.555555555556
-0.745,-0.405,4933.333333333333
-0.775,-0.425,4936.111111111111
-0.815,-0.41,4938.888888888889
-0.84,-0.43,4941.666666666667
-0.865,-0.43,4944.444444444444
-0.9,-0.435,4947.222222222223
-0.92,-0.45,4950.0
-0.92,-0.44,4952.777777777777
-0.945,-0.445,4955.555555555556
-0.945,-0.44,4958.333333333333
-0.96,-0.435,4961.111111111111
-0.975,-0.42,4963.888888888889
-0.975,-0.42,4966.666666666667
-0.99,-0.425,4969.444444444444
-1.005,-0.44,4972.222222222223
-1.005,-0.445,4975.0
-1.03,-0.455,4977.777777777777
-1.045,-0.465,4980.555555555556
-1.065,-0.485,4983.333333333333
-1.06,-0.48,4986.111111111111
-1.045,-0.47,4988.888888888889
-1.035,-0.46,4991.666666666667
-1.03,-0.45,4994.444444444444
-1.04,-0.44,4997.222222222223
-1.03,-0.44,5000.0
-1.05,-0.445,5002.777777777777
-1.06,-0.45,5005.555555555556
-1.06,-0.45,5008.333333333333
-1.06,-0.455,5011.111111111111
-1.07,-0.455,5013.888888888889
-1.07,-0.46,5016.666666666667
-1.065,-0.455,5019.444444444444
-1.06,-0.45,5022.222222222223
-1.045,-0.455,5025.0
-1.035,-0.45,5027.777777777777
-1.03,-0.43,5030.555555555556
-1.015,-0.445,5033.333333333333
-1.01,-0.44,5036.111111111111
-1.015,-0.445,5038.888888888889
-1.04,-0.46,5041.666666666667
-1.04,-0.475,5044.444444444444
-1.03,-0.48,5047.222222222223
-1.035,-0.47,5050.0
-1.05,-0.475,5052.777777777777
-1.025,-0.48,5055.555555555556
-1.01,-0.465,5058.333333333333
-1.02,-0.435,5061.111111111111
-1.005,-0.43,5063.888888888889
-0.995,-0.425,5066.666666666667
-0.98,-0.445,5069.444444444444
-0.99,-0.445,5072.222222222223
-1.005,-0.46,5075.0
-1.01,-0.46,5077.777777777777
-1.015,-0.47,5080.555555555556
-1.005,-0.47,5083.333333333333
-1.015,-0.47,5086.111111111111
-1.01,-0.465,5088.888888888889
-0.995,-0.47,5091.666666666667
-0.985,-0.45,5094.444444444444
-0.975,-0.435,5097.222222222223
-0.975,-0.435,5100.0
-0.965,-0.445,5102.777777777777
-0.965,-0.475,5105.555555555556
-0.995,-0.47,5108.333333333333
-0.995,-0.475,5111.111111111111
-1.0,-0.47,5113.888888888889
-1.005,-0.5,5116.666666666667
-1.02,-0.49,5119.444444444444
-1.005,-0.475,5122.222222222223
-1.005,-0.46,5125.0
-1.0,-0.445,5127.777777777777
-0.975,-0.44,5130.555555555556
-0.985,-0.445,5133.333333333333
-1.005,-0.435,5136.111111111111
-1.0,-0.465,5138.888888888889
-1.02,-0.47,5141.666666666667
-1.02,-0.475,5144.444444444444
-1.03,-0.485,5147.222222222223
-1.01,-0.48,5150.0
-1.01,-0.465,5152.777777777777
-1.015,-0.475,5155.555555555556
-1.01,-0.46,5158.333333333333
-1.0,-0.455,5161.111111111111
-0.995,-0.455,5163.888888888889
-1.01,-0.455,5166.666666666667
-1.005,-0.465,5169.444444444444
-1.015,-0.485,5172.222222222223
-1.03,-0.485,5175.0
-1.025,-0.485,5177.777777777777
-1.045,-0.5,5180.555555555556
-1.06,-0.49,5183.333333333333
-1.05,-0.5,5186.111111111111
-1.04,-0.475,5188.888888888889
-1.04,-0.45,5191.666666666667
-1.03,-0.445,5194.444444444444
-1.035,-0.455,5197.222222222223
-1.015,-0.445,5200.0
-1.03,-0.465,5202.777777777777
-1.035,-0.45,5205.555555555556
-1.04,-0.47,5208.333333333333
-1.035,-0.48,5211.111111111111
-1.05,-0.49,5213.888888888889
-1.06,-0.5,5216.666666666667
-1.075,-0.495,5219.444444444444
-1.06,-0.5,5222.222222222223
-1.05,-0.48,5225.0
-1.045,-0.475,5227.777777777777
-1.04,-0.455,5230.555555555556
-1.03,-0.47,5233.333333333333
-1.03,-0.47,5236.111111111111
-1.035,-0.495,5238.888888888889
-1.045,-0.485,5241.666666666667
-1.05,-0.485,5244.444444444444
-1.06,-0.5,5247.222222222223
-1.065,-0.505,5250.0
-1.075,-0.475,5252.777777777777
-1.06,-0.495,5255.555555555556
-1.05,-0.47,5258.333333333333
-1.035,-0.45,5261.111111111111
-1.035,-0.445,5263.888888888889
-1.015,-0.45,5266.666666666667
-1.01,-0.45,5269.444444444444
-0.995,-0.45,5272.222222222223
-0.995,-0.46,5275.0
-0.985,-0.47,5277.777777777777
-0.985,-0.46,5280.555555555556
-0.97,-0.455,5283.333333333333
-0.95,-0.45,5286.111111111111
-0.945,-0.43,5288.888888888889
-0.925,-0.435,5291.666666666667
-0.91,-0.415,5294.444444444444
-0.89,-0.405,5297.222222222223
-0.865,-0.38,5300.0
-0.86,-0.4,5302.777777777777
-0.825,-0.39,5305.555555555556
-0.81,-0.39,5308.333333333333
-0.77,-0.39,5311.111111111111
-0.74,-0.405,5313.888888888889
-0.72,-0.425,5316.666666666667
-0.71,-0.435,5319.444444444444
-0.695,-0.465,5322.222222222223
-0.7,-0.46,5325.0
-0.705,-0.475,5327.777777777777
-0.72,-0.47,5330.555555555556
-0.695,-0.485,5333.333333333333
-0.71,-0.475,5336.111111111111
-0.72,-0.505,5338.888888888889
-0.755,-0.515,5341.666666666667
-0.8,-0.525,5344.444444444444
-0.84,-0.545,5347.222222222223
-0.9,-0.555,5350.0
-0.965,-0.555,5352.777777777777
-1.015,-0.535,5355.555555555556
-1.045,-0.515,5358.333333333333
-1.04,-0.515,5361.111111111111
-1.055,-0.5,5363.888888888889
-1.06,-0.49,5366.666666666667
-1.045,-0.49,5369.444444444444
-1.055,-0.515,5372.222222222223
-1.05,-0.515,5375.0
-1.075,-0.515,5377.777777777777
-1.085,-0.545,5380.555555555556
-1.08,-0.545,5383.333333333333
-1.08,-0.54,5386.111111111111
-1.08,-0.53,5388.888888888889
-1.07,-0.52,5391.666666666667
-1.065,-0.505,5394.444444444444
-1.075,-0.51,5397.222222222223
-1.07,-0.515,5400.0
-1.08,-0.505,5402.777777777777
-1.09,-0.525,5405.555555555556
-1.085,-0.53,5408.333333333333
-1.1,-0.525,5411.111111111111
-1.085,-0.555,5413.888888888889
-1.1,-0.555,5416.666666666667
-1.105,-0.545,5419.444444444444
-1.085,-0.525,5422.222222222223
-1.075,-0.52,5425.0
-1.055,-0.515,5427.777777777777
-1.065,-0.495,5430.555555555556
-1.05,-0.495,5433.333333333333
-1.055,-0.49,5436.111111111111
-1.06,-0.5,5438.888888888889
-1.085,-0.495,5441.666666666667
-1.12,-0.475,5444.444444444444
-1.12,-0.46,5447.222222222223
-1.09,-0.415,5450.0
-0.99,-0.35,5452.777777777777
-0.835,-0.31,5455.555555555556
-0.575,-0.305,5458.333333333333
-0.255,-0.355,5461.111111111111
0.145,-0.465,5463.888888888889
0.535,-0.655,5466.666666666667
0.865,-0.895,5469.444444444444
1.065,-1.155,5472.222222222223
1.165,-1.375,5475.0
1.11,-1.525,5477.777777777777
0.9,-1.57,5480.555555555556
0.525,-1.55,5483.333333333333
-0.015,-1.49,5486.111111111111
-0.575,-1.39,5488.888888888889
-1.0,-1.285,5491.666666666667
-1.21,-1.18,5494.444444444444
-1.21,-1.055,5497.222222222223
-1.085,-0.95,5500.0
-0.955,-0.86,5502.777777777777
-0.855,-0.81,5505.555555555556
-0.83,-0.755,5508.333333333333
-0.855,-0.685,5511.111111111111
-0.935,-0.645,5513.888888888889
-0.99,-0.595,5516.666666666667
-1.035,-0.56,5519.444444444444
-1.05,-0.54,5522.222222222223
-1.085,-0.51,5525.0
-1.055,-0.51,5527.777777777777
-1.06,-0.495,5530.555555555556
-1.025,-0.485,5533.333333333333
-1.035,-0.485,5536.111111111111
-1.045,-0.47,5538.888888888889
-1.05,-0.485,5541.666666666667
-1.055,-0.465,5544.444444444444
-1.09,-0.485,5547.222222222223
-1.09,-0.485,5550.0
-1.085,-0.48,5552.777777777777
-1.085,-0.455,5555.555555555556
-1.08,-0.45,5558.333333333333
-1.08,-0.445,5561.111111111111
-1.07,-0.445,5563.888888888889
-1.055,-0.435,5566.666666666667
-1.065,-0.43,5569.444444444444
-1.07,-0.425,5572.222222222223
-1.06,-0.45,5575.0
-1.08,-0.465,5577.777777777777
-1.09,-0.47,5580.555555555556
-1.09,-0.485,5583.333333333333
-1.09,-0.475,5586.111111111111
-1.085,-0.455,5588.888888888889
-1.07,-0.45,5591.666666666667
-1.07,-0.45,5594.444444444444
-1.05,-0.445,5597.222222222223
-1.045,-0.44,5600.0
-1.055,-0.435,5602.777777777777
-1.065,-0.43,5605.555555555556
-1.065,-0.45,5608.333333333333
-1.04,-0.465,5611.111111111111
-1.06,-0.485,5613.888888888889
-1.055,-0.48,5616.666666666667
-1.05,-0.48,5619.444444444444
-1.065,-0.46,5622.222222222223
-1.04,-0.46,5625.0
-1.03,-0.455,5627.777777777777
-1.02,-0.44,5630.555555555556
-1.025,-0.45,5633.333333333333
-1.01,-0.44,5636.111111111111
-0.99,-0.455,5638.888888888889
-0.995,-0.455,5641.666666666667
-0.99,-0.46,5644.444444444444
-0.99,-0.47,5647.222222222223
-0.985,-0.455,5650.0
-0.98,-0.455,5652.777777777777
-0.97,-0.44,5655.555555555556
-0.955,-0.435,5658.333333333333
-0.935,-0.415,5661.111111111111
-0.935,-0.415,5663.888888888889
-0.91,-0.41,5666.666666666667
-0.905,-0.41,5669.444444444444
-0.905,-0.415,5672.222222222223
-0.89,-0.44,5675.0
-0.9,-0.415,5677.777777777777
-0.915,-0.45,5680.555555555556
-0.905,-0.455,5683.333333333333
-0.88,-0.435,5686.111111111111
-0.845,-0.435,5688.888888888889
-0.82,-0.425,5691.666666666667
-0.815,-0.41,5694.444444444444
-0.775,-0.41,5697.222222222223
-0.765,-0.415,5700.0
-0.745,-0.415,5702.777777777777
-0.71,-0.41,5705.555555555556
-0.725,-0.425,5708.333333333333
-0.695,-0.415,5711.111111111111
-0.675,-0.435,5713.888888888889
-0.64,-0.42,5716.666666666667
-0.625,-0.43,5719.444444444444
-0.605,-0.425,5722.222222222223
-0.57,-0.41,5725.0
-0.55,-0.4,5727.777777777777
-0.53,-0.41,5730.555555555556
-0.51,-0.395,5733.333333333333
-0.485,-0.41,5736.111111111111
-0.47,-0.42,5738.888888888889
-0.47,-0.44,5741.666666666667
-0.45,-0.44,5744.444444444444
-0.445,-0.455,5747.222222222223
-0.42,-0.45,5750.0
-0.425,-0.45,5752.777777777777
-0.415,-0.455,5755.555555555556
-0.41,-0.44,5758.333333333333
-0.395,-0.445,5761.111111111111
-0.395,-0.44,5763.888888888889
-0.37,-0.41,5766.666666666667
-0.4,-0.43,5769.444444444444
-0.41,-0.45,5772.222222222223
-0.45,-0.465,5775.0
-0.485,-0.45,5777.777777777777
-0.5,-0.455,5780.555555555556
-0.53,-0.455,5783.333333333333
-0.585,-0.45,5786.111111111111
-0.615,-0.45,5788.888888888889
-0.62,-0.42,5791.666666666667
-0.65,-0.425,5794.444444444444
-0.665,-0.42,5797.222222222223
-0.705,-0.405,5800.0
-0.74,-0.42,5802.777777777777
-0.765,-0.425,5805.555555555556
-0.8,-0.43,5808.333333333333
-0.83,-0.44,5811.111111111111
-0.85,-0.46,5813.888888888889
-0.86,-0.465,5816.666666666667
-0.885,-0.47,5819.444444444444
-0.91,-0.46,5822.222222222223
-0.905,-0.445,5825.0
-0.915,-0.45,5827.777777777777
-0.92,-0.445,5830.555555555556
-0.93,-0.425,5833.333333333333
-0.93,-0.44,5836.111111111111
-0.955,-0.455,5838.888888888889
-0.96,-0.45,5841.666666666667
-0.97,-0.445,5844.444444444444
-0.975,-0.47,5847.222222222223
-0.985,-0.47,5850.0
-0.995,-0.485,5852.777777777777
-1.0,-0.48,5855.555555555556
-0.98,-0.46,5858.333333333333
-0.99,-0.465,5861.111111111111
-0.975,-0.465,5863.888888888889
-0.96,-0.46,5866.666666666667
-0.965,-0.48,5869.444444444444
-0.98,-0.465,5872.222222222223
-0.985,-0.485,5875.0
-0.99,-0.48,5877.777777777777
-0.995,-0.485,5880.555555555556
-0.98,-0.5,5883.333333333333
-0.985,-0.49,5886.111111111111
-0.985,-0.485,5888.888888888889
-0.965,-0.475,5891.666666666667
-0.945,-0.46,5894.444444444444
-0.945,-0.445,5897.222222222223
-0.925,-0.44,5900.0
-0.925,-0.445,5902.777777777777
-0.94,-0.455,5905.555555555556
-0.95,-0.465,5908.333333333333
-0.955,-0.47,5911.111111111111
-0.955,-0.49,5913.888888888889
-0.935,-0.495,5916.666666666667
-0.945,-0.49,5919.444444444444
-0.945,-0.49,5922.222222222223
-0.93,-0.46,5925.0
-0.915,-0.475,5927.777777777777
-0.915,-0.46,5930.555555555556
-0.91,-0.475,5933.333333333333
-0.915,-0.475,5936.111111111111
-0.92,-0.475,5938.888888888889
-0.93,-0.495,5941.666666666667
-0.94,-0.505,5944.444444444444
-0.92,-0.51,5947.222222222223
-0.925,-0.505,5950.0
-0.935,-0.505,5952.777777777777
-0.915,-0.5,5955.555555555556
-0.905,-0.485,5958.333333333333
-0.895,-0.475,5961.111111111111
-0.885,-0.475,5963.888888888889
-0.89,-0.48,5966.666666666667
-0.9,-0.455,5969.444444444444
-0.9,-0.49,5972.222222222223
-0.905,-0.485,5975.0
-0.905,-0.485,5977.777777777777
-0.915,-0.515,5980.555555555556
-0.93,-0.515,5983.333333333333
-0.925,-0.5,5986.111111111111
-0.93,-0.525,5988.888888888889
-0.915,-0.51,5991.666666666667
-0.92,-0.49,5994.444444444444
-0.915,-0.49,5997.222222222223
-0.92,-0.49,6000.0
-0.915,-0.485,6002.777777777777
-0.92,-0.495,6005.555555555556
-0.925,-0.5,6008.333333333333
-0.93,-0.505,6011.111111111111
-0.925,-0.53,6013.888888888889
-0.945,-0.53,6016.666666666667
-0.955,-0.51,6019.444444444444
-0.955,-0.5,6022.222222222223
-0.955,-0.495,6025.0
-0.94,-0.485,6027.777777777777
-0.92,-0.48,6030.555555555556
-0.92,-0.475,6033.333333333333
-0.945,-0.495,6036.111111111111
-0.945,-0.495,6038.888888888889
-0.935,-0.505,6041.666666666667
-0.945,-0.515,6044.444444444444
-0.95,-0.505,6047.222222222223
-0.965,-0.515,6050.0
-0.96,-0.515,6052.777777777777
-0.965,-0.495,6055.555555555556
-0.945,-0.49,6058.333333333333
-0.95,-0.495,6061.111111111111
-0.94,-0.495,6063.888888888889
-0.925,-0.5,6066.666666666667
-0.945,-0.49,6069.444444444444
-0.95,-0.505,6072.222222222223
-0.97,-0.5,6075.0
-0.965,-0.515,6077.777777777777
-0.97,-0.525,6080.555555555556
-0.97,-0.525,6083.333333333333
-0.99,-0.515,6086.111111111111
-0.99,-0.51,6088.888888888889
-0.96,-0.495,6091.666666666667
-0.975,-0.495,6094.444444444444
-0.945,-0.48,6097.222222222223
-0.95,-0.48,6100.0
-0.95,-0.48,6102.777777777777
-0.96,-0.485,6105.555555555556
-0.955,-0.51,6108.333333333333
-0.965,-0.52,6111.111111111111
-0.99,-0.505,6113.888888888889
-0.975,-0.525,6116.666666666667
-0.975,-0.52,6119.444444444444
-0.975,-0.52,6122.222222222223
-0.96,-0.51,6125.0
-0.96,-0.505,6127.777777777777
-0.945,-0.51,6130.555555555556
-0.94,-0.505,6133.333333333333
-0.935,-0.51,6136.111111111111
-0.93,-0.505,6138.888888888889
-0.945,-0.53,6141.666666666667
-0.945,-0.535,6144.444444444444
-0.965,-0.54,6147.222222222223
-0.95,-0.525,6150.0
-0.96,-0.53,6152.777777777777
-0.955,-0.52,6155.555555555556
-0.92,-0.49,6158.333333333333
-0.905,-0.49,6161.111111111111
-0.88,-0.46,6163.888888888889
-0.86,-0.45,6166.666666666667
-0.845,-0.455,6169.444444444444
-0.85,-0.455,6172.222222222223
-0.835,-0.46,6175.0
-0.83,-0.45,6177.777777777777
-0.815,-0.465,6180.555555555556
-0.82,-0.465,6183.333333333333
-0.815,-0.46,6186.111111111111
-0.78,-0.45,6188.888888888889
-0.745,-0.425,6191.666666666667
-0.725,-0.41,6194.444444444444
-0.685,-0.39,6197.222222222223
-0.63,-0.395,6200.0
-0.605,-0.395,6202.777777777777
-0.59,-0.435,6205.555555555556
-0.59,-0.46,6208.333333333333
-0.6,-0.49,6211.111111111111
-0.62,-0.51,6213.888888888889
-0.635,-0.53,6216.666666666667
-0.665,-0.54,6219.444444444444
-0.645,-0.535,6222.222222222223
-0.64,-0.52,6225.0
-0.645,-0.505,6227.777777777777
-0.65,-0.52,6230.555555555556
-0.71,-0.52,6233.333333333333
-0.755,-0.535,6236.111111111111
-0.82,-0.525,6238.888888888889
-0.875,-0.545,6241.666666666667
-0.925,-0.53,6244.444444444444
-0.96,-0.54,6247.222222222223
-0.995,-0.56,6250.0
-1.02,-0.555,6252.777777777777
-1.01,-0.545,6255.555555555556
-0.99,-0.525,6258.333333333333
-0.97,-0.52,6261.111111111111
-0.96,-0.52,6263.888888888889
-0.97,-0.515,6266.666666666667
-0.975,-0.515,6269.444444444444
-0.975,-0.515,6272.222222222223
-0.99,-0.53,6275.0
-1.01,-0.53,6277.777777777777
-1.01,-0.535,6280.555555555556
-1.015,-0.555,6283.333333333333
-1.025,-0.535,6286.111111111111
-1.01,-0.53,6288.888888888889
-1.005,-0.535,6291.666666666667
-1.015,-0.525,6294.444444444444
-0.995,-0.525,6297.222222222223
-0.99,-0.53,6300.0
-0.98,-0.525,6302.777777777777
-0.985,-0.525,6305.555555555556
-0.99,-0.53,6308.333333333333
-0.99,-0.53,6311.111111111111
-0.99,-0.545,6313.888888888889
-0.99,-0.545,6316.666666666667
-0.99,-0.565,6319.444444444444
-0.985,-0.535,6322.222222222223
-0.995,-0.535,6325.0
-0.985,-0.535,6327.777777777777
-0.985,-0.525,6330.555555555556
-0.99,-0.505,6333.333333333333
-1.01,-0.49,6336.111111111111
-1.035,-0.48,6338.888888888889
-1.05,-0.445,6341.666666666667
-1.035,-0.4,6344.444444444444
-0.985,-0.345,6347.222222222223
-0.88,-0.295,6350.0
-0.71,-0.265,6352.777777777777
-0.45,-0.315,6355.555555555556
-0.145,-0.39,6358.333333333333
0.225,-0.505,6361.111111111111
0.6,-0.69,6363.888888888889
0.92,-0.91,6366.666666666667
1.13,-1.16,6369.444444444444
1.205,-1.385,6372.222222222223
1.2,-1.565,6375.0
1.085,-1.67,6377.777777777777
0.845,-1.675,6380.555555555556
0.45,-1.625,6383.333333333333
-0.045,-1.55,6386.111111111111
-0.57,-1.455,6388.888888888889
-0.935,-1.365,6391.666666666667
-1.12,-1.245,6394.444444444444
-1.095,-1.135,6397.222222222223
-0.995,-1.015,6400.0
-0.845,-0.93,6402.777777777777
-0.755,-0.845,6405.555555555556
-0.745,-0.76,6408.333333333333
-0.775,-0.72,6411.111111111111
-0.825,-0.66,6413.888888888889
-0.91,-0.605,6416.666666666667
-0.96,-0.575,6419.444444444444
-0.99,-0.545,6422.222222222223
-0.99,-0.53,6425.0
-0.97,-0.505,6427.777777777777
-0.975,-0.495,6430.555555555556
-0.95,-0.5,6433.333333333333
-0.96,-0.49,6436.111111111111
-0.965,-0.485,6438.888888888889
-0.955,-0.485,6441.666666666667
-0.97,-0.485,6444.444444444444
-1.005,-0.505,6447.222222222223
-1.005,-0.485,6450.0
-1.02,-0.495,6452.777777777777
-1.005,-0.495,6455.555555555556
-1.0,-0.47,6458.333333333333
-0.995,-0.46,6461.111111111111
-1.0,-0.435,6463.888888888889
-0.99,-0.425,6466.666666666667
-0.99,-0.43,6469.444444444444
-1.01,-0.44,6472.222222222223
-0.995,-0.45,6475.0
-1.01,-0.445,6477.777777777777
-1.015,-0.455,6480.555555555556
-1.015,-0.465,6483.333333333333
-1.025,-0.455,6486.111111111111
-1.015,-0.46,6488.888888888889
-1.0,-0.45,6491.666666666667
-0.99,-0.44,6494.444444444444
-0.995,-0.415,6497.222222222223
-0.99,-0.42,6500.0
-0.99,-0.415,6502.777777777777
-1.0,-0.43,6505.555555555556
-0.995,-0.45,6508.333333333333
-1.01,-0.45,6511.111111111111
-1.03,-0.46,6513.888888888889
-1.03,-0.47,6516.666666666667
-1.005,-0.455,6519.444444444444
-1.015,-0.46,6522.222222222223
-0.995,-0.45,6525.0
-0.99,-0.435,6527.777777777777
-0.97,-0.405,6530.555555555556
-0.955,-0.4,6533.333333333333
-0.955,-0.395,6536.111111111111
-0.955,-0.41,6538.888888888889
-0.955,-0.405,6541.666666666667
-0.975,-0.42,6544.444444444444
-0.965,-0.435,6547.222222222223
-0.97,-0.44,6550.0
-0.97,-0.44,6552.777777777777
-0.97,-0.435,6555.555555555556
-0.935,-0.425,6558.333333333333
-0.925,-0.4,6561.111111111111
-0.92,-0.42,6563.888888888889
-0.925,-0.41,6566.666666666667
-0.935,-0.405,6569.444444444444
-0.925,-0.42,6572.222222222223
-0.915,-0.425,6575.0
-0.91,-0.435,6577.777777777777
-0.91,-0.425,6580.555555555556
-0.905,-0.435,6583.333333333333
-0.895,-0.43,6586.111111111111
-0.9,-0.405,6588.888888888889
-0.875,-0.4,6591.666666666667
-0.855,-0.38,6594.444444444444
-0.825,-0.38,6597.222222222223
-0.81,-0.37,6600.0
-0.8,-0.37,6602.777777777777
-0.785,-0.37,6605.555555555556
-0.775,-0.375,6608.333333333333
-0.765,-0.39,6611.111111111111
-0.765,-0.395,6613.888888888889
-0.765,-0.415,6616.666666666667
-0.745,-0.395,6619.444444444444
-0.72,-0.385,6622.222222222223
-0.695,-0.375,6625.0
-0.67,-0.365,6627.777777777777
-0.635,-0.365,6630.555555555556
-0.6,-0.36,6633.333333333333
-0.59,-0.365,6636.111111111111
-0.575,-0.365,6638.888888888889
-0.56,-0.395,6641.666666666667
-0.54,-0.39,6644.444444444444
-0.535,-0.395,6647.222222222223
-0.515,-0.405,6650.0
-0.505,-0.405,6652.777777777777
-0.48,-0.39,6655.555555555556
-0.46,-0.385,6658.333333333333
-0.435,-0.385,6661.111111111111
-0.42,-0.365,6663.888888888889
-0.4,-0.37,6666.666666666667
-0.38,-0.37,6669.444444444444
-0.355,-0.395,6672.222222222223
-0.37,-0.4,6675.0
-0.365,-0.425,6677.777777777777
-0.37,-0.425,6680.555555555556
-0.375,-0.43,6683.333333333333
-0.385,-0.425,6686.111111111111
-0.4,-0.445,6688.888888888889
-0.42,-0.435,6691.666666666667
-0.44,-0.42,6694.444444444444
-0.46,-0.41,6697.222222222223
-0.47,-0.405,6700.0
-0.505,-0.41,6702.777777777777
-0.535,-0.395,6705.555555555556
-0.575,-0.405,6708.333333333333
-0.63,-0.415,6711.111111111111
-0.64,-0.41,6713.888888888889
-0.69,-0.41,6716.666666666667
-0.715,-0.415,6719.444444444444
-0.75,-0.41,6722.222222222223
-0.755,-0.4,6725.0
-0.775,-0.41,6727.777777777777
-0.78,-0.395,6730.555555555556
-0.79,-0.415,6733.333333333333
-0.815,-0.415,6736.111111111111
-0.84,-0.41,6738.888888888889
-0.85,-0.43,6741.666666666667
-0.895,-0.43,6744.444444444444
-0.91,-0.455,6747.222222222223
-0.925,-0.465,6750.0
-0.93,-0.465,6752.777777777777
-0.93,-0.455,6755.555555555556
-0.94,-0.445,6758.333333333333
-0.935,-0.45,6761.111111111111
-0.92,-0.425,6763.888888888889
-0.915,-0.445,6766.666666666667
-0.925,-0.435,6769.444444444444
-0.93,-0.42,6772.222222222223
-0.935,-0.425,6775.0
-0.935,-0.45,6777.777777777777
-0.935,-0.455,6780.555555555556
-0.95,-0.455,6783.333333333333
-0.965,-0.45,6786.111111111111
-0.97,-0.465,6788.888888888889
-0.965,-0.45,6791.666666666667
-0.96,-0.43,6794.444444444444
-0.96,-0.435,6797.222222222223
-0.93,-0.43,6800.0
-0.94,-0.44,6802.777777777777
-0.935,-0.435,6805.555555555556
-0.935,-0.445,6808.333333333333
-0.935,-0.455,6811.111111111111
-0.95,-0.47,6813.888888888889
-0.945,-0.475,6816.666666666667
-0.945,-0.475,6819.444444444444
-0.935,-0.475,6822.222222222223
-0.94,-0.46,6825.0
-0.925,-0.455,6827.777777777777
-0.925,-0.42,6830.555555555556
-0.915,-0.405,6833.333333333333
-0.915,-0.415,6836.111111111111
-0.915,-0.41,6838.888888888889
-0.91,-0.4,6841.666666666667
-0.925,-0.41,6844.444444444444
-0.92,-0.4,6847.222222222223
-0.945,-0.38,6850.0
-0.95,-0.355,6852.777777777777
-0.91,-0.33,6855.555555555556
-0.865,-0.29,6858.333333333333
-0.795,-0.205,6861.111111111111
-0.69,-0.175,6863.888888888889
-0.555,-0.18,6866.666666666667
-0.405,-0.26,6869.444444444444
-0.28,-0.37,6872.222222222223
-0.135,-0.52,6875.0
0.005,-0.69,6877.777777777777
0.175,-0.83,6880.555555555556
0.36,-0.97,6883.333333333333
0.555,-1.11,6886.111111111111
0.78,-1.28,6888.888888888889
1.0,-1.455,6891.666666666667
1.215,-1.625,6894.444444444444
1.395,-1.83,6897.222222222223
1.57,-2.015,6900.0
1.715,-2.17,6902.777777777777
1.83,-2.29,6905.555555555556
1.9,-2.35,6908.333333333333
1.935,-2.38,6911.111111111111
1.94,-2.405,6913.888888888889
1.945,-2.41,6916.666666666667
1.915,-2.395,6919.444444444444
1.88,-2.375,6922.222222222223
1.815,-2.335,6925.0
1.735,-2.305,6927.777777777777
1.675,-2.215,6930.555555555556
1.63,-2.145,6933.333333333333
1.6,-2.025,6936.111111111111
1.605,-1.94,6938.888888888889
1.61,-1.87,6941.666666666667
1.57,-1.785,6944.444444444444
1.53,-1.695,6947.222222222223
1.44,-1.605,6950.0
1.3,-1.515,6952.777777777777
1.15,-1.435,6955.555555555556
0.985,-1.32,6958.333333333333
0.78,-1.225,6961.111111111111
0.53,-1.14,6963.888888888889
0.18,-1.035,6966.666666666667
-0.21,-0.96,6969.444444444444
-0.6,-0.855,6972.222222222223
-0.88,-0.74,6975.0
-1.07,-0.65,6977.777777777777
-1.13,-0.53,6980.555555555556
-1.145,-0.47,6983.333333333333
-1.13,-0.42,6986.111111111111
-1.1,-0.385,6988.888888888889
-1.12,-0.38,6991.666666666667
-1.145,-0.355,6994.444444444444
-1.19,-0.345,6997.222222222223
-1.225,-0.315,7000.0
-1.255,-0.305,7002.777777777777
-1.3,-0.285,7005.555555555556
-1.325,-0.29,7008.333333333333
-1.355,-0.29,7011.111111111111
-1.375,-0.28,7013.888888888889
-1.395,-0.265,7016.666666666667
-1.4,-0.255,7019.444444444444
-1.415,-0.24,7022.222222222223
-1.425,-0.22,7025.0
-1.43,-0.2,7027.777777777777
-1.455,-0.19,7030.555555555556
-1.455,-0.18,7033.333333333333
-1.46,-0.17,7036.111111111111
-1.465,-0.165,7038.888888888889
-1.475,-0.17,7041.666666666667
-1.495,-0.165,7044.444444444444
-1.52,-0.17,7047.222222222223
-1.535,-0.17,7050.0
-1.545,-0.165,7052.777777777777
-1.56,-0.145,7055.555555555556
-1.56,-0.115,7058.333333333333
-1.56,-0.095,7061.111111111111
-1.57,-0.06,7063.888888888889
-1.565,-0.055,7066.666666666667
-1.575,-0.03,7069.444444444444
-1.565,-0.015,7072.222222222223
-1.575,-0.01,7075.0
-1.575,-0.005,7077.777777777777
-1.59,0.005,7080.555555555556
-1.59,0.035,7083.333333333333
-1.59,0.05,7086.111111111111
-1.605,0.08,7088.888888888889
-1.62,0.115,7091.666666666667
-1.605,0.15,7094.444444444444
-1.605,0.165,7097.222222222223
-1.585,0.19,7100.0
-1.575,0.21,7102.777777777777
-1.6,0.205,7105.555555555556
-1.57,0.21,7108.333333333333
-1.585,0.18,7111.111111111111
-1.605,0.175,7113.888888888889
-1.635,0.16,7116.666666666667
-1.675,0.155,7119.444444444444
-1.685,0.175,7122.222222222223
-1.71,0.18,7125.0
-1.725,0.215,7127.777777777777
-1.72,0.245,7130.555555555556
-1.745,0.27,7133.333333333333
-1.8,0.285,7136.111111111111
-1.855,0.315,7138.888888888889
-1.91,0.32,7141.666666666667
-1.98,0.335,7144.444444444444
-2.035,0.34,7147.222222222223
-2.1,0.355,7150.0
-2.17,0.39,7152.777777777777
-2.215,0.41,7155.555555555556
-2.245,0.445,7158.333333333333
-2.275,0.475,7161.111111111111
-2.28,0.475,7163.888888888889
-2.315,0.495,7166.666666666667
-2.33,0.51,7169.444444444444
-2.32,0.49,7172.222222222223
-2.335,0.48,7175.0
-2.35,0.48,7177.777777777777
-2.36,0.455,7180.555555555556
-2.365,0.435,7183.333333333333
-2.375,0.43,7186.111111111111
-2.37,0.41,7188.888888888889
-2.35,0.415,7191.666666666667
-2.315,0.4,7194.444444444444
-2.29,0.39,7197.222222222223
-2.26,0.365,7200.0
-2.225,0.34,7202.777777777777
-2.195,0.31,7205.555555555556
-2.165,0.265,7208.333333333333
-2.145,0.235,7211.111111111111
-2.11,0.195,7213.888888888889
-2.04,0.145,7216.666666666667
-1.985,0.11,7219.444444444444
-1.92,0.075,7222.222222222223
-1.86,0.035,7225.0
-1.79,0.01,7227.777777777777
-1.76,-0.025,7230.555555555556
-1.67,-0.04,7233.333333333333
-1.625,-0.11,7236.111111111111
-1.58,-0.135,7238.888888888889
-1.54,-0.185,7241.666666666667
-1.495,-0.21,7244.444444444444
-1.455,-0.25,7247.222222222223
-1.415,-0.285,7250.0
-1.38,-0.305,7252.777777777777
-1.35,-0.315,7255.555555555556
-1.33,-0.33,7258.333333333333
-1.3,-0.32,7261.111111111111
-1.27,-0.33,7263.888888888889
-1.27,-0.32,7266.666666666667
-1.255,-0.35,7269.444444444444
-1.235,-0.365,7272.222222222223
-1.23,-0.375,7275.0
-1.225,-0.4,7277.777777777777
-1.225,-0.405,7280.555555555556
-1.22,-0.425,7283.333333333333
-1.26,-0.43,7286.111111111111
-1.24,-0.415,7288.888888888889
-1.215,-0.405,7291.666666666667
-1.205,-0.405,7294.444444444444
-1.22,-0.39,7297.222222222223
-1.205,-0.39,7300.0
-1.205,-0.405,7302.777777777777
-1.2,-0.4,7305.555555555556
-1.21,-0.415,7308.333333333333
-1.215,-0.44,7311.111111111111
-1.21,-0.45,7313.888888888889
-1.215,-0.43,7316.666666666667
-1.225,-0.435,7319.444444444444
-1.2,-0.43,7322.222222222223
-1.205,-0.405,7325.0
-1.195,-0.41,7327.777777777777
-1.19,-0.38,7330.555555555556
-1.17,-0.375,7333.333333333333
-1.17,-0.385,7336.111111111111
-1.175,-0.38,7338.888888888889
-1.17,-0.405,7341.666666666667
-1.18,-0.41,7344.444444444444
-1.19,-0.41,7347.222222222223
-1.185,-0.41,7350.0
-1.18,-0.42,7352.777777777777
-1.175,-0.41,7355.555555555556
-1.175,-0.41,7358.333333333333
-1.155,-0.395,7361.111111111111
-1.145,-0.395,7363.888888888889
-1.13,-0.385,7366.666666666667
-1.115,-0.395,7369.444444444444
-1.12,-0.395,7372.222222222223
-1.135,-0.415,7375.0
-1.135,-0.425,7377.777777777777
-1.145,-0.41,7380.555555555556
-1.14,-0.44,7383.333333333333
-1.135,-0.445,7386.111111111111
-1.145,-0.425,7388.888888888889
-1.13,-0.4,7391.666666666667
-1.13,-0.415,7394.444444444444
-1.125,-0.375,7397.222222222223
-1.115,-0.37,7400.0
-1.105,-0.39,7402.777777777777
-1.115,-0.405,7405.555555555556
-1.095,-0.42,7408.333333333333
-1.095,-0.425,7411.111111111111
-1.11,-0.42,7413.888888888889
-1.115,-0.43,7416.666666666667
-1.11,-0.44,7419.444444444444
-1.115,-0.445,7422.222222222223
-1.1,-0.44,7425.0
-1.12,-0.43,7427.777777777777
-1.095,-0.415,7430.555555555556
-1.08,-0.4,7433.333333333333
-1.085,-0.405,7436.111111111111
-1.08,-0.43,7438.888888888889
-1.08,-0.43,7441.666666666667
-1.075,-0.45,7444.444444444444
-1.085,-0.46,7447.222222222223
-1.1,-0.465,7450.0
-1.105,-0.47,7452.777777777777
-1.09,-0.47,7455.555555555556
-1.1,-0.455,7458.333333333333
-1.08,-0.455,7461.111111111111
-1.075,-0.435,7463.888888888889
-1.06,-0.435,7466.666666666667
-1.05,-0.445,7469.444444444444
-1.035,-0.45,7472.222222222223
-1.045,-0.43,7475.0
-1.055,-0.45,7477.777777777777
-1.06,-0.47,7480.555555555556
-1.07,-0.49,7483.333333333333
-1.065,-0.475,7486.111111111111
-1.08,-0.475,7488.888888888889
-1.08,-0.465,7491.666666666667
-1.06,-0.465,7494.444444444444
-1.045,-0.45,7497.222222222223
-1.035,-0.46,7500.0
-1.04,-0.45,7502.777777777777
-1.04,-0.455,7505.555555555556
-1.04,-0.46,7508.333333333333
-1.045,-0.47,7511.111111111111
-1.06,-0.47,7513.888888888889
-1.05,-0.475,7516.666666666667
-1.045,-0.485,7519.444444444444
-1.045,-0.48,7522.222222222223
-1.05,-0.475,7525.0
-1.03,-0.48,7527.777777777777
-1.035,-0.45,7530.555555555556
-1.015,-0.455,7533.333333333333
-1.015,-0.45,7536.111111111111
-1.02,-0.47,7538.888888888889
-1.025,-0.475,7541.666666666667
-1.02,-0.49,7544.444444444444
-1.03,-0.485,7547.222222222223
-1.03,-0.5,7550.0
-1.02,-0.515,7552.777777777777
-1.025,-0.505,7555.555555555556
-1.035,-0.51,7558.333333333333
-1.015,-0.49,7561.111111111111
-1.01,-0.475,7563.888888888889
-1.005,-0.475,7566.666666666667
-0.995,-0.47,7569.444444444444
-1.0,-0.49,7572.222222222223
-1.01,-0.475,7575.0
-1.01,-0.48,7577.777777777777
-1.015,-0.49,7580.555555555556
-1.025,-0.49,7583.333333333333
-1.03,-0.5,7586.111111111111
-1.025,-0.49,7588.888888888889
-1.015,-0.485,7591.666666666667
-1.01,-0.475,7594.444444444444
-0.98,-0.475,7597.222222222223
-0.975,-0.465,7600.0
-0.96,-0.465,7602.777777777777
-0.985,-0.48,7605.555555555556
-0.985,-0.49,7608.333333333333
-1.005,-0.5,7611.111111111111
-0.995,-0.52,7613.888888888889
-1.01,-0.52,7616.666666666667
-1.03,-0.52,7619.444444444444
-1.005,-0.525,7622.222222222223
-1.01,-0.515,7625.0
-0.995,-0.495,7627.777777777777
-0.975,-0.475,7630.555555555556
-0.965,-0.485,7633.333333333333
-0.96,-0.475,7636.111111111111
-0.955,-0.48,7638.888888888889
-0.97,-0.485,7641.666666666667
-0.99,-0.495,7644.444444444444
-0.985,-0.5,7647.222222222223
-1.005,-0.495,7650.0
-0.985,-0.52,7652.777777777777
-0.985,-0.51,7655.555555555556
-0.97,-0.505,7658.333333333333
-0.98,-0.49,7661.111111111111
-0.955,-0.49,7663.888888888889
-0.95,-0.48,7666.666666666667
-0.95,-0.495,7669.444444444444
-0.96,-0.505,7672.222222222223
-0.955,-0.505,7675.0
-0.98,-0.515,7677.777777777777
-0.98,-0.52,7680.555555555556
-0.985,-0.53,7683.333333333333
-0.985,-0.54,7686.111111111111
-0.99,-0.525,7688.888888888889
-0.97,-0.505,7691.666666666667
-0.96,-0.5,7694.444444444444
-0.96,-0.5,7697.222222222223
-0.945,-0.47,7700.0
-0.95,-0.48,7702.777777777777
-0.95,-0.485,7705.555555555556
-0.95,-0.48,7708.333333333333
-0.96,-0.51,7711.111111111111
-0.965,-0.515,7713.888888888889
-0.99,-0.515,7716.666666666667
-0.975,-0.52,7719.444444444444
-0.97,-0.53,7722.222222222223
-0.96,-0.52,7725.0
-0.96,-0.515,7727.777777777777
-0.965,-0.485,7730.555555555556
-0.93,-0.475,7733.333333333333
-0.945,-0.495,7736.111111111111
-0.95,-0.51,7738.888888888889
-0.955,-0.51,7741.666666666667
-0.965,-0.515,7744.444444444444
-0.965,-0.535,7747.222222222223
-0.975,-0.54,7750.0
-0.975,-0.525,7752.777777777777
-0.955,-0.525,7755.555555555556
-0.955,-0.515,7758.333333333333
-0.94,-0.51,7761.111111111111
-0.955,-0.47,7763.888888888889
-0.95,-0.495,7766.666666666667
-0.95,-0.48,7769.444444444444
-0.945,-0.51,7772.222222222223
-0.95,-0.5,7775.0
-0.955,-0.515,7777.777777777777
-0.96,-0.53,7780.555555555556
-0.965,-0.535,7783.333333333333
-0.97,-0.535,7786.111111111111
-0.96,-0.535,7788.888888888889
-0.96,-0.52,7791.666666666667
-0.955,-0.52,7794.444444444444
-0.935,-0.51,7797.222222222223
-0.945,-0.505,7800.0
-0.935,-0.515,7802.777777777777
-0.925,-0.51,7805.555555555556
-0.93,-0.51,7808.333333333333
-0.935,-0.51,7811.111111111111
-0.945,-0.51,7813.888888888889
-0.95,-0.525,7816.666666666667
-0.965,-0.53,7819.444444444444
-0.975,-0.525,7822.222222222223
-0.95,-0.505,7825.0
-0.935,-0.505,7827.777777777777
-0.95,-0.485,7830.555555555556
-0.925,-0.495,7833.333333333333
-0.915,-0.485,7836.111111111111
-0.925,-0.5,7838.888888888889
-0.925,-0.505,7841.666666666667
-0.93,-0.5,7844.444444444444
-0.93,-0.525,7847.222222222223
-0.935,-0.52,7850.0
-0.945,-0.55,7852.777777777777
-0.935,-0.55,7855.555555555556
-0.935,-0.53,7858.333333333333
-0.94,-0.52,7861.111111111111
-0.92,-0.49,7863.888888888889
-0.905,-0.495,7866.666666666667
-0.895,-0.505,7869.444444444444
-0.905,-0.51,7872.222222222223
-0.905,-0.515,7875.0
-0.91,-0.515,7877.777777777777
-0.92,-0.53,7880.555555555556
-0.935,-0.525,7883.333333333333
-0.96,-0.54,7886.111111111111
-0.955,-0.525,7888.888888888889
-0.925,-0.515,7891.666666666667
-0.92,-0.52,7894.444444444444
-0.92,-0.515,7897.222222222223
-0.915,-0.515,7900.0
-0.905,-0.51,7902.777777777777
-0.885,-0.52,7905.555555555556
-0.9,-0.515,7908.333333333333
-0.895,-0.53,7911.111111111111
-0.905,-0.55,7913.888888888889
-0.92,-0.54,7916.666666666667
-0.915,-0.565,7919.444444444444
-0.93,-0.55,7922.222222222223
-0.92,-0.545,7925.0
-0.92,-0.525,7927.777777777777
-0.92,-0.515,7930.555555555556
-0.915,-0.515,7933.333333333333
-0.885,-0.515,7936.111111111111
-0.885,-0.515,7938.888888888889
-0.885,-0.52,7941.666666666667
-0.91,-0.515,7944.444444444444
-0.925,-0.525,7947.222222222223
-0.935,-0.515,7950.0
-0.915,-0.52,7952.777777777777
-0.905,-0.54,7955.555555555556
-0.905,-0.51,7958.333333333333
-0.895,-0.515,7961.111111111111
-0.9,-0.505,7963.888888888889
-0.88,-0.5,7966.666666666667
-0.885,-0.505,7969.444444444444
-0.89,-0.51,7972.222222222223
-0.87,-0.515,7975.0
-0.89,-0.53,7977.777777777777
-0.905,-0.545,7980.555555555556
-0.91,-0.54,7983.333333333333
-0.93,-0.565,7986.111111111111
-0.93,-0.545,7988.888888888889
-0.925,-0.54,7991.666666666667
-0.895,-0.535,7994.444444444444
-0.89,-0.52,7997.222222222223
-0.87,-0.495,8000.0
-0.865,-0.51,8002.777777777777
-0.87,-0.5,8005.555555555556
-0.875,-0.51,8008.333333333333
-0.875,-0.52,8011.111111111111
-0.885,-0.53,8013.888888888889
-0.89,-0.53,8016.666666666667
-0.895,-0.545,8019.444444444444
-0.885,-0.53,8022.222222222223
-0.875,-0.515,8025.0
-0.85,-0.5,8027.777777777777
-0.825,-0.505,8030.555555555556
-0.81,-0.475,8033.333333333333
-0.775,-0.475,8036.111111111111
-0.775,-0.48,8038.888888888889
-0.765,-0.47,8041.666666666667
-0.78,-0.46,8044.444444444444
-0.775,-0.47,8047.222222222223
-0.745,-0.475,8050.0
-0.72,-0.465,8052.777777777777
-0.69,-0.455,8055.555555555556
-0.655,-0.445,8058.333333333333
-0.605,-0.425,8061.111111111111
-0.555,-0.425,8063.888888888889
-0.52,-0.415,8066.666666666667
-0.52,-0.435,8069.444444444444
-0.52,-0.47,8072.222222222223
-0.545,-0.51,8075.0
-0.545,-0.525,8077.777777777777
-0.58,-0.545,8080.555555555556
-0.575,-0.56,8083.333333333333
-0.575,-0.56,8086.111111111111
-0.575,-0.555,8088.888888888889
-0.585,-0.555,8091.666666666667
-0.605,-0.56,8094.444444444444
-0.645,-0.55,8097.222222222223
-0.685,-0.52,8100.0
-0.745,-0.535,8102.777777777777
-0.815,-0.545,8105.555555555556
-0.84,-0.555,8108.333333333333
-0.88,-0.55,8111.111111111111
-0.89,-0.565,8113.888888888889
-0.91,-0.555,8116.666666666667
-0.905,-0.57,8119.444444444444
-0.9,-0.575,8122.222222222223
-0.895,-0.57,8125.0
-0.895,-0.565,8127.777777777777
-0.89,-0.55,8130.555555555556
-0.88,-0.54,8133.333333333333
-0.885,-0.54,8136.111111111111
-0.885,-0.55,8138.888888888889
-0.89,-0.56,8141.666666666667
-0.895,-0.56,8144.444444444444
-0.915,-0.59,8147.222222222223
-0.91,-0.58,8150.0
-0.92,-0.58,8152.777777777777
-0.91,-0.585,8155.555555555556
-0.905,-0.57,8158.333333333333
-0.885,-0.55,8161.111111111111
-0.9,-0.555,8163.888888888889
-0.905,-0.55,8166.666666666667
-0.885,-0.555,8169.444444444444
-0.895,-0.555,8172.222222222223
-0.935,-0.55,8175.0
-0.965,-0.55,8177.777777777777
-0.98,-0.53,8180.555555555556
-0.95,-0.485,8183.333333333333
-0.875,-0.42,8186.111111111111
-0.735,-0.38,8188.888888888889
-0.525,-0.345,8191.666666666667
-0.26,-0.37,8194.444444444445
0.07,-0.425,8197.222222222223
0.435,-0.52,8200.0
0.795,-0.68,8202.777777777777
1.075,-0.885,8205.555555555555
1.275,-1.105,8208.333333333334
1.345,-1.3,8211.111111111111
1.32,-1.445,8213.888888888889
1.19,-1.525,8216.666666666666
0.935,-1.54,8219.444444444445
0.545,-1.51,8222.222222222223
0.045,-1.45,8225.0
-0.46,-1.38,8227.777777777777
-0.84,-1.295,8230.555555555555
-1.0,-1.2,8233.333333333334
-0.98,-1.115,8236.111111111111
-0.86,-1.015,8238.888888888889
-0.745,-0.925,8241.666666666666
-0.67,-0.865,8244.444444444445
-0.665,-0.805,8247.222222222223
-0.695,-0.74,8250.0
-0.78,-0.68,8252.777777777777
-0.83,-0.64,8255.555555555555
-0.885,-0.6,8258.333333333334
-0.91,-0.565,8261.111111111111
-0.93,-0.55,8263.888888888889
-0.905,-0.535,8266.666666666666
-0.895,-0.53,8269.444444444445
-0.89,-0.53,8272.222222222223
-0.9,-0.53,8275.0
-0.895,-0.53,8277.777777777777
-0.91,-0.535,8280.555555555555
-0.925,-0.53,8283.333333333334
-0.935,-0.53,8286.111111111111
-0.95,-0.525,8288.888888888889
-0.945,-0.5,8291.666666666666
-0.93,-0.5,8294.444444444445
-0.935,-0.49,8297.222222222223
-0.925,-0.485,8300.0
-0.91,-0.465,8302.777777777777
-0.915,-0.47,8305.555555555555
-0.935,-0.48,8308.333333333334
-0.935,-0.5,8311.111111111111
-0.935,-0.49,8313.888888888889
-0.96,-0.49,8316.666666666666
-0.985,-0.5,8319.444444444445
-0.96,-0.485,8322.222222222223
-0.955,-0.485,8325.0
-0.955,-0.465,8327.777777777777
-0.935,-0.465,8330.555555555555
-0.935,-0.46,8333.333333333334
-0.925,-0.455,8336.111111111111
-0.925,-0.465,8338.888888888889
-0.93,-0.45,8341.666666666666
-0.945,-0.47,8344.444444444445
-0.955,-0.495,8347.222222222223
-0.98,-0.495,8350.0
-0.97,-0.49,8352.777777777777
-0.955,-0.485,8355.555555555555
-0.95,-0.475,8358.333333333334
-0.94,-0.47,8361.111111111111
-0.935,-0.445,8363.888888888889
-0.925,-0.425,8366.666666666666
-0.92,-0.44,8369.444444444445
-0.93,-0.43,8372.222222222223
-0.92,-0.435,8375.0
-0.925,-0.44,8377.777777777777
-0.945,-0.465,8380.555555555555
-0.935,-0.46,8383.333333333334
-0.94,-0.48,8386.111111111111
-0.935,-0.47,8388.888888888889
-0.915,-0.465,8391.666666666666
-0.915,-0.44,8394.444444444445
-0.895,-0.43,8397.222222222223
-0.885,-0.425,8400.0
-0.875,-0.435,8402.777777777777
-0.87,-0.43,8405.555555555555
-0.875,-0.415,8408.333333333334
-0.86,-0.44,8411.111111111111
-0.865,-0.445,8413.888888888889
-0.88,-0.445,8416.666666666666
-0.87,-0.45,8419.444444444445
-0.85,-0.445,8422.222222222223
-0.85,-0.415,8425.0
-0.81,-0.415,8427.777777777777
-0.81,-0.405,8430.555555555555
-0.78,-0.385,8433.333333333334
-0.77,-0.39,8436.111111111111
-0.77,-0.375,8438.888888888889
-0.76,-0.375,8441.666666666666
-0.765,-0.395,8444.444444444445
-0.75,-0.4,8447.222222222223
-0.765,-0.415,8450.0
-0.74,-0.425,8452.777777777777
-0.73,-0.405,8455.555555555555
-0.695,-0.395,8458.333333333334
-0.67,-0.385,8461.111111111111
-0.65,-0.375,8463.888888888889
-0.62,-0.36,8466.666666666666
-0.605,-0.37,8469.444444444445
-0.595,-0.365,8472.222222222223
-0.575,-0.395,8475.0
-0.57,-0.4,8477.777777777777
-0.565,-0.4,8480.555555555555
-0.555,-0.405,8483.333333333334
-0.545,-0.405,8486.111111111111
-0.535,-0.41,8488.888888888889
-0.515,-0.395,8491.666666666666
-0.48,-0.39,8494.444444444445
-0.475,-0.37,8497.222222222223
-0.465,-0.36,8500.0
-0.435,-0.38,8502.777777777777
-0.425,-0.37,8505.555555555555
-0.41,-0.385,8508.333333333334
-0.41,-0.405,8511.111111111111
-0.42,-0.41,8513.888888888889
-0.4,-0.415,8516.666666666666
-0.405,-0.44,8519.444444444445
-0.38,-0.45,8522.222222222223
-0.36,-0.425,8525.0
-0.345,-0.43,8527.777777777777
-0.34,-0.43,8530.555555555555
-0.335,-0.42,8533.333333333334
-0.32,-0.42,8536.111111111111
-0.33,-0.44,8538.888888888889
-0.33,-0.45,8541.666666666666
-0.35,-0.465,8544.444444444445
-0.37,-0.47,8547.222222222223
-0.39,-0.475,8550.0
-0.415,-0.485,8552.777777777777
-0.445,-0.47,8555.555555555555
-0.45,-0.46,8558.333333333334
-0.475,-0.435,8561.111111111111
-0.485,-0.445,8563.888888888889
-0.51,-0.43,8566.666666666666
-0.52,-0.45,8569.444444444445
-0.545,-0.46,8572.222222222223
-0.58,-0.47,8575.0
-0.605,-0.48,8577.777777777777
-0.63,-0.495,8580.555555555555
-0.65,-0.51,8583.333333333334
-0.685,-0.505,8586.111111111111
-0.71,-0.505,8588.888888888889
-0.725,-0.49,8591.666666666666
-0.725,-0.5,8594.444444444445
-0.73,-0.485,8597.222222222223
-0.73,-0.46,8600.0
-0.735,-0.48,8602.777777777777
-0.755,-0.48,8605.555555555555
-0.775,-0.485,8608.333333333334
-0.78,-0.505,8611.111111111111
-0.795,-0.51,8613.888888888889
-0.81,-0.515,8616.666666666666
-0.805,-0.505,8619.444444444445
-0.8,-0.505,8622.222222222223
-0.795,-0.485,8625.0
-0.805,-0.475,8627.777777777777
-0.8,-0.46,8630.555555555555
-0.79,-0.455,8633.333333333334
-0.78,-0.46,8636.111111111111
-0.795,-0.465,8638.888888888889
-0.79,-0.455,8641.666666666666
-0.79,-0.475,8644.444444444445
-0.8,-0.48,8647.222222222223
-0.8,-0.5,8650.0
-0.82,-0.51,8652.777777777777
-0.815,-0.49,8655.555555555555
-0.795,-0.485,8658.333333333334
-0.79,-0.485,8661.111111111111
-0.78,-0.475,8663.888888888889
-0.77,-0.48,8666.666666666666
-0.775,-0.48,8669.444444444445
-0.775,-0.475,8672.222222222223
-0.77,-0.485,8675.0
-0.78,-0.5,8677.777777777777
-0.79,-0.5,8680.555555555555
-0.785,-0.5,8683.333333333334
-0.785,-0.5,8686.111111111111
-0.79,-0.495,8688.888888888889
-0.78,-0.49,8691.666666666666
-0.765,-0.495,8694.444444444445
-0.77,-0.465,8697.222222222223
-0.755,-0.47,8700.0
-0.76,-0.465,8702.777777777777
-0.775,-0.475,8705.555555555555
-0.77,-0.485,8708.333333333334
-0.775,-0.5,8711.111111111111
-0.785,-0.52,8713.888888888889
-0.79,-0.53,8716.666666666666
-0.795,-0.535,8719.444444444445
-0.805,-0.52,8722.222222222223
-0.8,-0.515,8725.0
-0.79,-0.49,8727.777777777777
-0.78,-0.485,8730.555555555555
-0.775,-0.46,8733.333333333334
-0.78,-0.49,8736.111111111111
-0.785,-0.495,8738.888888888889
-0.785,-0.495,8741.666666666666
-0.8,-0.51,8744.444444444445
-0.81,-0.515,8747.222222222223
-0.825,-0.495,8750.0
-0.825,-0.505,8752.777777777777
-0.84,-0.495,8755.555555555555
-0.825,-0.495,8758.333333333334
-0.81,-0.495,8761.111111111111
-0.8,-0.49,8763.888888888889
-0.79,-0.485,8766.666666666666
-0.795,-0.475,8769.444444444445
-0.8,-0.495,8772.222222222223
-0.83,-0.485,8775.0
-0.84,-0.51,8777.777777777777
-0.85,-0.51,8780.555555555555
-0.845,-0.52,8783.333333333334
-0.85,-0.525,8786.111111111111
-0.845,-0.525,8788.888888888889
-0.84,-0.525,8791.666666666666
-0.84,-0.495,8794.444444444445
-0.825,-0.505,8797.222222222223
-0.82,-0.495,8800.0
-0.825,-0.5,8802.777777777777
-0.83,-0.485,8805.555555555555
-0.845,-0.495,8808.333333333334
-0.88,-0.5,8811.111111111111
-0.88,-0.495,8813.888888888889
-0.88,-0.515,8816.666666666666
-0.89,-0.505,8819.444444444445
-0.89,-0.51,8822.222222222223
-0.895,-0.495,8825.0
-0.9,-0.48,8827.777777777777
-0.89,-0.49,8830.555555555555
-0.87,-0.475,8833.333333333334
-0.885,-0.475,8836.111111111111
-0.87,-0.49,8838.888888888889
-0.87,-0.485,8841.666666666666
-0.89,-0.505,8844.444444444445
-0.895,-0.525,8847.222222222223
-0.905,-0.53,8850.0
-0.9,-0.535,8852.777777777777
-0.91,-0.52,8855.555555555555
-0.9,-0.54,8858.333333333334
-0.91,-0.515,8861.111111111111
-0.89,-0.505,8863.888888888889
-0.88,-0.48,8866.666666666666
-0.87,-0.5,8869.444444444445
-0.88,-0.49,8872.222222222223
-0.875,-0.5,8875.0
-0.89,-0.505,8877.777777777777
-0.885,-0.51,8880.555555555555
-0.915,-0.51,8883.333333333334
-0.905,-0.52,8886.111111111111
-0.925,-0.505,8888.888888888889
-0.905,-0.505,8891.666666666666
-0.88,-0.5,8894.444444444445
-0.88,-0.49,8897.222222222223
-0.885,-0.485,8900.0
-0.875,-0.48,8902.777777777777
-0.88,-0.49,8905.555555555555
-0.88,-0.49,8908.333333333334
-0.89,-0.52,8911.111111111111
-0.9,-0.515,8913.888888888889
-0.91,-0.53,8916.666666666666
-0.92,-0.535,8919.444444444445
-0.92,-0.52,8922.222222222223
-0.895,-0.51,8925.0
-0.89,-0.515,8927.777777777777
-0.885,-0.51,8930.555555555555
-0.875,-0.5,8933.333333333334
-0.89,-0.485,8936.111111111111
-0.89,-0.495,8938.888888888889
-0.885,-0.505,8941.666666666666
-0.88,-0.5,8944.444444444445
-0.895,-0.515,8947.222222222223
-0.885,-0.515,8950.0
-0.885,-0.49,8952.777777777777
-0.895,-0.505,8955.555555555555
-0.85,-0.495,8958.333333333334
-0.83,-0.485,8961.111111111111
-0.805,-0.475,8963.888888888889
-0.78,-0.46,8966.666666666666
-0.76,-0.435,8969.444444444445
-0.75,-0.425,8972.222222222223
-0.745,-0.43,8975.0
-0.725,-0.43,8977.777777777777
-0.72,-0.445,8980.555555555555
-0.72,-0.43,8983.333333333334
-0.7,-0.435,8986.111111111111
-0.69,-0.445,8988.888888888889
-0.655,-0.4,8991.666666666666
-0.59,-0.4,8994.444444444445
-0.56,-0.405,8997.222222222223
-0.52,-0.39,9000.0
-0.495,-0.41,9002.777777777777
-0.515,-0.435,9005.555555555555
-0.535,-0.455,9008.333333333334
-0.565,-0.48,9011.111111111111
-0.57,-0.51,9013.888888888889
-0.565,-0.525,9016.666666666666
-0.585,-0.535,9019.444444444445
-0.575,-0.54,9022.222222222223
-0.59,-0.53,9025.0
-0.595,-0.525,9027.777777777777
-0.605,-0.52,9030.555555555555
-0.65,-0.52,9033.333333333334
-0.705,-0.53,9036.111111111111
-0.755,-0.535,9038.888888888889
-0.805,-0.525,9041.666666666666
-0.86,-0.53,9044.444444444445
-0.895,-0.56,9047.222222222223
-0.89,-0.55,9050.0
-0.915,-0.57,9052.777777777777
-0.9,-0.555,9055.555555555555
-0.915,-0.575,9058.333333333334
-0.89,-0.57,9061.111111111111
-0.905,-0.565,9063.888888888889
-0.89,-0.54,9066.666666666666
-0.89,-0.54,9069.444444444445
-0.91,-0.535,9072.222222222223
-0.93,-0.56,9075.0
-0.945,-0.58,9077.777777777777
-0.94,-0.59,9080.555555555555
-0.945,-0.595,9083.333333333334
-0.94,-0.595,9086.111111111111
-0.945,-0.595,9088.888888888889
-0.925,-0.585,9091.666666666666
-0.925,-0.565,9094.444444444445
-0.915,-0.565,9097.222222222223
-0.91,-0.555,9100.0
-0.905,-0.54,9102.777777777777
-0.91,-0.535,9105.555555555555
-0.91,-0.555,9108.333333333334
-0.9,-0.55,9111.111111111111
-0.93,-0.59,9113.888888888889
-0.93,-0.565,9116.666666666666
-0.94,-0.555,9119.444444444445
-0.97,-0.57,9122.222222222223
-0.975,-0.525,9125.0
-0.975,-0.48,9127.777777777777
-0.93,-0.41,9130.555555555555
-0.85,-0.355,9133.333333333334
-0.7,-0.32,9136.111111111111
-0.5,-0.315,9138.888888888889
-0.185,-0.365,9141.666666666666
0.155,-0.495,9144.444444444445
0.535,-0.67,9147.222222222223
0.88,-0.885,9150.0
1.13,-1.125,9152.777777777777
1.28,-1.35,9155.555555555555
1.29,-1.53,9158.333333333334
1.23,-1.625,9161.111111111111
1.035,-1.64,9163.888888888889
0.71,-1.595,9166.666666666666
0.25,-1.545,9169.444444444445
-0.285,-1.485,9172.222222222223
-0.715,-1.41,9175.0
-0.99,-1.335,9177.777777777777
-1.07,-1.24,9180.555555555555
-0.975,-1.145,9183.333333333334
-0.855,-1.05,9186.111111111111
-0.72,-0.965,9188.888888888889
-0.665,-0.86,9191.666666666666
-0.67,-0.78,9194.444444444445
-0.71,-0.7,9197.222222222223
-0.77,-0.645,9200.0
-0.825,-0.605,9202.777777777777
-0.87,-0.58,9205.555555555555
-0.89,-0.55,9208.333333333334
-0.905,-0.555,9211.111111111111
-0.915,-0.57,9213.888888888889
-0.92,-0.555,9216.666666666666
-0.9,-0.555,9219.444444444445
-0.915,-0.535,9222.222222222223
-0.92,-0.535,9225.0
-0.91,-0.525,9227.777777777777
-0.895,-0.505,9230.555555555555
-0.895,-0.49,9233.333333333334
-0.9,-0.505,9236.111111111111
-0.915,-0.51,9238.888888888889
-0.92,-0.48,9241.666666666666
-0.935,-0.505,9244.444444444445
-0.94,-0.51,9247.222222222223
-0.935,-0.505,9250.0
-0.94,-0.51,9252.777777777777
-0.95,-0.505,9255.555555555555
-0.95,-0.485,9258.333333333334
-0.93,-0.49,9261.111111111111
-0.93,-0.48,9263.888888888889
-0.905,-0.475,9266.666666666666
-0.9,-0.46,9269.444444444445
-0.905,-0.475,9272.222222222223
-0.925,-0.48,9275.0
-0.92,-0.49,9277.777777777777
-0.93,-0.5,9280.555555555555
-0.945,-0.49,9283.333333333334
-0.94,-0.505,9286.111111111111
-0.94,-0.51,9288.888888888889
-0.935,-0.505,9291.666666666666
-0.915,-0.48,9294.444444444445
-0.91,-0.475,9297.222222222223
-0.91,-0.475,9300.0
-0.89,-0.475,9302.777777777777
-0.895,-0.475,9305.555555555555
-0.9,-0.485,9308.333333333334
-0.92,-0.475,9311.111111111111
-0.915,-0.49,9313.888888888889
-0.925,-0.495,9316.666666666666
-0.92,-0.495,9319.444444444445
-0.93,-0.485,9322.222222222223
-0.94,-0.495,9325.0
-0.9,-0.465,9327.777777777777
-0.88,-0.465,9330.555555555555
-0.865,-0.455,9333.333333333334
-0.86,-0.465,9336.111111111111
-0.855,-0.45,9338.888888888889
-0.855,-0.465,9341.666666666666
-0.855,-0.485,9344.444444444445
-0.85,-0.48,9347.222222222223
-0.86,-0.51,9350.0
-0.845,-0.495,9352.777777777777
-0.865,-0.5,9355.555555555555
-0.84,-0.49,9358.333333333334
-0.815,-0.49,9361.111111111111
-0.82,-0.46,9363.888888888889
-0.8,-0.48,9366.666666666666
-0.775,-0.455,9369.444444444445
-0.775,-0.47,9372.222222222223
-0.755,-0.455,9375.0
-0.765,-0.47,9377.777777777777
-0.735,-0.475,9380.555555555555
-0.74,-0.47,9383.333333333334
-0.73,-0.475,9386.111111111111
-0.71,-0.475,9388.888888888889
-0.705,-0.465,9391.666666666666
-0.67,-0.45,9394.444444444445
-0.665,-0.445,9397.222222222223
-0.62,-0.43,9400.0
-0.595,-0.435,9402.777777777777
-0.565,-0.44,9405.555555555555
-0.56,-0.46,9408.333333333334
-0.54,-0.455,9411.111111111111
-0.535,-0.465,9413.888888888889
-0.535,-0.485,9416.666666666666
-0.515,-0.49,9419.444444444445
-0.5,-0.465,9422.222222222223
-0.475,-0.455,9425.0
-0.445,-0.445,9427.777777777777
-0.41,-0.43,9430.555555555555
-0.38,-0.415,9433.333333333334
-0.36,-0.425,9436.111111111111
-0.35,-0.41,9438.888888888889
-0.33,-0.415,9441.666666666666
-0.345,-0.43,9444.444444444445
-0.335,-0.45,9447.222222222223
-0.32,-0.46,9450.0
-0.33,-0.47,9452.777777777777
-0.32,-0.475,9455.555555555555
-0.325,-0.47,9458.333333333334
-0.295,-0.48,9461.111111111111
-0.31,-0.46,9463.888888888889
-0.3,-0.45,9466.666666666666
-0.31,-0.47,9469.444444444445
-0.325,-0.465,9472.222222222223
-0.345,-0.48,9475.0
-0.39,-0.495,9477.777777777777
-0.405,-0.505,9480.555555555555
-0.435,-0.495,9483.333333333334
-0.455,-0.505,9486.111111111111
-0.5,-0.49,9488.888888888889
-0.515,-0.5,9491.666666666666
-0.535,-0.475,9494.444444444445
-0.565,-0.465,9497.222222222223
-0.595,-0.465,9500.0
-0.61,-0.45,9502.777777777777
-0.635,-0.46,9505.555555555555
-0.67,-0.46,9508.333333333334
-0.705,-0.49,9511.111111111111
-0.725,-0.49,9513.888888888889
-0.75,-0.5,9516.666666666666
-0.775,-0.51,9519.444444444445
-0.785,-0.515,9522.222222222223
-0.795,-0.515,9525.0
-0.8,-0.485,9527.777777777777
-0.81,-0.485,9530.555555555555
-0.8,-0.475,9533.333333333334
-0.82,-0.495,9536.111111111111
-0.845,-0.505,9538.888888888889
-0.84,-0.515,9541.666666666666
-0.86,-0.515,9544.444444444445
-0.885,-0.535,9547.222222222223
-0.87,-0.53,9550.0
-0.865,-0.535,9552.777777777777
-0.885,-0.525,9555.555555555555
-0.88,-0.515,9558.333333333334
-0.875,-0.505,9561.111111111111
-0.855,-0.495,9563.888888888889
-0.86,-0.48,9566.666666666666
-0.85,-0.49,9569.444444444445
-0.87,-0.495,9572.222222222223
-0.86,-0.495,9575.0
-0.855,-0.515,9577.777777777777
-0.865,-0.535,9580.555555555555
-0.865,-0.515,9583.333333333334
-0.91,-0.52,9586.111111111111
-0.905,-0.53,9588.888888888889
-0.895,-0.51,9591.666666666666
-0.885,-0.51,9594.444444444445
-0.85,-0.5,9597.222222222223
-0.855,-0.505,9600.0
-0.84,-0.515,9602.777777777777
-0.845,-0.495,9605.555555555555
-0.83,-0.525,9608.333333333334
-0.86,-0.51,9611.111111111111
-0.86,-0.52,9613.888888888889
-0.875,-0.535,9616.666666666666
-0.87,-0.52,9619.444444444445
-0.89,-0.555,9622.222222222223
-0.875,-0.53,9625.0
-0.85,-0.51,9627.777777777777
-0.85,-0.49,9630.555555555555
-0.835,-0.49,9633.333333333334
-0.83,-0.51,9636.111111111111
-0.835,-0.5,9638.888888888889
-0.84,-0.5,9641.666666666666
-0.835,-0.525,9644.444444444445
-0.845,-0.535,9647.222222222223
-0.86,-0.545,9650.0
-0.86,-0.55,9652.777777777777
-0.885,-0.55,9655.555555555555
-0.865,-0.535,9658.333333333334
-0.85,-0.53,9661.111111111111
-0.845,-0.52,9663.888888888889
-0.845,-0.53,9666.666666666666
-0.83,-0.53,9669.444444444445
-0.83,-0.515,9672.222222222223
-0.84,-0.515,9675.0
-0.845,-0.545,9677.777777777777
-0.855,-0.535,9680.555555555555
-0.865,-0.55,9683.333333333334
-0.865,-0.55,9686.111111111111
-0.875,-0.54,9688.888888888889
-0.87,-0.53,9691.666666666666
-0.86,-0.54,9694.444444444445
-0.84,-0.53,9697.222222222223
-0.84,-0.515,9700.0
-0.84,-0.515,9702.777777777777
-0.84,-0.525,9705.555555555555
-0.86,-0.54,9708.333333333334
-0.88,-0.535,9711.111111111111
-0.895,-0.55,9713.888888888889
-0.895,-0.565,9716.666666666666
-0.89,-0.57,9719.444444444445
-0.895,-0.575,9722.222222222223
-0.9,-0.57,9725.0
-0.89,-0.555,9727.777777777777
-0.875,-0.54,9730.555555555555
-0.865,-0.55,9733.333333333334
-0.865,-0.53,9736.111111111111
-0.87,-0.54,9738.888888888889
-0.895,-0.535,9741.666666666666
-0.89,-0.555,9744.444444444445
-0.905,-0.57,9747.222222222223
-0.905,-0.57,9750.0
-0.91,-0.55,9752.777777777777
-0.915,-0.55,9755.555555555555
-0.905,-0.555,9758.333333333334
-0.89,-0.545,9761.111111111111
-0.885,-0.54,9763.888888888889
-0.875,-0.515,9766.666666666666
-0.875,-0.51,9769.444444444445
-0.875,-0.53,9772.222222222223
-0.905,-0.55,9775.0
-0.885,-0.555,9777.777777777777
-0.895,-0.565,9780.555555555555
-0.91,-0.565,9783.333333333334
-0.905,-0.57,9786.111111111111
-0.91,-0.58,9788.888888888889
-0.91,-0.58,9791.666666666666
-0.88,-0.555,9794.444444444445
-0.875,-0.545,9797.222222222223
-0.88,-0.545,9800.0
-0.89,-0.52,9802.777777777777
-0.89,-0.535,9805.555555555555
-0.91,-0.535,9808.333333333334
-0.91,-0.545,9811.111111111111
-0.92,-0.55,9813.888888888889
-0.905,-0.565,9816.666666666666
-0.92,-0.56,9819.444444444445
-0.915,-0.58,9822.222222222223
-0.915,-0.555,9825.0
-0.905,-0.55,9827.777777777777
-0.89,-0.54,9830.555555555555
-0.875,-0.535,9833.333333333334
-0.855,-0.525,9836.111111111111
-0.845,-0.525,9838.888888888889
-0.835,-0.525,9841.666666666666
-0.825,-0.52,9844.444444444445
-0.82,-0.515,9847.222222222223
-0.815,-0.51,9850.0
-0.8,-0.52,9852.777777777777
-0.795,-0.505,9855.555555555555
-0.77,-0.475,9858.333333333334
-0.755,-0.465,9861.111111111111
-0.725,-0.44,9863.888888888889
-0.715,-0.43,9866.666666666666
-0.665,-0.41,9869.444444444445
-0.63,-0.41,9872.222222222223
-0.585,-0.425,9875.0
-0.585,-0.445,9877.777777777777
-0.56,-0.47,9880.555555555555
-0.57,-0.495,9883.333333333334
-0.585,-0.53,9886.111111111111
-0.59,-0.545,9888.888888888889
-0.59,-0.56,9891.666666666666
-0.58,-0.55,9894.444444444445
-0.565,-0.565,9897.222222222223
-0.575,-0.565,9900.0
-0.59,-0.55,9902.777777777777
-0.63,-0.585,9905.555555555555
-0.695,-0.6,9908.333333333334
-0.755,-0.59,9911.111111111111
-0.815,-0.6,9913.888888888889
-0.875,-0.585,9916.666666666666
-0.905,-0.585,9919.444444444445
-0.94,-0.59,9922.222222222223
-0.95,-0.595,9925.0
-0.935,-0.575,9927.777777777777
-0.92,-0.555,9930.555555555555
-0.93,-0.56,9933.333333333334
-0.91,-0.565,9936.111111111111
-0.92,-0.58,9938.888888888889
-0.93,-0.585,9941.666666666666
-0.93,-0.595,9944.444444444445
-0.96,-0.605,9947.222222222223
-0.955,-0.62,9950.0
-0.975,-0.63,9952.777777777777
-0.98,-0.615,9955.555555555555
-0.96,-0.605,9958.333333333334
-0.95,-0.595,9961.111111111111
-0.945,-0.58,9963.888888888889
-0.945,-0.59,9966.666666666666
-0.935,-0.585,9969.444444444445
-0.935,-0.6,9972.222222222223
-0.94,-0.605,9975.0
-0.96,-0.585,9977.777777777777
-0.97,-0.62,9980.555555555555
-0.96,-0.615,9983.333333333334
-0.97,-0.6,9986.111111111111
-0.97,-0.625,9988.888888888889
-0.985,-0.61,9991.666666666666
-0.975,-0.58,9994.444444444445
-0.97,-0.595,9997.222222222223
-0.98,-0.575,10000.0
-1.005,-0.57,10002.777777777777
-1.01,-0.53,10005.555555555555
-1.0,-0.49,10008.333333333334
-0.935,-0.465,10011.111111111111
-0.84,-0.395,10013.888888888889
-0.685,-0.385,10016.666666666666
-0.475,-0.4,10019.444444444445
-0.17,-0.455,10022.222222222223
0.195,-0.575,10025.0
0.575,-0.73,10027.777777777777
0.895,-0.93,10030.555555555555
1.135,-1.145,10033.333333333334
1.265,-1.345,10036.111111111111
1.285,-1.49,10038.888888888889
1.2,-1.565,10041.666666666666
0.985,-1.58,10044.444444444445
0.67,-1.53,10047.222222222223
0.235,-1.53,10050.0
-0.31,-1.47,10052.777777777777
-0.76,-1.39,10055.555555555555
-1.06,-1.295,10058.333333333334
-1.14,-1.205,10061.111111111111
-1.055,-1.12,10063.888888888889
-0.915,-1.02,10066.666666666666
-0.775,-0.925,10069.444444444445
-0.7,-0.87,10072.222222222223
-0.705,-0.8,10075.0
-0.77,-0.76,10077.777777777777
-0.835,-0.71,10080.555555555555
-0.905,-0.68,10083.333333333334
-0.94,-0.65,10086.111111111111
-0.985,-0.62,10088.888888888889
-0.985,-0.605,10091.666666666666
-0.965,-0.59,10094.444444444445
-0.95,-0.595,10097.222222222223
-0.95,-0.555,10100.0
-0.94,-0.555,10102.777777777777
-0.955,-0.55,10105.555555555555
-0.965,-0.535,10108.333333333334
-0.97,-0.535,10111.111111111111
-0.975,-0.535,10113.888888888889
-0.99,-0.54,10116.666666666666
-1.01,-0.555,10119.444444444445
-1.005,-0.545,10122.222222222223
-1.015,-0.55,10125.0
-0.99,-0.54,10127.777777777777
-0.98,-0.525,10130.555555555555
-0.975,-0.52,10133.333333333334
-0.96,-0.51,10136.111111111111
-0.975,-0.505,10138.888888888889
-0.98,-0.525,10141.666666666666
-0.98,-0.515,10144.444444444445
-0.995,-0.54,10147.222222222223
-1.005,-0.55,10150.0
-1.01,-0.55,10152.777777777777
-1.015,-0.535,10155.555555555555
-1.03,-0.54,10158.333333333334
-1.005,-0.54,10161.111111111111
-0.995,-0.52,10163.888888888889
-0.98,-0.5,10166.666666666666
-0.975,-0.48,10169.444444444445
-0.99,-0.495,10172.222222222223
-0.99,-0.48,10175.0
-0.99,-0.495,10177.777777777777
-0.99,-0.51,10180.555555555555
-1.0,-0.525,10183.333333333334
-0.995,-0.515,10186.111111111111
-1.0,-0.51,10188.888888888889
-1.01,-0.5,10191.666666666666
-0.995,-0.51,10194.444444444445
-0.985,-0.495,10197.222222222223
-0.965,-0.485,10200.0
-0.97,-0.485,10202.777777777777
-0.985,-0.475,10205.555555555555
-0.975,-0.485,10208.333333333334
-0.97,-0.505,10211.111111111111
-0.975,-0.505,10213.888888888889
-0.975,-0.515,10216.666666666666
-0.97,-0.51,10219.444444444445
-0.97,-0.51,10222.222222222223
-0.97,-0.505,10225.0
-0.96,-0.485,10227.777777777777
-0.92,-0.485,10230.555555555555
-0.895,-0.475,10233.333333333334
-0.88,-0.475,10236.111111111111
-0.87,-0.475,10238.888888888889
-0.865,-0.47,10241.666666666666
-0.865,-0.48,10244.444444444445
-0.88,-0.49,10247.222222222223
-0.88,-0.495,10250.0
-0.865,-0.505,10252.777777777777
-0.865,-0.5,10255.555555555555
-0.86,-0.48,10258.333333333334
-0.83,-0.48,10261.111111111111
-0.81,-0.455,10263.888888888889
-0.795,-0.47,10266.666666666666
-0.755,-0.46,10269.444444444445
-0.76,-0.455,10272.222222222223
-0.75,-0.475,10275.0
-0.74,-0.505,10277.777777777777
-0.715,-0.5,10280.555555555555
-0.705,-0.5,10283.333333333334
-0.68,-0.505,10286.111111111111
-0.66,-0.505,10288.888888888889
-0.635,-0.495,10291.666666666666
-0.61,-0.495,10294.444444444445
-0.565,-0.47,10297.222222222223
-0.55,-0.45,10300.0
-0.53,-0.465,10302.777777777777
-0.525,-0.47,10305.555555555555
-0.51,-0.485,10308.333333333334
-0.485,-0.495,10311.111111111111
-0.475,-0.515,10313.888888888889
-0.475,-0.525,10316.666666666666
-0.46,-0.53,10319.444444444445
-0.455,-0.525,10322.222222222223
-0.43,-0.53,10325.0
-0.41,-0.52,10327.777777777777
-0.395,-0.52,10330.555555555555
-0.39,-0.525,10333.333333333334
-0.36,-0.5,10336.111111111111
-0.37,-0.52,10338.888888888889
-0.375,-0.53,10341.666666666666
-0.38,-0.525,10344.444444444445
-0.41,-0.53,10347.222222222223
-0.425,-0.54,10350.0
-0.46,-0.53,10352.777777777777
-0.47,-0.535,10355.555555555555
-0.49,-0.525,10358.333333333334
-0.495,-0.5,10361.111111111111
-0.535,-0.495,10363.888888888889
-0.555,-0.47,10366.666666666666
-0.57,-0.475,10369.444444444445
-0.6,-0.485,10372.222222222223
-0.635,-0.465,10375.0
-0.68,-0.485,10377.777777777777
-0.71,-0.485,10380.555555555555
-0.745,-0.495,10383.333333333334
-0.78,-0.505,10386.111111111111
-0.795,-0.49,10388.888888888889
-0.82,-0.505,10391.666666666666
-0.835,-0.495,10394.444444444445
-0.84,-0.485,10397.222222222223
-0.845,-0.475,10400.0
-0.87,-0.47,10402.777777777777
-0.87,-0.485,10405.555555555555
-0.905,-0.48,10408.333333333334
-0.92,-0.48,10411.111111111111
-0.945,-0.5,10413.888888888889
-0.95,-0.52,10416.666666666666
-0.955,-0.505,10419.444444444445
-0.96,-0.495,10422.222222222223
-0.975,-0.5,10425.0
-0.97,-0.51,10427.777777777777
-0.96,-0.49,10430.555555555555
-0.95,-0.465,10433.333333333334
-0.955,-0.47,10436.111111111111
-0.955,-0.475,10438.888888888889
-0.955,-0.485,10441.666666666666
-0.965,-0.495,10444.444444444445
-0.97,-0.505,10447.222222222223
-0.995,-0.52,10450.0
-1.005,-0.525,10452.777777777777
-1.0,-0.52,10455.555555555555
-0.985,-0.51,10458.333333333334
-1.0,-0.495,10461.111111111111
-0.98,-0.495,10463.888888888889
-0.965,-0.49,10466.666666666666
-0.955,-0.47,10469.444444444445
-0.97,-0.475,10472.222222222223
-0.97,-0.47,10475.0
-0.96,-0.485,10477.777777777777
-0.98,-0.495,10480.555555555555
-0.975,-0.505,10483.333333333334
-0.98,-0.515,10486.111111111111
-0.98,-0.5,10488.888888888889
-0.985,-0.505,10491.666666666666
-0.965,-0.49,10494.444444444445
-0.94,-0.49,10497.222222222223
-0.93,-0.475,10500.0
-0.915,-0.475,10502.777777777777
-0.93,-0.485,10505.555555555555
-0.915,-0.485,10508.333333333334
-0.93,-0.505,10511.111111111111
-0.94,-0.51,10513.888888888889
-0.95,-0.535,10516.666666666666
-0.945,-0.525,10519.444444444445
-0.94,-0.52,10522.222222222223
-0.945,-0.52,10525.0
-0.94,-0.51,10527.777777777777
-0.935,-0.495,10530.555555555555
-0.935,-0.48,10533.333333333334
-0.91,-0.455,10536.111111111111
-0.925,-0.475,10538.888888888889
-0.92,-0.465,10541.666666666666
-0.935,-0.475,10544.444444444445
-0.93,-0.49,10547.222222222223
-0.945,-0.5,10550.0
-0.94,-0.52,10552.777777777777
-0.96,-0.51,10555.555555555555
-0.95,-0.515,10558.333333333334
-0.95,-0.505,10561.111111111111
-0.93,-0.48,10563.888888888889
-0.94,-0.48,10566.666666666666
-0.935,-0.475,10569.444444444445
-0.92,-0.485,10572.222222222223
-0.935,-0.49,10575.0
-0.945,-0.505,10577.777777777777
-0.955,-0.515,10580.555555555555
-0.95,-0.52,10583.333333333334
-0.965,-0.52,10586.111111111111
-0.965,-0.52,10588.888888888889
-0.97,-0.505,10591.666666666666
-0.96,-0.49,10594.444444444445
-0.975,-0.5,10597.222222222223
-0.965,-0.455,10600.0
-0.96,-0.46,10602.777777777777
-0.95,-0.48,10605.555555555555
-0.96,-0.475,10608.333333333334
-0.97,-0.495,10611.111111111111
-0.975,-0.505,10613.888888888889
-0.99,-0.515,10616.666666666666
-0.995,-0.52,10619.444444444445
-0.99,-0.515,10622.222222222223
-0.99,-0.5,10625.0
-0.98,-0.505,10627.777777777777
-0.975,-0.49,10630.555555555555
-0.975,-0.485,10633.333333333334
-0.955,-0.49,10636.111111111111
-0.975,-0.49,10638.888888888889
-0.98,-0.49,10641.666666666666
-0.985,-0.5,10644.444444444445
-0.995,-0.51,10647.222222222223
-0.99,-0.52,10650.0
-0.985,-0.53,10652.777777777777
-1.0,-0.51,10655.555555555555
-0.995,-0.505,10658.333333333334
-0.99,-0.49,10661.111111111111
-0.99,-0.475,10663.888888888889
-0.99,-0.475,10666.666666666666
-0.99,-0.475,10669.444444444445
-0.985,-0.48,10672.222222222223
-0.985,-0.48,10675.0
-0.995,-0.5,10677.777777777777
-1.01,-0.515,10680.555555555555
-1.01,-0.515,10683.333333333334
-1.005,-0.515,10686.111111111111
-0.99,-0.515,10688.888888888889
-0.99,-0.515,10691.666666666666
-0.97,-0.495,10694.444444444445
-0.935,-0.47,10697.222222222223
-0.91,-0.46,10700.0
-0.885,-0.44,10702.777777777777
-0.86,-0.415,10705.555555555555
-0.85,-0.445,10708.333333333334
-0.85,-0.43,10711.111111111111
-0.84,-0.435,10713.888888888889
-0.83,-0.435,10716.666666666666
-0.81,-0.44,10719.444444444445
-0.8,-0.43,10722.222222222223
-0.75,-0.425,10725.0
-0.71,-0.415,10727.777777777777
-0.67,-0.41,10730.555555555555
-0.65,-0.415,10733.333333333334
-0.64,-0.425,10736.111111111111
-0.64,-0.46,10738.888888888889
-0.665,-0.495,10741.666666666666
-0.68,-0.515,10744.444444444445
-0.69,-0.535,10747.222222222223
-0.685,-0.54,10750.0
-0.71,-0.55,10752.777777777777
-0.73,-0.555,10755.555555555555
-0.775,-0.54,10758.333333333334
-0.815,-0.525,10761.111111111111
-0.865,-0.52,10763.888888888889
-0.905,-0.52,10766.666666666666
-0.935,-0.49,10769.444444444445
-0.965,-0.48,10772.222222222223
-0.995,-0.48,10775.0
-1.005,-0.505,10777.777777777777
-1.025,-0.52,10780.555555555555
-1.035,-0.535,10783.333333333334
-1.045,-0.545,10786.111111111111
-1.04,-0.545,10788.888888888889
-1.025,-0.545,10791.666666666666
-1.035,-0.54,10794.444444444445
-1.035,-0.53,10797.222222222223
-1.035,-0.505,10800.0
-1.02,-0.51,10802.777777777777
-1.02,-0.51,10805.555555555555
-1.035,-0.525,10808.333333333334
-1.05,-0.55,10811.111111111111
-1.05,-0.565,10813.888888888889
-1.055,-0.58,10816.666666666666
-1.075,-0.58,10819.444444444445
-1.065,-0.58,10822.222222222223
-1.06,-0.565,10825.0
-1.06,-0.545,10827.777777777777
-1.065,-0.535,10830.555555555555
-1.035,-0.525,10833.333333333334
-1.045,-0.51,10836.111111111111
-1.025,-0.515,10838.888888888889
-1.04,-0.5,10841.666666666666
-1.045,-0.52,10844.444444444445
-1.055,-0.53,10847.222222222223
-1.055,-0.545,10850.0
-1.055,-0.56,10852.777777777777
-1.055,-0.54,10855.555555555555
-1.06,-0.55,10858.333333333334
-1.07,-0.53,10861.111111111111
-1.075,-0.51,10863.888888888889
-1.085,-0.475,10866.666666666666
-1.06,-0.445,10869.444444444445
-1.025,-0.385,10872.222222222223
-0.94,-0.34,10875.0
-0.78,-0.31,10877.777777777777
-0.575,-0.33,10880.555555555555
-0.29,-0.4,10883.333333333334
0.05,-0.53,10886.111111111111
0.41,-0.67,10888.888888888889
0.74,-0.855,10891.666666666666
0.995,-1.05,10894.444444444445
1.145,-1.255,10897.222222222223
1.19,-1.395,10900.0
1.13,-1.505,10902.777777777777
0.955,-1.535,10905.555555555555
0.63,-1.515,10908.333333333334
0.19,-1.485,10911.111111111111
-0.34,-1.42,10913.888888888889
-0.805,-1.37,10916.666666666666
-1.11,-1.3,10919.444444444445
-1.2,-1.2,10922.222222222223
-1.125,-1.105,10925.0
-0.985,-1.0,10927.777777777777
-0.83,-0.925,10930.555555555555
-0.755,-0.845,10933.333333333334
-0.75,-0.775,10936.111111111111
-0.805,-0.73,10938.888888888889
-0.88,-0.685,10941.666666666666
-0.93,-0.635,10944.444444444445
-0.985,-0.605,10947.222222222223
-1.01,-0.595,10950.0
-1.03,-0.575,10952.777777777777
-1.02,-0.575,10955.555555555555
-1.02,-0.555,10958.333333333334
-1.01,-0.52,10961.111111111111
-1.005,-0.5,10963.888888888889
-0.995,-0.475,10966.666666666666
-1.0,-0.475,10969.444444444445
-1.0,-0.465,10972.222222222223
-1.015,-0.47,10975.0
-1.025,-0.485,10977.777777777777
-1.04,-0.485,10980.555555555555
-1.035,-0.5,10983.333333333334
-1.04,-0.485,10986.111111111111
-1.03,-0.49,10988.888888888889
-1.04,-0.48,10991.666666666666
-1.02,-0.47,10994.444444444445
-1.02,-0.46,10997.222222222223
-1.02,-0.45,11000.0
-1.015,-0.445,11002.777777777777
-1.01,-0.455,11005.555555555555
-1.025,-0.46,11008.333333333334
-1.015,-0.46,11011.111111111111
-1.035,-0.49,11013.888888888889
-1.045,-0.49,11016.666666666666
-1.04,-0.485,11019.444444444445
-1.055,-0.48,11022.222222222223
-1.045,-0.48,11025.0
-1.025,-0.46,11027.777777777777
-1.025,-0.46,11030.555555555555
-1.005,-0.445,11033.333333333334
-0.995,-0.425,11036.111111111111
-0.985,-0.44,11038.888888888889
-0.99,-0.44,11041.666666666666
-1.0,-0.45,11044.444444444445
-1.01,-0.45,11047.222222222223
-1.025,-0.47,11050.0
-1.03,-0.49,11052.777777777777
-1.03,-0.49,11055.555555555555
-1.025,-0.47,11058.333333333334
-1.01,-0.46,11061.111111111111
-0.98,-0.455,11063.888888888889
-0.98,-0.44,11066.666666666666
-0.985,-0.43,11069.444444444445
-0.97,-0.435,11072.222222222223
-0.985,-0.445,11075.0
-0.975,-0.455,11077.777777777777
-0.98,-0.47,11080.555555555555
-0.98,-0.475,11083.333333333334
-0.97,-0.465,11086.111111111111
-0.97,-0.47,11088.888888888889
-0.965,-0.45,11091.666666666666
-0.97,-0.435,11094.444444444445
-0.945,-0.435,11097.222222222223
-0.925,-0.425,11100.0
-0.92,-0.42,11102.777777777777
-0.915,-0.43,11105.555555555555
-0.91,-0.42,11108.333333333334
-0.905,-0.44,11111.111111111111
-0.92,-0.435,11113.888888888889
-0.905,-0.44,11116.666666666666
-0.895,-0.455,11119.444444444445
-0.88,-0.45,11122.222222222223
-0.865,-0.445,11125.0
-0.845,-0.435,11127.777777777777
-0.83,-0.435,11130.555555555555
-0.81,-0.42,11133.333333333334
-0.775,-0.42,11136.111111111111
