MLII,V1,time_ms
-0.875,-0.65,0.0
-0.875,-0.65,2.7777777777777777
-0.875,-0.65,5.555555555555555
-0.875,-0.65,8.333333333333334
-0.875,-0.65,11.11111111111111
-0.875,-0.65,13.88888888888889
-0.875,-0.65,16.666666666666668
-0.86,-0.65,19.444444444444443
-0.85,-0.65,22.22222222222222
-0.84,-0.665,25.0
-0.84,-0.665,27.77777777777778
-0.825,-0.66,30.555555555555557
-0.83,-0.675,33.333333333333336
-0.835,-0.68,36.111111111111114
-0.845,-0.685,38.888888888888886
-0.855,-0.68,41.666666666666664
-0.85,-0.68,44.44444444444444
-0.855,-0.675,47.22222222222222
-0.85,-0.67,50.0
-0.835,-0.66,52.77777777777778
-0.825,-0.65,55.55555555555556
-0.825,-0.65,58.333333333333336
-0.84,-0.65,61.111111111111114
-0.84,-0.67,63.888888888888886
-0.825,-0.675,66.66666666666667
-0.825,-0.68,69.44444444444444
-0.83,-0.705,72.22222222222223
-0.825,-0.695,75.0
-0.835,-0.695,77.77777777777777
-0.83,-0.675,80.55555555555556
-0.835,-0.665,83.33333333333333
-0.83,-0.655,86.11111111111111
-0.82,-0.65,88.88888888888889
-0.805,-0.66,91.66666666666667
-0.805,-0.67,94.44444444444444
-0.805,-0.67,97.22222222222223
-0.81,-0.685,100.0
-0.815,-0.685,102.77777777777777
-0.82,-0.695,105.55555555555556
-0.83,-0.7,108.33333333333333
-0.83,-0.685,111.11111111111111
-0.825,-0.685,113.88888888888889
-0.84,-0.67,116.66666666666667
-0.825,-0.665,119.44444444444444
-0.8,-0.655,122.22222222222223
-0.795,-0.66,125.0
-0.795,-0.665,127.77777777777777
-0.8,-0.675,130.55555555555554
-0.805,-0.675,133.33333333333334
-0.805,-0.68,136.11111111111111
-0.805,-0.68,138.88888888888889
-0.81,-0.69,141.66666666666666
-0.81,-0.675,144.44444444444446
-0.815,-0.675,147.22222222222223
-0.815,-0.67,150.0
-0.805,-0.665,152.77777777777777
-0.8,-0.66,155.55555555555554
-0.79,-0.66,158.33333333333334
-0.8,-0.665,161.11111111111111
-0.8,-0.68,163.88888888888889
-0.805,-0.685,166.66666666666666
-0.82,-0.68,169.44444444444446
-0.825,-0.69,172.22222222222223
-0.825,-0.695,175.0
-0.82,-0.685,177.77777777777777
-0.815,-0.68,180.55555555555554
-0.805,-0.665,183.33333333333334
-0.8,-0.66,186.11111111111111
-0.795,-0.675,188.88888888888889
-0.8,-0.665,191.66666666666666
-0.785,-0.68,194.44444444444446
-0.8,-0.67,197.22222222222223
-0.795,-0.685,200.0
-0.8,-0.69,202.77777777777777
-0.81,-0.695,205.55555555555554
-0.81,-0.695,208.33333333333334
-0.81,-0.685,211.11111111111111
-0.815,-0.685,213.88888888888889
-0.815,-0.665,216.66666666666666
-0.8,-0.67,219.44444444444446
-0.785,-0.655,222.22222222222223
-0.79,-0.665,225.0
-0.78,-0.67,227.77777777777777
-0.795,-0.67,230.55555555555554
-0.795,-0.68,233.33333333333334
-0.795,-0.69,236.11111111111111
-0.8,-0.7,238.88888888888889
-0.805,-0.695,241.66666666666666
-0.815,-0.695,244.44444444444446
-0.805,-0.69,247.22222222222223
-0.8,-0.67,250.0
-0.79,-0.675,252.77777777777777
-0.795,-0.67,255.55555555555554
-0.79,-0.66,258.3333333333333
-0.785,-0.67,261.1111111111111
-0.78,-0.665,263.8888888888889
-0.77,-0.67,266.6666666666667
-0.775,-0.675,269.44444444444446
-0.785,-0.665,272.22222222222223
-0.795,-0.67,275.0
-0.795,-0.66,277.77777777777777
-0.775,-0.665,280.55555555555554
-0.775,-0.655,283.3333333333333
-0.755,-0.665,286.1111111111111
-0.75,-0.66,288.8888888888889
-0.74,-0.68,291.6666666666667
-0.74,-0.7,294.44444444444446
-0.74,-0.715,297.22222222222223
-0.745,-0.755,300.0
-0.75,-0.775,302.77777777777777
-0.74,-0.79,305.55555555555554
-0.745,-0.795,308.3333333333333
-0.75,-0.775,311.1111111111111
-0.745,-0.76,313.8888888888889
-0.745,-0.745,316.6666666666667
-0.735,-0.73,319.44444444444446
-0.73,-0.725,322.22222222222223
-0.72,-0.725,325.0
-0.73,-0.74,327.77777777777777
-0.72,-0.74,330.55555555555554
-0.73,-0.74,333.3333333333333
-0.715,-0.745,336.1111111111111
-0.72,-0.74,338.8888888888889
-0.74,-0.725,341.6666666666667
-0.755,-0.71,344.44444444444446
-0.735,-0.69,347.22222222222223
-0.735,-0.675,350.0
-0.735,-0.67,352.77777777777777
-0.735,-0.655,355.55555555555554
-0.73,-0.66,358.3333333333333
-0.735,-0.67,361.1111111111111
-0.75,-0.67,363.8888888888889
-0.755,-0.69,366.6666666666667
-0.77,-0.68,369.44444444444446
-0.78,-0.685,372.22222222222223
-0.795,-0.7,375.0
-0.8,-0.695,377.77777777777777
-0.8,-0.685,380.55555555555554
-0.79,-0.685,383.3333333333333
-0.77,-0.67,386.1111111111111
-0.775,-0.665,388.8888888888889
-0.77,-0.67,391.6666666666667
-0.765,-0.665,394.44444444444446
-0.755,-0.66,397.22222222222223
-0.765,-0.66,400.0
-0.765,-0.65,402.77777777777777
-0.775,-0.64,405.55555555555554
-0.75,-0.655,408.3333333333333
-0.745,-0.67,411.1111111111111
-0.72,-0.725,413.8888888888889
-0.705,-0.81,416.6666666666667
-0.655,-0.935,419.44444444444446
-0.59,-1.105,422.22222222222223
-0.505,-1.285,425.0
-0.4,-1.5,427.77777777777777
-0.29,-1.68,430.55555555555554
-0.165,-1.81,433.3333333333333
-0.05,-1.875,436.1111111111111
0.045,-1.855,438.8888888888889
0.115,-1.745,441.6666666666667
0.155,-1.595,444.44444444444446
0.195,-1.425,447.22222222222223
0.21,-1.255,450.0
0.265,-1.15,452.77777777777777
0.285,-1.035,455.55555555555554
0.295,-0.95,458.3333333333333
0.245,-0.885,461.1111111111111
0.18,-0.82,463.8888888888889
0.105,-0.76,466.6666666666667
0.015,-0.715,469.44444444444446
-0.08,-0.695,472.22222222222223
-0.18,-0.675,475.0
-0.28,-0.67,477.77777777777777
-0.37,-0.66,480.55555555555554
-0.445,-0.64,483.3333333333333
-0.515,-0.63,486.1111111111111
-0.545,-0.625,488.8888888888889
-0.59,-0.625,491.6666666666667
-0.65,-0.62,494.44444444444446
-0.665,-0.605,497.22222222222223
-0.685,-0.62,500.0
-0.715,-0.63,502.77777777777777
-0.725,-0.63,505.55555555555554
-0.715,-0.64,508.3333333333333
-0.72,-0.625,511.1111111111111
-0.72,-0.615,513.8888888888889
-0.71,-0.61,516.6666666666666
-0.715,-0.6,519.4444444444445
-0.695,-0.59,522.2222222222222
-0.69,-0.59,525.0
-0.69,-0.605,527.7777777777778
-0.69,-0.605,530.5555555555555
-0.68,-0.605,533.3333333333334
-0.685,-0.61,536.1111111111111
-0.695,-0.62,538.8888888888889
-0.705,-0.62,541.6666666666666
-0.7,-0.615,544.4444444444445
-0.7,-0.6,547.2222222222222
-0.695,-0.61,550.0
-0.685,-0.595,552.7777777777778
-0.68,-0.59,555.5555555555555
-0.665,-0.585,558.3333333333334
-0.665,-0.585,561.1111111111111
-0.66,-0.6,563.8888888888889
-0.665,-0.605,566.6666666666666
-0.665,-0.605,569.4444444444445
-0.67,-0.625,572.2222222222222
-0.67,-0.62,575.0
-0.67,-0.615,577.7777777777778
-0.68,-0.605,580.5555555555555
-0.655,-0.595,583.3333333333334
-0.655,-0.605,586.1111111111111
-0.655,-0.58,588.8888888888889
-0.64,-0.58,591.6666666666666
-0.645,-0.595,594.4444444444445
-0.64,-0.605,597.2222222222222
-0.64,-0.61,600.0
-0.655,-0.62,602.7777777777778
-0.655,-0.615,605.5555555555555
-0.67,-0.625,608.3333333333334
-0.68,-0.62,611.1111111111111
-0.67,-0.62,613.8888888888889
-0.675,-0.605,616.6666666666666
-0.655,-0.605,619.4444444444445
-0.665,-0.595,622.2222222222222
-0.65,-0.595,625.0
-0.64,-0.6,627.7777777777778
-0.635,-0.6,630.5555555555555
-0.64,-0.605,633.3333333333334
-0.65,-0.62,636.1111111111111
-0.655,-0.615,638.8888888888889
-0.64,-0.625,641.6666666666666
-0.65,-0.625,644.4444444444445
-0.655,-0.615,647.2222222222222
-0.64,-0.61,650.0
-0.635,-0.6,652.7777777777778
-0.625,-0.6,655.5555555555555
-0.615,-0.605,658.3333333333334
-0.62,-0.61,661.1111111111111
-0.62,-0.6,663.8888888888889
-0.615,-0.615,666.6666666666666
-0.625,-0.62,669.4444444444445
-0.625,-0.63,672.2222222222222
-0.625,-0.625,675.0
-0.63,-0.62,677.7777777777778
-0.63,-0.63,680.5555555555555
-0.61,-0.61,683.3333333333334
-0.595,-0.61,686.1111111111111
-0.585,-0.595,688.8888888888889
-0.575,-0.595,691.6666666666666
-0.58,-0.595,694.4444444444445
-0.57,-0.6,697.2222222222222
-0.58,-0.62,700.0
-0.57,-0.625,702.7777777777778
-0.58,-0.64,705.5555555555555
-0.58,-0.635,708.3333333333334
-0.585,-0.64,711.1111111111111
-0.59,-0.62,713.8888888888889
-0.58,-0.62,716.6666666666666
-0.58,-0.62,719.4444444444445
-0.57,-0.625,722.2222222222222
-0.565,-0.62,725.0
-0.575,-0.62,727.7777777777778
-0.575,-0.625,730.5555555555555
-0.575,-0.635,733.3333333333334
-0.59,-0.635,736.1111111111111
-0.6,-0.65,738.8888888888889
-0.615,-0.66,741.6666666666666
-0.615,-0.65,744.4444444444445
-0.605,-0.655,747.2222222222222
-0.625,-0.645,750.0
-0.605,-0.63,752.7777777777778
-0.615,-0.63,755.5555555555555
-0.615,-0.62,758.3333333333334
-0.62,-0.635,761.1111111111111
-0.63,-0.645,763.8888888888889
-0.64,-0.645,766.6666666666666
-0.645,-0.655,769.4444444444445
-0.67,-0.66,772.2222222222222
-0.685,-0.675,775.0
-0.69,-0.66,777.7777777777778
-0.695,-0.665,780.5555555555555
-0.71,-0.65,783.3333333333334
-0.715,-0.645,786.1111111111111
-0.725,-0.64,788.8888888888889
-0.735,-0.64,791.6666666666666
-0.725,-0.64,794.4444444444445
-0.745,-0.64,797.2222222222222
-0.755,-0.66,800.0
-0.755,-0.66,802.7777777777778
-0.76,-0.675,805.5555555555555
-0.775,-0.675,808.3333333333334
-0.785,-0.675,811.1111111111111
-0.78,-0.675,813.8888888888889
-0.78,-0.665,816.6666666666666
-0.765,-0.66,819.4444444444445
-0.765,-0.65,822.2222222222222
-0.755,-0.645,825.0
-0.76,-0.645,827.7777777777778
-0.755,-0.65,830.5555555555555
-0.77,-0.66,833.3333333333334
-0.775,-0.67,836.1111111111111
-0.79,-0.675,838.8888888888889
-0.79,-0.675,841.6666666666666
-0.79,-0.67,844.4444444444445
-0.79,-0.66,847.2222222222222
-0.78,-0.65,850.0
-0.775,-0.65,852.7777777777778
-0.78,-0.645,855.5555555555555
-0.765,-0.64,858.3333333333334
-0.765,-0.645,861.1111111111111
-0.765,-0.655,863.8888888888889
-0.77,-0.67,866.6666666666666
-0.795,-0.66,869.4444444444445
-0.79,-0.665,872.2222222222222
-0.795,-0.67,875.0
-0.8,-0.67,877.7777777777778
-0.8,-0.655,880.5555555555555
-0.795,-0.645,883.3333333333334
-0.79,-0.645,886.1111111111111
-0.795,-0.64,888.8888888888889
-0.79,-0.625,891.6666666666666
-0.8,-0.64,894.4444444444445
-0.8,-0.65,897.2222222222222
-0.805,-0.66,900.0
-0.805,-0.665,902.7777777777778
-0.82,-0.66,905.5555555555555
-0.825,-0.675,908.3333333333334
-0.84,-0.67,911.1111111111111
-0.835,-0.665,913.8888888888889
-0.83,-0.66,916.6666666666666
-0.825,-0.65,919.4444444444445
-0.825,-0.635,922.2222222222222
-0.82,-0.63,925.0
-0.825,-0.645,927.7777777777778
-0.83,-0.655,930.5555555555555
-0.83,-0.665,933.3333333333334
-0.835,-0.655,936.1111111111111
-0.84,-0.67,938.8888888888889
-0.85,-0.68,941.6666666666666
-0.855,-0.67,944.4444444444445
-0.855,-0.675,947.2222222222222
-0.845,-0.66,950.0
-0.845,-0.655,952.7777777777778
-0.85,-0.66,955.5555555555555
-0.83,-0.65,958.3333333333334
-0.83,-0.655,961.1111111111111
-0.84,-0.665,963.8888888888889
-0.835,-0.67,966.6666666666666
-0.85,-0.675,969.4444444444445
-0.86,-0.695,972.2222222222222
-0.855,-0.685,975.0
-0.865,-0.69,977.7777777777778
-0.87,-0.675,980.5555555555555
-0.855,-0.68,983.3333333333334
-0.855,-0.665,986.1111111111111
-0.845,-0.66,988.8888888888889
-0.85,-0.66,991.6666666666666
-0.855,-0.67,994.4444444444445
-0.85,-0.675,997.2222222222222
-0.86,-0.675,1000.0
-0.84,-0.68,1002.7777777777778
-0.86,-0.69,1005.5555555555555
-0.865,-0.7,1008.3333333333334
-0.865,-0.695,1011.1111111111111
-0.87,-0.685,1013.8888888888889
-0.855,-0.675,1016.6666666666666
-0.84,-0.665,1019.4444444444445
-0.84,-0.67,1022.2222222222222
-0.835,-0.66,1025.0
-0.84,-0.665,1027.7777777777778
-0.84,-0.68,1030.5555555555557
-0.84,-0.69,1033.3333333333333
-0.835,-0.685,1036.111111111111
-0.855,-0.69,1038.888888888889
-0.86,-0.695,1041.6666666666667
-0.85,-0.7,1044.4444444444443
-0.855,-0.69,1047.2222222222222
-0.84,-0.685,1050.0
-0.835,-0.67,1052.7777777777778
-0.83,-0.67,1055.5555555555557
-0.82,-0.665,1058.3333333333333
-0.825,-0.67,1061.111111111111
-0.83,-0.675,1063.888888888889
-0.835,-0.685,1066.6666666666667
-0.835,-0.7,1069.4444444444443
-0.83,-0.7,1072.2222222222222
-0.85,-0.695,1075.0
-0.865,-0.705,1077.7777777777778
-0.85,-0.7,1080.5555555555557
-0.84,-0.685,1083.3333333333333
-0.835,-0.695,1086.111111111111
-0.82,-0.675,1088.888888888889
-0.815,-0.68,1091.6666666666667
-0.815,-0.69,1094.4444444444443
-0.805,-0.685,1097.2222222222222
-0.82,-0.695,1100.0
-0.825,-0.705,1102.7777777777778
-0.825,-0.71,1105.5555555555557
-0.83,-0.71,1108.3333333333333
-0.83,-0.705,1111.111111111111
-0.825,-0.705,1113.888888888889
-0.825,-0.685,1116.6666666666667
-0.82,-0.675,1119.4444444444443
-0.82,-0.68,1122.2222222222222
-0.815,-0.67,1125.0
-0.805,-0.675,1127.7777777777778
-0.805,-0.68,1130.5555555555557
-0.815,-0.695,1133.3333333333333
-0.825,-0.705,1136.111111111111
-0.835,-0.705,1138.888888888889
-0.84,-0.705,1141.6666666666667
-0.84,-0.715,1144.4444444444443
-0.835,-0.7,1147.2222222222222
-0.835,-0.685,1150.0
-0.83,-0.68,1152.7777777777778
-0.825,-0.68,1155.5555555555557
-0.815,-0.68,1158.3333333333333
-0.81,-0.675,1161.111111111111
-0.805,-0.69,1163.888888888889
-0.82,-0.69,1166.6666666666667
-0.825,-0.695,1169.4444444444443
-0.83,-0.715,1172.2222222222222
-0.825,-0.705,1175.0
-0.83,-0.715,1177.7777777777778
-0.825,-0.705,1180.5555555555557
-0.825,-0.69,1183.3333333333333
-0.815,-0.69,1186.111111111111
-0.815,-0.68,1188.888888888889
-0.79,-0.675,1191.6666666666667
-0.8,-0.68,1194.4444444444443
-0.81,-0.68,1197.2222222222222
-0.815,-0.685,1200.0
-0.805,-0.695,1202.7777777777778
-0.82,-0.705,1205.5555555555557
-0.815,-0.71,1208.3333333333333
-0.825,-0.705,1211.111111111111
-0.825,-0.7,1213.888888888889
-0.825,-0.7,1216.6666666666667
-0.815,-0.675,1219.4444444444443
-0.8,-0.675,1222.2222222222222
-0.8,-0.675,1225.0
-0.81,-0.685,1227.7777777777778
-0.805,-0.695,1230.5555555555557
-0.81,-0.69,1233.3333333333333
-0.82,-0.695,1236.111111111111
-0.815,-0.695,1238.888888888889
-0.81,-0.7,1241.6666666666667
-0.8,-0.685,1244.4444444444443
-0.795,-0.68,1247.2222222222222
-0.79,-0.67,1250.0
-0.77,-0.67,1252.7777777777778
-0.76,-0.685,1255.5555555555557
-0.745,-0.685,1258.3333333333333
-0.745,-0.7,1261.111111111111
-0.75,-0.72,1263.888888888889
-0.755,-0.75,1266.6666666666667
-0.77,-0.77,1269.4444444444443
-0.78,-0.775,1272.2222222222222
-0.785,-0.8,1275.0
-0.775,-0.8,1277.7777777777778
-0.76,-0.785,1280.5555555555557
-0.76,-0.77,1283.3333333333333
-0.755,-0.75,1286.111111111111
-0.74,-0.74,1288.888888888889
-0.735,-0.745,1291.6666666666667
-0.745,-0.745,1294.4444444444443
-0.75,-0.755,1297.2222222222222
-0.75,-0.76,1300.0
-0.755,-0.76,1302.7777777777778
-0.76,-0.76,1305.5555555555557
-0.755,-0.765,1308.3333333333333
-0.75,-0.745,1311.111111111111
-0.765,-0.73,1313.888888888889
-0.765,-0.705,1316.6666666666667
-0.76,-0.69,1319.4444444444443
-0.76,-0.675,1322.2222222222222
-0.76,-0.665,1325.0
-0.775,-0.68,1327.7777777777778
-0.78,-0.68,1330.5555555555557
-0.785,-0.705,1333.3333333333333
-0.8,-0.72,1336.111111111111
-0.805,-0.715,1338.888888888889
-0.815,-0.715,1341.6666666666667
-0.81,-0.725,1344.4444444444443
-0.82,-0.715,1347.2222222222222
-0.81,-0.695,1350.0
-0.8,-0.695,1352.7777777777778
-0.805,-0.69,1355.5555555555557
-0.785,-0.695,1358.3333333333333
-0.79,-0.7,1361.111111111111
-0.785,-0.69,1363.888888888889
-0.8,-0.685,1366.6666666666667
-0.8,-0.695,1369.4444444444443
-0.8,-0.685,1372.2222222222222
-0.8,-0.67,1375.0
-0.805,-0.675,1377.7777777777778
-0.79,-0.665,1380.5555555555557
-0.78,-0.68,1383.3333333333333
-0.76,-0.71,1386.111111111111
-0.73,-0.77,1388.888888888889
-0.7,-0.89,1391.6666666666667
-0.655,-1.055,1394.4444444444443
-0.605,-1.25,1397.2222222222222
-0.495,-1.47,1400.0
-0.38,-1.695,1402.7777777777778
-0.26,-1.855,1405.5555555555557
-0.155,-1.955,1408.3333333333333
-0.06,-1.93,1411.111111111111
0.015,-1.815,1413.888888888889
0.055,-1.645,1416.6666666666667
0.095,-1.45,1419.4444444444443
0.14,-1.27,1422.2222222222222
0.18,-1.125,1425.0
0.2,-1.02,1427.7777777777778
0.18,-0.935,1430.5555555555557
0.135,-0.865,1433.3333333333333
0.07,-0.81,1436.111111111111
-0.01,-0.75,1438.888888888889
-0.105,-0.725,1441.6666666666667
-0.225,-0.705,1444.4444444444443
-0.315,-0.69,1447.2222222222222
-0.405,-0.665,1450.0
-0.5,-0.66,1452.7777777777778
-0.56,-0.655,1455.5555555555557
-0.615,-0.635,1458.3333333333333
-0.64,-0.625,1461.111111111111
-0.685,-0.635,1463.888888888889
-0.72,-0.625,1466.6666666666667
-0.745,-0.64,1469.4444444444443
-0.76,-0.64,1472.2222222222222
-0.77,-0.64,1475.0
-0.78,-0.645,1477.7777777777778
-0.78,-0.635,1480.5555555555557
-0.77,-0.61,1483.3333333333333
-0.76,-0.615,1486.111111111111
-0.75,-0.6,1488.888888888889
-0.735,-0.605,1491.6666666666667
-0.725,-0.605,1494.4444444444443
-0.735,-0.61,1497.2222222222222
-0.745,-0.62,1500.0
-0.75,-0.62,1502.7777777777778
-0.75,-0.625,1505.5555555555557
-0.755,-0.62,1508.3333333333333
-0.75,-0.625,1511.111111111111
-0.75,-0.615,1513.888888888889
-0.76,-0.61,1516.6666666666667
-0.74,-0.605,1519.4444444444443
-0.74,-0.59,1522.2222222222222
-0.72,-0.585,1525.0
-0.71,-0.6,1527.7777777777778
-0.71,-0.6,1530.5555555555557
-0.725,-0.605,1533.3333333333333
-0.725,-0.615,1536.111111111111
-0.73,-0.62,1538.888888888889
-0.725,-0.625,1541.6666666666667
-0.745,-0.625,1544.4444444444443
-0.725,-0.625,1547.2222222222222
-0.745,-0.605,1550.0
-0.72,-0.6,1552.7777777777778
-0.715,-0.59,1555.5555555555557
-0.7,-0.58,1558.3333333333333
-0.695,-0.58,1561.111111111111
-0.695,-0.59,1563.888888888889
-0.705,-0.605,1566.6666666666667
-0.715,-0.6,1569.4444444444443
-0.715,-0.62,1572.2222222222222
-0.71,-0.625,1575.0
-0.72,-0.62,1577.7777777777778
-0.72,-0.625,1580.5555555555557
-0.715,-0.61,1583.3333333333333
-0.715,-0.6,1586.111111111111
-0.7,-0.595,1588.888888888889
-0.68,-0.59,1591.6666666666667
-0.69,-0.6,1594.4444444444443
-0.695,-0.605,1597.2222222222222
-0.68,-0.6,1600.0
-0.685,-0.615,1602.7777777777778
-0.7,-0.61,1605.5555555555557
-0.705,-0.625,1608.3333333333333
-0.695,-0.62,1611.111111111111
-0.69,-0.615,1613.888888888889
-0.685,-0.6,1616.6666666666667
-0.68,-0.59,1619.4444444444443
-0.675,-0.58,1622.2222222222222
-0.65,-0.585,1625.0
-0.655,-0.595,1627.7777777777778
-0.655,-0.59,1630.5555555555557
-0.675,-0.595,1633.3333333333333
-0.66,-0.615,1636.111111111111
-0.66,-0.62,1638.888888888889
-0.66,-0.625,1641.6666666666667
-0.655,-0.63,1644.4444444444443
-0.665,-0.61,1647.2222222222222
-0.66,-0.6,1650.0
-0.645,-0.595,1652.7777777777778
-0.635,-0.59,1655.5555555555557
-0.635,-0.59,1658.3333333333333
-0.635,-0.585,1661.111111111111
-0.62,-0.595,1663.888888888889
-0.625,-0.615,1666.6666666666667
-0.625,-0.62,1669.4444444444443
-0.635,-0.615,1672.2222222222222
-0.635,-0.64,1675.0
-0.645,-0.63,1677.7777777777778
-0.65,-0.63,1680.5555555555557
-0.645,-0.615,1683.3333333333333
-0.63,-0.615,1686.111111111111
-0.62,-0.61,1688.888888888889
-0.615,-0.61,1691.6666666666667
-0.635,-0.61,1694.4444444444443
-0.64,-0.625,1697.2222222222222
-0.64,-0.63,1700.0
-0.645,-0.65,1702.7777777777778
-0.66,-0.65,1705.5555555555557
-0.68,-0.66,1708.3333333333333
-0.675,-0.65,1711.111111111111
-0.675,-0.66,1713.888888888889
-0.685,-0.645,1716.6666666666667
-0.69,-0.65,1719.4444444444443
-0.69,-0.64,1722.2222222222222
-0.685,-0.655,1725.0
-0.69,-0.65,1727.7777777777778
-0.68,-0.65,1730.5555555555557
-0.71,-0.67,1733.3333333333333
-0.72,-0.665,1736.111111111111
-0.715,-0.67,1738.888888888889
-0.75,-0.69,1741.6666666666667
-0.765,-0.69,1744.4444444444443
-0.76,-0.675,1747.2222222222222
-0.765,-0.68,1750.0
-0.775,-0.68,1752.7777777777778
-0.78,-0.66,1755.5555555555557
-0.785,-0.655,1758.3333333333333
-0.785,-0.66,1761.111111111111
-0.78,-0.665,1763.888888888889
-0.785,-0.68,1766.6666666666667
-0.795,-0.685,1769.4444444444443
-0.82,-0.685,1772.2222222222222
-0.825,-0.695,1775.0
-0.825,-0.69,1777.7777777777778
-0.835,-0.675,1780.5555555555557
-0.835,-0.675,1783.3333333333333
-0.825,-0.675,1786.111111111111
-0.825,-0.665,1788.888888888889
-0.815,-0.66,1791.6666666666667
-0.815,-0.67,1794.4444444444443
-0.815,-0.66,1797.2222222222222
-0.81,-0.675,1800.0
-0.84,-0.68,1802.7777777777778
-0.85,-0.685,1805.5555555555557
-0.845,-0.685,1808.3333333333333
-0.85,-0.68,1811.111111111111
-0.855,-0.68,1813.888888888889
-0.85,-0.665,1816.6666666666667
-0.845,-0.665,1819.4444444444443
-0.845,-0.65,1822.2222222222222
-0.825,-0.65,1825.0
-0.825,-0.65,1827.7777777777778
-0.82,-0.655,1830.5555555555557
-0.82,-0.66,1833.3333333333333
-0.845,-0.66,1836.111111111111
-0.85,-0.66,1838.888888888889
-0.85,-0.665,1841.6666666666667
-0.87,-0.655,1844.4444444444443
-0.87,-0.645,1847.2222222222222
-0.865,-0.625,1850.0
-0.86,-0.62,1852.7777777777778
-0.86,-0.61,1855.5555555555557
-0.84,-0.625,1858.3333333333333
-0.845,-0.635,1861.111111111111
-0.845,-0.66,1863.888888888889
-0.85,-0.66,1866.6666666666667
-0.855,-0.68,1869.4444444444443
-0.865,-0.655,1872.2222222222222
-0.87,-0.66,1875.0
-0.875,-0.655,1877.7777777777778
-0.875,-0.655,1880.5555555555557
-0.88,-0.66,1883.3333333333333
-0.875,-0.64,1886.111111111111
-0.87,-0.64,1888.888888888889
-0.86,-0.635,1891.6666666666667
-0.86,-0.635,1894.4444444444443
-0.87,-0.62,1897.2222222222222
-0.86,-0.64,1900.0
-0.875,-0.63,1902.7777777777778
-0.885,-0.63,1905.5555555555557
-0.89,-0.645,1908.3333333333333
-0.895,-0.65,1911.111111111111
-0.9,-0.65,1913.888888888889
-0.89,-0.645,1916.6666666666667
-0.895,-0.635,1919.4444444444443
-0.885,-0.62,1922.2222222222222
-0.875,-0.605,1925.0
-0.885,-0.605,1927.7777777777778
-0.875,-0.62,1930.5555555555557
-0.885,-0.645,1933.3333333333333
-0.895,-0.665,1936.111111111111
-0.895,-0.685,1938.888888888889
-0.9,-0.7,1941.6666666666667
-0.905,-0.7,1944.4444444444443
-0.9,-0.7,1947.2222222222222
-0.895,-0.67,1950.0
-0.895,-0.655,1952.7777777777778
-0.875,-0.645,1955.5555555555557
-0.875,-0.63,1958.3333333333333
-0.875,-0.625,1961.111111111111
-0.865,-0.62,1963.888888888889
-0.87,-0.615,1966.6666666666667
-0.87,-0.61,1969.4444444444443
-0.88,-0.625,1972.2222222222222
-0.89,-0.64,1975.0
-0.895,-0.675,1977.7777777777778
-0.89,-0.69,1980.5555555555557
-0.89,-0.72,1983.3333333333333
-0.89,-0.72,1986.111111111111
-0.885,-0.71,1988.888888888889
-0.87,-0.7,1991.6666666666667
-0.865,-0.685,1994.4444444444443
-0.865,-0.68,1997.2222222222222
-0.88,-0.68,2000.0
-0.88,-0.68,2002.7777777777778
-0.885,-0.705,2005.5555555555557
-0.895,-0.695,2008.3333333333333
-0.905,-0.69,2011.111111111111
-0.91,-0.675,2013.888888888889
-0.905,-0.665,2016.6666666666667
-0.885,-0.655,2019.4444444444443
-0.895,-0.655,2022.2222222222222
-0.865,-0.65,2025.0
-0.865,-0.66,2027.7777777777778
-0.86,-0.66,2030.5555555555557
-0.875,-0.66,2033.3333333333333
-0.885,-0.665,2036.111111111111
-0.9,-0.68,2038.888888888889
-0.905,-0.685,2041.6666666666667
-0.9,-0.69,2044.4444444444443
-0.89,-0.675,2047.2222222222222
-0.895,-0.685,2050.0
-0.9,-0.67,2052.777777777778
-0.895,-0.66,2055.5555555555557
-0.895,-0.66,2058.3333333333335
-0.895,-0.66,2061.1111111111113
-0.895,-0.655,2063.8888888888887
-0.895,-0.64,2066.6666666666665
-0.89,-0.655,2069.4444444444443
-0.915,-0.67,2072.222222222222
-0.905,-0.665,2075.0
-0.91,-0.67,2077.777777777778
-0.915,-0.675,2080.5555555555557
-0.92,-0.66,2083.3333333333335
-0.92,-0.665,2086.1111111111113
-0.915,-0.65,2088.8888888888887
-0.92,-0.65,2091.6666666666665
-0.91,-0.65,2094.4444444444443
-0.91,-0.655,2097.222222222222
-0.92,-0.66,2100.0
-0.92,-0.65,2102.777777777778
-0.945,-0.635,2105.5555555555557
-0.955,-0.635,2108.3333333333335
-0.96,-0.625,2111.1111111111113
-0.97,-0.61,2113.8888888888887
-0.97,-0.61,2116.6666666666665
-0.98,-0.62,2119.4444444444443
-0.975,-0.625,2122.222222222222
-0.98,-0.645,2125.0
-0.97,-0.655,2127.777777777778
-0.955,-0.67,2130.5555555555557
-0.96,-0.68,2133.3333333333335
-0.975,-0.665,2136.1111111111113
-0.98,-0.625,2138.8888888888887
-0.99,-0.6,2141.6666666666665
-0.99,-0.6,2144.4444444444443
-1.0,-0.63,2147.222222222222
-0.995,-0.675,2150.0
-0.995,-0.73,2152.777777777778
-0.985,-0.74,2155.5555555555557
-0.99,-0.72,2158.3333333333335
-0.995,-0.69,2161.1111111111113
-1.005,-0.66,2163.8888888888887
-1.005,-0.625,2166.6666666666665
-1.005,-0.61,2169.4444444444443
-1.02,-0.645,2172.222222222222
-1.02,-0.68,2175.0
-1.02,-0.73,2177.777777777778
-1.025,-0.745,2180.5555555555557
-1.02,-0.74,2183.3333333333335
-1.025,-0.72,2186.1111111111113
-1.01,-0.69,2188.8888888888887
-1.01,-0.66,2191.6666666666665
-1.01,-0.65,2194.4444444444443
-0.995,-0.65,2197.222222222222
-1.0,-0.655,2200.0
-1.0,-0.67,2202.777777777778
-1.015,-0.68,2205.5555555555557
-1.02,-0.685,2208.3333333333335
-1.04,-0.69,2211.1111111111113
-1.035,-0.675,2213.8888888888887
-1.03,-0.675,2216.6666666666665
-1.03,-0.66,2219.4444444444443
-1.02,-0.645,2222.222222222222
-1.005,-0.635,2225.0
-1.005,-0.625,2227.777777777778
-1.01,-0.615,2230.5555555555557
-1.025,-0.605,2233.3333333333335
-1.03,-0.595,2236.1111111111113
-1.02,-0.605,2238.8888888888887
-1.025,-0.615,2241.6666666666665
-1.015,-0.66,2244.4444444444443
-1.01,-0.675,2247.222222222222
-1.0,-0.68,2250.0
-0.995,-0.65,2252.777777777778
-0.995,-0.615,2255.5555555555557
-0.98,-0.63,2258.3333333333335
-0.965,-0.69,2261.1111111111113
-0.965,-0.765,2263.8888888888887
-0.98,-0.83,2266.6666666666665
-0.99,-0.87,2269.4444444444443
-0.995,-0.85,2272.222222222222
-1.005,-0.815,2275.0
-1.01,-0.775,2277.777777777778
-0.995,-0.74,2280.5555555555557
-0.995,-0.71,2283.3333333333335
-0.995,-0.715,2286.1111111111113
-0.995,-0.71,2288.8888888888887
-0.99,-0.715,2291.6666666666665
-0.995,-0.72,2294.4444444444443
-0.99,-0.725,2297.222222222222
-0.995,-0.725,2300.0
-1.0,-0.72,2302.777777777778
-0.99,-0.71,2305.5555555555557
-1.0,-0.705,2308.3333333333335
-1.005,-0.7,2311.1111111111113
-1.005,-0.68,2313.8888888888887
-1.015,-0.67,2316.6666666666665
-1.025,-0.685,2319.4444444444443
-1.015,-0.68,2322.222222222222
-1.035,-0.695,2325.0
-1.035,-0.68,2327.777777777778
-1.035,-0.69,2330.5555555555557
-1.055,-0.69,2333.3333333333335
-1.07,-0.705,2336.1111111111113
-1.08,-0.69,2338.8888888888887
-1.08,-0.68,2341.6666666666665
-1.075,-0.695,2344.4444444444443
-1.065,-0.705,2347.222222222222
-1.065,-0.695,2350.0
-1.06,-0.7,2352.777777777778
-1.06,-0.7,2355.5555555555557
-1.06,-0.685,2358.3333333333335
-1.06,-0.685,2361.1111111111113
-1.05,-0.68,2363.8888888888887
-1.055,-0.67,2366.6666666666665
-1.055,-0.655,2369.4444444444443
-1.05,-0.66,2372.222222222222
-1.06,-0.64,2375.0
-1.05,-0.635,2377.777777777778
-1.05,-0.665,2380.5555555555557
-1.03,-0.71,2383.3333333333335
-1.01,-0.76,2386.1111111111113
-0.99,-0.855,2388.8888888888887
-0.935,-0.965,2391.6666666666665
-0.865,-1.115,2394.4444444444443
-0.8,-1.305,2397.222222222222
-0.7,-1.495,2400.0
-0.625,-1.675,2402.777777777778
-0.535,-1.84,2405.5555555555557
-0.445,-1.91,2408.3333333333335
-0.36,-1.915,2411.1111111111113
-0.285,-1.82,2413.8888888888887
-0.235,-1.66,2416.6666666666665
-0.19,-1.48,2419.4444444444443
-0.155,-1.315,2422.222222222222
-0.105,-1.185,2425.0
-0.08,-1.085,2427.777777777778
-0.07,-1.0,2430.5555555555557
-0.12,-0.915,2433.3333333333335
-0.175,-0.84,2436.1111111111113
-0.25,-0.77,2438.8888888888887
-0.355,-0.72,2441.6666666666665
-0.485,-0.7,2444.4444444444443
-0.6,-0.67,2447.222222222222
-0.705,-0.665,2450.0
-0.8,-0.645,2452.777777777778
-0.87,-0.635,2455.5555555555557
-0.92,-0.63,2458.3333333333335
-0.97,-0.635,2461.1111111111113
-0.985,-0.63,2463.8888888888887
-1.01,-0.635,2466.6666666666665
-1.045,-0.625,2469.4444444444443
-1.055,-0.64,2472.222222222222
-1.06,-0.63,2475.0
-1.075,-0.665,2477.777777777778
-1.07,-0.645,2480.5555555555557
-1.04,-0.635,2483.3333333333335
-1.035,-0.615,2486.1111111111113
-1.02,-0.61,2488.8888888888887
-1.02,-0.6,2491.6666666666665
-1.005,-0.605,2494.4444444444443
-1.015,-0.605,2497.222222222222
-1.015,-0.6,2500.0
-1.01,-0.59,2502.777777777778
-1.015,-0.595,2505.5555555555557
-1.03,-0.615,2508.3333333333335
-1.02,-0.64,2511.1111111111113
-1.02,-0.665,2513.8888888888887
-1.015,-0.66,2516.6666666666665
-1.005,-0.645,2519.4444444444443
-0.99,-0.63,2522.222222222222
-0.98,-0.61,2525.0
-0.985,-0.59,2527.777777777778
-0.98,-0.59,2530.5555555555557
-0.975,-0.59,2533.3333333333335
-0.995,-0.625,2536.1111111111113
-0.995,-0.655,2538.8888888888887
-0.985,-0.67,2541.6666666666665
-0.99,-0.655,2544.4444444444443
-0.985,-0.645,2547.222222222222
-0.98,-0.615,2550.0
-0.975,-0.62,2552.777777777778
-0.97,-0.605,2555.5555555555557
-0.955,-0.6,2558.3333333333335
-0.945,-0.6,2561.1111111111113
-0.94,-0.615,2563.8888888888887
-0.945,-0.63,2566.6666666666665
-0.95,-0.63,2569.4444444444443
-0.95,-0.64,2572.222222222222
-0.97,-0.635,2575.0
-0.985,-0.635,2577.777777777778
-0.99,-0.625,2580.5555555555557
-0.965,-0.625,2583.3333333333335
-0.96,-0.605,2586.1111111111113
-0.945,-0.605,2588.8888888888887
-0.94,-0.615,2591.6666666666665
-0.935,-0.615,2594.4444444444443
-0.94,-0.62,2597.222222222222
-0.94,-0.635,2600.0
-0.93,-0.645,2602.777777777778
-0.93,-0.65,2605.5555555555557
-0.93,-0.645,2608.3333333333335
-0.945,-0.635,2611.1111111111113
-0.93,-0.605,2613.8888888888887
-0.93,-0.595,2616.6666666666665
-0.92,-0.605,2619.4444444444443
-0.915,-0.59,2622.222222222222
-0.91,-0.575,2625.0
-0.905,-0.59,2627.777777777778
-0.895,-0.6,2630.5555555555557
-0.9,-0.615,2633.3333333333335
-0.9,-0.635,2636.1111111111113
-0.905,-0.655,2638.8888888888887
-0.91,-0.655,2641.6666666666665
-0.91,-0.64,2644.4444444444443
-0.9,-0.63,2647.222222222222
-0.895,-0.625,2650.0
-0.875,-0.635,2652.777777777778
-0.875,-0.63,2655.5555555555557
-0.855,-0.63,2658.3333333333335
-0.85,-0.62,2661.1111111111113
-0.85,-0.625,2663.8888888888887
-0.855,-0.62,2666.6666666666665
-0.85,-0.625,2669.4444444444443
-0.855,-0.63,2672.222222222222
-0.86,-0.64,2675.0
-0.86,-0.665,2677.777777777778
-0.855,-0.66,2680.5555555555557
-0.855,-0.645,2683.3333333333335
-0.85,-0.645,2686.1111111111113
-0.85,-0.63,2688.8888888888887
-0.845,-0.63,2691.6666666666665
-0.83,-0.645,2694.4444444444443
-0.84,-0.645,2697.222222222222
-0.84,-0.645,2700.0
-0.845,-0.66,2702.777777777778
-0.855,-0.68,2705.5555555555557
-0.865,-0.665,2708.3333333333335
-0.875,-0.675,2711.1111111111113
-0.88,-0.65,2713.8888888888887
-0.87,-0.655,2716.6666666666665
-0.865,-0.65,2719.4444444444443
-0.86,-0.64,2722.222222222222
-0.86,-0.64,2725.0
-0.865,-0.665,2727.777777777778
-0.885,-0.665,2730.5555555555557
-0.885,-0.67,2733.3333333333335
-0.885,-0.66,2736.1111111111113
-0.905,-0.66,2738.8888888888887
-0.925,-0.665,2741.6666666666665
-0.915,-0.68,2744.4444444444443
-0.915,-0.68,2747.222222222222
-0.93,-0.675,2750.0
-0.945,-0.665,2752.777777777778
-0.95,-0.655,2755.5555555555557
-0.945,-0.64,2758.3333333333335
-0.95,-0.66,2761.1111111111113
-0.955,-0.675,2763.8888888888887
-0.955,-0.685,2766.6666666666665
-0.965,-0.71,2769.4444444444443
-0.985,-0.705,2772.222222222222
-1.0,-0.7,2775.0
-0.99,-0.69,2777.777777777778
-1.0,-0.655,2780.5555555555557
-0.99,-0.655,2783.3333333333335
-0.985,-0.655,2786.1111111111113
-0.975,-0.65,2788.8888888888887
-0.97,-0.665,2791.6666666666665
-0.98,-0.69,2794.4444444444443
-0.97,-0.705,2797.222222222222
-0.975,-0.69,2800.0
-0.985,-0.68,2802.777777777778
-1.01,-0.675,2805.5555555555557
-1.01,-0.685,2808.3333333333335
-1.0,-0.685,2811.1111111111113
-0.985,-0.685,2813.8888888888887
-0.98,-0.69,2816.6666666666665
-0.97,-0.68,2819.4444444444443
-0.965,-0.66,2822.222222222222
-0.955,-0.66,2825.0
-0.965,-0.665,2827.777777777778
-0.97,-0.68,2830.5555555555557
-0.98,-0.685,2833.3333333333335
-0.99,-0.665,2836.1111111111113
-0.99,-0.68,2838.8888888888887
-0.995,-0.69,2841.6666666666665
-1.005,-0.68,2844.4444444444443
-1.0,-0.675,2847.222222222222
-0.995,-0.655,2850.0
-0.99,-0.64,2852.777777777778
-0.98,-0.63,2855.5555555555557
-0.97,-0.635,2858.3333333333335
-0.975,-0.655,2861.1111111111113
-0.985,-0.65,2863.8888888888887
-1.0,-0.66,2866.6666666666665
-1.01,-0.68,2869.4444444444443
-1.015,-0.67,2872.222222222222
-1.015,-0.675,2875.0
-1.015,-0.675,2877.777777777778
-1.015,-0.66,2880.5555555555557
-1.015,-0.655,2883.3333333333335
-1.01,-0.655,2886.1111111111113
-1.005,-0.64,2888.8888888888887
-1.0,-0.635,2891.6666666666665
-1.0,-0.64,2894.4444444444443
-1.005,-0.65,2897.222222222222
-1.005,-0.655,2900.0
-1.01,-0.66,2902.777777777778
-1.02,-0.67,2905.5555555555557
-1.025,-0.67,2908.3333333333335
-1.03,-0.665,2911.1111111111113
-1.025,-0.67,2913.8888888888887
-1.02,-0.665,2916.6666666666665
-1.01,-0.675,2919.4444444444443
-1.01,-0.665,2922.222222222222
-1.0,-0.67,2925.0
-0.995,-0.67,2927.777777777778
-0.995,-0.675,2930.5555555555557
-1.01,-0.67,2933.3333333333335
-1.01,-0.675,2936.1111111111113
-1.015,-0.68,2938.8888888888887
-1.015,-0.675,2941.6666666666665
-1.015,-0.69,2944.4444444444443
-1.015,-0.67,2947.222222222222
-1.01,-0.655,2950.0
-1.0,-0.655,2952.777777777778
-0.995,-0.65,2955.5555555555557
-1.0,-0.66,2958.3333333333335
-1.0,-0.66,2961.1111111111113
-0.995,-0.665,2963.8888888888887
-1.0,-0.67,2966.6666666666665
-1.005,-0.685,2969.4444444444443
-1.005,-0.685,2972.222222222222
-1.035,-0.695,2975.0
-1.025,-0.695,2977.777777777778
-1.015,-0.68,2980.5555555555557
-1.01,-0.675,2983.3333333333335
-0.995,-0.67,2986.1111111111113
-0.985,-0.665,2988.8888888888887
-0.965,-0.67,2991.6666666666665
-0.975,-0.695,2994.4444444444443
-0.975,-0.69,2997.222222222222
-0.985,-0.71,3000.0
-0.985,-0.715,3002.777777777778
-1.0,-0.705,3005.5555555555557
-1.0,-0.695,3008.3333333333335
-0.985,-0.69,3011.1111111111113
-0.975,-0.685,3013.8888888888887
-0.965,-0.675,3016.6666666666665
-0.975,-0.665,3019.4444444444443
-0.95,-0.665,3022.222222222222
-0.955,-0.68,3025.0
-0.95,-0.68,3027.777777777778
-0.95,-0.68,3030.5555555555557
-0.955,-0.685,3033.3333333333335
-0.955,-0.69,3036.1111111111113
-0.965,-0.705,3038.8888888888887
-0.965,-0.7,3041.6666666666665
-0.975,-0.71,3044.4444444444443
-0.965,-0.685,3047.222222222222
-0.955,-0.675,3050.0
-0.945,-0.67,3052.777777777778
-0.935,-0.675,3055.5555555555557
-0.925,-0.685,3058.3333333333335
-0.95,-0.695,3061.1111111111113
-0.945,-0.68,3063.8888888888887
-0.93,-0.68,3066.6666666666665
-0.935,-0.695,3069.4444444444443
-0.945,-0.695,3072.222222222222
-0.97,-0.71,3075.0
-0.96,-0.705,3077.777777777778
-0.95,-0.705,3080.5555555555557
-0.955,-0.69,3083.3333333333335
-0.95,-0.685,3086.1111111111113
-0.93,-0.69,3088.8888888888887
-0.925,-0.7,3091.6666666666665
-0.925,-0.695,3094.4444444444443
-0.915,-0.695,3097.222222222222
-0.915,-0.705,3100.0
-0.93,-0.7,3102.777777777778
-0.94,-0.69,3105.5555555555557
-0.94,-0.685,3108.3333333333335
-0.945,-0.68,3111.1111111111113
-0.935,-0.69,3113.8888888888887
-0.93,-0.695,3116.6666666666665
-0.925,-0.695,3119.4444444444443
-0.925,-0.69,3122.222222222222
-0.915,-0.69,3125.0
-0.915,-0.69,3127.777777777778
-0.91,-0.69,3130.5555555555557
-0.915,-0.69,3133.3333333333335
-0.925,-0.7,3136.1111111111113
-0.955,-0.705,3138.8888888888887
-0.945,-0.71,3141.6666666666665
-0.945,-0.705,3144.4444444444443
-0.945,-0.7,3147.222222222222
-0.93,-0.695,3150.0
-0.915,-0.7,3152.777777777778
-0.895,-0.7,3155.5555555555557
-0.895,-0.695,3158.3333333333335
-0.895,-0.7,3161.1111111111113
-0.91,-0.695,3163.8888888888887
-0.9,-0.69,3166.6666666666665
-0.915,-0.71,3169.4444444444443
-0.915,-0.71,3172.222222222222
-0.925,-0.71,3175.0
-0.92,-0.715,3177.777777777778
-0.915,-0.7,3180.5555555555557
-0.915,-0.695,3183.3333333333335
-0.895,-0.68,3186.1111111111113
-0.89,-0.675,3188.8888888888887
-0.88,-0.675,3191.6666666666665
-0.885,-0.67,3194.4444444444443
-0.88,-0.66,3197.222222222222
-0.87,-0.68,3200.0
-0.875,-0.69,3202.777777777778
-0.865,-0.7,3205.5555555555557
-0.855,-0.705,3208.3333333333335
-0.85,-0.715,3211.1111111111113
-0.845,-0.72,3213.8888888888887
-0.84,-0.715,3216.6666666666665
-0.845,-0.71,3219.4444444444443
-0.835,-0.715,3222.222222222222
-0.84,-0.73,3225.0
-0.825,-0.765,3227.777777777778
-0.825,-0.78,3230.5555555555557
-0.83,-0.795,3233.3333333333335
-0.82,-0.795,3236.1111111111113
-0.825,-0.79,3238.8888888888887
-0.835,-0.78,3241.6666666666665
-0.835,-0.77,3244.4444444444443
-0.83,-0.75,3247.222222222222
-0.83,-0.74,3250.0
-0.815,-0.73,3252.777777777778
-0.82,-0.72,3255.5555555555557
-0.805,-0.715,3258.3333333333335
-0.81,-0.73,3261.1111111111113
-0.805,-0.73,3263.8888888888887
-0.805,-0.73,3266.6666666666665
-0.82,-0.72,3269.4444444444443
-0.83,-0.725,3272.222222222222
-0.845,-0.72,3275.0
-0.855,-0.715,3277.777777777778
-0.855,-0.715,3280.5555555555557
-0.86,-0.7,3283.3333333333335
-0.86,-0.695,3286.1111111111113
-0.85,-0.685,3288.8888888888887
-0.86,-0.685,3291.6666666666665
-0.86,-0.69,3294.4444444444443
-0.85,-0.685,3297.222222222222
-0.85,-0.7,3300.0
-0.855,-0.725,3302.777777777778
-0.86,-0.725,3305.5555555555557
-0.865,-0.72,3308.3333333333335
-0.895,-0.7,3311.1111111111113
-0.88,-0.69,3313.8888888888887
-0.875,-0.68,3316.6666666666665
-0.865,-0.67,3319.4444444444443
-0.86,-0.665,3322.222222222222
-0.835,-0.655,3325.0
-0.82,-0.655,3327.777777777778
-0.81,-0.655,3330.5555555555557
-0.815,-0.675,3333.3333333333335
-0.82,-0.715,3336.1111111111113
-0.82,-0.77,3338.8888888888887
-0.8,-0.88,3341.6666666666665
-0.75,-0.99,3344.4444444444443
-0.695,-1.145,3347.222222222222
-0.62,-1.31,3350.0
-0.535,-1.46,3352.777777777778
-0.415,-1.615,3355.5555555555557
-0.3,-1.735,3358.3333333333335
-0.19,-1.815,3361.1111111111113
-0.09,-1.84,3363.8888888888887
-0.025,-1.78,3366.6666666666665
0.04,-1.655,3369.4444444444443
0.07,-1.525,3372.222222222222
0.095,-1.365,3375.0
0.13,-1.23,3377.777777777778
0.16,-1.11,3380.5555555555557
0.175,-1.035,3383.3333333333335
0.175,-0.94,3386.1111111111113
0.14,-0.875,3388.8888888888887
0.09,-0.815,3391.6666666666665
0.02,-0.74,3394.4444444444443
-0.055,-0.71,3397.222222222222
-0.14,-0.69,3400.0
-0.24,-0.685,3402.777777777778
-0.33,-0.69,3405.5555555555557
-0.43,-0.67,3408.3333333333335
-0.52,-0.685,3411.1111111111113
-0.59,-0.66,3413.8888888888887
-0.65,-0.64,3416.6666666666665
-0.7,-0.63,3419.4444444444443
-0.73,-0.62,3422.222222222222
-0.76,-0.615,3425.0
-0.78,-0.615,3427.777777777778
-0.8,-0.62,3430.5555555555557
-0.8,-0.62,3433.3333333333335
-0.8,-0.625,3436.1111111111113
-0.805,-0.64,3438.8888888888887
-0.805,-0.64,3441.6666666666665
-0.8,-0.63,3444.4444444444443
-0.79,-0.605,3447.222222222222
-0.79,-0.6,3450.0
-0.79,-0.59,3452.777777777778
-0.79,-0.59,3455.5555555555557
-0.775,-0.585,3458.3333333333335
-0.77,-0.595,3461.1111111111113
-0.77,-0.61,3463.8888888888887
-0.775,-0.625,3466.6666666666665
-0.78,-0.635,3469.4444444444443
-0.79,-0.635,3472.222222222222
-0.78,-0.635,3475.0
-0.775,-0.615,3477.777777777778
-0.765,-0.62,3480.5555555555557
-0.77,-0.615,3483.3333333333335
-0.765,-0.595,3486.1111111111113
-0.765,-0.595,3488.8888888888887
-0.76,-0.585,3491.6666666666665
-0.755,-0.59,3494.4444444444443
-0.765,-0.595,3497.222222222222
-0.765,-0.61,3500.0
-0.755,-0.62,3502.777777777778
-0.765,-0.62,3505.5555555555557
-0.755,-0.635,3508.3333333333335
-0.755,-0.625,3511.1111111111113
-0.75,-0.62,3513.8888888888887
-0.75,-0.605,3516.6666666666665
-0.745,-0.61,3519.4444444444443
-0.74,-0.595,3522.222222222222
-0.73,-0.59,3525.0
-0.725,-0.595,3527.777777777778
-0.725,-0.595,3530.5555555555557
-0.73,-0.61,3533.3333333333335
-0.735,-0.61,3536.1111111111113
-0.745,-0.61,3538.8888888888887
-0.74,-0.62,3541.6666666666665
-0.74,-0.62,3544.4444444444443
-0.73,-0.615,3547.222222222222
-0.725,-0.605,3550.0
-0.73,-0.595,3552.777777777778
-0.715,-0.585,3555.5555555555557
-0.71,-0.59,3558.3333333333335
-0.715,-0.59,3561.1111111111113
-0.71,-0.6,3563.8888888888887
-0.725,-0.605,3566.6666666666665
-0.715,-0.6,3569.4444444444443
-0.715,-0.61,3572.222222222222
-0.72,-0.615,3575.0
-0.725,-0.625,3577.777777777778
-0.715,-0.605,3580.5555555555557
-0.715,-0.62,3583.3333333333335
-0.705,-0.605,3586.1111111111113
-0.7,-0.6,3588.8888888888887
-0.685,-0.595,3591.6666666666665
-0.68,-0.605,3594.4444444444443
-0.68,-0.6,3597.222222222222
-0.68,-0.605,3600.0
-0.69,-0.6,3602.777777777778
-0.685,-0.61,3605.5555555555557
-0.69,-0.61,3608.3333333333335
-0.695,-0.615,3611.1111111111113
-0.695,-0.605,3613.8888888888887
-0.68,-0.59,3616.6666666666665
-0.675,-0.605,3619.4444444444443
-0.665,-0.595,3622.222222222222
-0.65,-0.595,3625.0
-0.66,-0.61,3627.777777777778
-0.65,-0.625,3630.5555555555557
-0.66,-0.62,3633.3333333333335
-0.665,-0.615,3636.1111111111113
-0.66,-0.625,3638.8888888888887
-0.67,-0.63,3641.6666666666665
-0.67,-0.63,3644.4444444444443
-0.67,-0.62,3647.222222222222
-0.675,-0.615,3650.0
-0.665,-0.615,3652.777777777778
-0.665,-0.615,3655.5555555555557
-0.665,-0.615,3658.3333333333335
-0.665,-0.63,3661.1111111111113
-0.665,-0.625,3663.8888888888887
-0.68,-0.645,3666.6666666666665
-0.685,-0.645,3669.4444444444443
-0.7,-0.64,3672.222222222222
-0.71,-0.645,3675.0
-0.715,-0.64,3677.777777777778
-0.72,-0.645,3680.5555555555557
-0.72,-0.65,3683.3333333333335
-0.715,-0.645,3686.1111111111113
-0.72,-0.65,3688.8888888888887
-0.72,-0.655,3691.6666666666665
-0.745,-0.65,3694.4444444444443
-0.75,-0.655,3697.222222222222
-0.77,-0.66,3700.0
-0.775,-0.675,3702.777777777778
-0.8,-0.665,3705.5555555555557
-0.82,-0.68,3708.3333333333335
-0.82,-0.67,3711.1111111111113
-0.81,-0.65,3713.8888888888887
-0.82,-0.64,3716.6666666666665
-0.82,-0.63,3719.4444444444443
-0.82,-0.625,3722.222222222222
-0.82,-0.625,3725.0
-0.83,-0.635,3727.777777777778
-0.825,-0.65,3730.5555555555557
-0.835,-0.655,3733.3333333333335
-0.85,-0.65,3736.1111111111113
-0.85,-0.645,3738.8888888888887
-0.86,-0.66,3741.6666666666665
-0.845,-0.65,3744.4444444444443
-0.835,-0.65,3747.222222222222
-0.835,-0.64,3750.0
-0.835,-0.64,3752.777777777778
-0.83,-0.635,3755.5555555555557
-0.835,-0.64,3758.3333333333335
-0.84,-0.645,3761.1111111111113
-0.835,-0.64,3763.8888888888887
-0.835,-0.65,3766.6666666666665
-0.845,-0.655,3769.4444444444443
-0.835,-0.655,3772.222222222222
-0.855,-0.65,3775.0
-0.84,-0.635,3777.777777777778
-0.835,-0.63,3780.5555555555557
-0.845,-0.625,3783.3333333333335
-0.83,-0.635,3786.1111111111113
-0.855,-0.63,3788.8888888888887
-0.855,-0.645,3791.6666666666665
-0.835,-0.655,3794.4444444444443
-0.845,-0.645,3797.222222222222
-0.84,-0.665,3800.0
-0.845,-0.65,3802.777777777778
-0.85,-0.645,3805.5555555555557
-0.86,-0.645,3808.3333333333335
-0.86,-0.64,3811.1111111111113
-0.87,-0.635,3813.8888888888887
-0.865,-0.62,3816.6666666666665
-0.855,-0.605,3819.4444444444443
-0.845,-0.59,3822.222222222222
-0.845,-0.605,3825.0
-0.85,-0.61,3827.777777777778
-0.85,-0.62,3830.5555555555557
-0.855,-0.625,3833.3333333333335
-0.87,-0.64,3836.1111111111113
-0.89,-0.65,3838.8888888888887
-0.885,-0.635,3841.6666666666665
-0.885,-0.62,3844.4444444444443
-0.89,-0.61,3847.222222222222
-0.88,-0.62,3850.0
-0.88,-0.615,3852.777777777778
-0.855,-0.605,3855.5555555555557
-0.855,-0.615,3858.3333333333335
-0.855,-0.625,3861.1111111111113
-0.87,-0.625,3863.8888888888887
-0.865,-0.635,3866.6666666666665
-0.875,-0.63,3869.4444444444443
-0.875,-0.645,3872.222222222222
-0.87,-0.635,3875.0
-0.885,-0.63,3877.777777777778
-0.885,-0.63,3880.5555555555557
-0.885,-0.62,3883.3333333333335
-0.88,-0.615,3886.1111111111113
-0.87,-0.615,3888.8888888888887
-0.86,-0.605,3891.6666666666665
-0.855,-0.61,3894.4444444444443
-0.85,-0.61,3897.222222222222
-0.865,-0.615,3900.0
-0.875,-0.625,3902.777777777778
-0.885,-0.635,3905.5555555555557
-0.89,-0.635,3908.3333333333335
-0.885,-0.64,3911.1111111111113
-0.87,-0.64,3913.8888888888887
-0.87,-0.62,3916.6666666666665
-0.855,-0.61,3919.4444444444443
-0.865,-0.605,3922.222222222222
-0.85,-0.605,3925.0
-0.85,-0.61,3927.777777777778
-0.845,-0.63,3930.5555555555557
-0.845,-0.645,3933.3333333333335
-0.855,-0.66,3936.1111111111113
-0.855,-0.66,3938.8888888888887
-0.87,-0.66,3941.6666666666665
-0.865,-0.64,3944.4444444444443
-0.865,-0.64,3947.222222222222
-0.845,-0.635,3950.0
-0.845,-0.615,3952.777777777778
-0.835,-0.61,3955.5555555555557
-0.82,-0.605,3958.3333333333335
-0.815,-0.61,3961.1111111111113
-0.82,-0.62,3963.8888888888887
-0.84,-0.635,3966.6666666666665
-0.835,-0.635,3969.4444444444443
-0.84,-0.65,3972.222222222222
-0.835,-0.65,3975.0
-0.835,-0.64,3977.777777777778
-0.83,-0.625,3980.5555555555557
-0.825,-0.595,3983.3333333333335
-0.82,-0.585,3986.1111111111113
-0.8,-0.59,3988.8888888888887
-0.8,-0.605,3991.6666666666665
-0.81,-0.63,3994.4444444444443
-0.81,-0.645,3997.222222222222
-0.81,-0.655,4000.0
-0.815,-0.67,4002.777777777778
-0.815,-0.665,4005.5555555555557
-0.83,-0.645,4008.3333333333335
-0.82,-0.635,4011.1111111111113
-0.83,-0.625,4013.8888888888887
-0.815,-0.625,4016.6666666666665
-0.81,-0.615,4019.4444444444443
-0.79,-0.6,4022.222222222222
-0.78,-0.595,4025.0
-0.78,-0.605,4027.777777777778
-0.79,-0.62,4030.5555555555557
-0.79,-0.625,4033.3333333333335
-0.805,-0.63,4036.1111111111113
-0.805,-0.64,4038.8888888888887
-0.81,-0.645,4041.6666666666665
-0.805,-0.645,4044.4444444444443
-0.815,-0.63,4047.222222222222
-0.795,-0.615,4050.0
-0.785,-0.605,4052.777777777778
-0.775,-0.595,4055.5555555555557
-0.77,-0.6,4058.3333333333335
-0.78,-0.61,4061.1111111111113
-0.775,-0.62,4063.8888888888887
-0.79,-0.635,4066.6666666666665
-0.79,-0.64,4069.4444444444443
-0.785,-0.635,4072.222222222222
-0.8,-0.635,4075.0
-0.805,-0.63,4077.777777777778
-0.81,-0.62,4080.5555555555557
-0.795,-0.615,4083.3333333333335
-0.785,-0.615,4086.1111111111113
-0.765,-0.605,4088.8888888888887
-0.77,-0.605,4091.6666666666665
-0.765,-0.61,4094.4444444444443
-0.78,-0.62,4097.222222222223
-0.775,-0.62,4100.0
-0.785,-0.63,4102.777777777777
-0.8,-0.64,4105.555555555556
-0.8,-0.64,4108.333333333333
-0.805,-0.645,4111.111111111111
-0.785,-0.64,4113.888888888889
-0.775,-0.63,4116.666666666667
-0.765,-0.605,4119.444444444444
-0.75,-0.595,4122.222222222223
-0.745,-0.6,4125.0
-0.75,-0.595,4127.777777777777
-0.75,-0.605,4130.555555555556
-0.75,-0.635,4133.333333333333
-0.755,-0.65,4136.111111111111
-0.765,-0.655,4138.888888888889
-0.775,-0.66,4141.666666666667
-0.78,-0.645,4144.444444444444
-0.77,-0.63,4147.222222222223
-0.765,-0.625,4150.0
-0.76,-0.61,4152.777777777777
-0.755,-0.6,4155.555555555556
-0.735,-0.59,4158.333333333333
-0.74,-0.605,4161.111111111111
-0.74,-0.595,4163.888888888889
-0.745,-0.6,4166.666666666667
-0.745,-0.6,4169.444444444444
-0.745,-0.625,4172.222222222223
-0.76,-0.63,4175.0
-0.75,-0.64,4177.777777777777
-0.755,-0.62,4180.555555555556
-0.735,-0.61,4183.333333333333
-0.72,-0.6,4186.111111111111
-0.71,-0.59,4188.888888888889
-0.695,-0.595,4191.666666666667
-0.695,-0.605,4194.444444444444
-0.705,-0.625,4197.222222222223
-0.705,-0.64,4200.0
-0.72,-0.64,4202.777777777777
-0.705,-0.66,4205.555555555556
-0.705,-0.68,4208.333333333333
-0.7,-0.685,4211.111111111111
-0.695,-0.685,4213.888888888889
-0.685,-0.685,4216.666666666667
-0.675,-0.68,4219.444444444444
-0.675,-0.675,4222.222222222223
-0.67,-0.68,4225.0
-0.665,-0.68,4227.777777777777
-0.685,-0.675,4230.555555555556
-0.695,-0.675,4233.333333333333
-0.695,-0.675,4236.111111111111
-0.695,-0.665,4238.888888888889
-0.685,-0.65,4241.666666666667
-0.69,-0.645,4244.444444444444
-0.68,-0.625,4247.222222222223
-0.67,-0.615,4250.0
-0.675,-0.61,4252.777777777777
-0.685,-0.6,4255.555555555556
-0.68,-0.6,4258.333333333333
-0.695,-0.595,4261.111111111111
-0.715,-0.6,4263.888888888889
-0.715,-0.615,4266.666666666667
-0.73,-0.62,4269.444444444444
-0.735,-0.625,4272.222222222223
-0.74,-0.625,4275.0
-0.75,-0.62,4277.777777777777
-0.745,-0.605,4280.555555555556
-0.735,-0.6,4283.333333333333
-0.73,-0.6,4286.111111111111
-0.72,-0.59,4288.888888888889
-0.715,-0.585,4291.666666666667
-0.7,-0.585,4294.444444444444
-0.715,-0.585,4297.222222222223
-0.725,-0.595,4300.0
-0.715,-0.595,4302.777777777777
-0.725,-0.595,4305.555555555556
-0.73,-0.61,4308.333333333333
-0.725,-0.605,4311.111111111111
-0.72,-0.6,4313.888888888889
-0.695,-0.62,4316.666666666667
-0.68,-0.68,4319.444444444444
-0.65,-0.785,4322.222222222223
-0.585,-0.91,4325.0
-0.515,-1.055,4327.777777777777
-0.415,-1.225,4330.555555555556
-0.3,-1.4,4333.333333333333
-0.17,-1.54,4336.111111111111
-0.035,-1.63,4338.888888888889
0.1,-1.645,4341.666666666667
0.205,-1.59,4344.444444444444
0.285,-1.49,4347.222222222223
0.34,-1.365,4350.0
0.375,-1.225,4352.777777777777
0.4,-1.095,4355.555555555556
0.435,-0.975,4358.333333333333
0.43,-0.875,4361.111111111111
0.405,-0.82,4363.888888888889
0.34,-0.75,4366.666666666667
0.27,-0.695,4369.444444444444
0.2,-0.66,4372.222222222223
0.13,-0.645,4375.0
0.05,-0.625,4377.777777777777
-0.035,-0.62,4380.555555555556
-0.13,-0.61,4383.333333333333
-0.22,-0.57,4386.111111111111
-0.3,-0.545,4388.888888888889
-0.385,-0.52,4391.666666666667
-0.48,-0.515,4394.444444444444
-0.555,-0.535,4397.222222222223
-0.63,-0.585,4400.0
-0.67,-0.605,4402.777777777777
-0.705,-0.62,4405.555555555556
-0.71,-0.61,4408.333333333333
-0.71,-0.58,4411.111111111111
-0.695,-0.56,4413.888888888889
-0.695,-0.54,4416.666666666667
-0.675,-0.53,4419.444444444444
-0.655,-0.53,4422.222222222223
-0.65,-0.535,4425.0
-0.64,-0.54,4427.777777777777
-0.655,-0.555,4430.555555555556
-0.66,-0.555,4433.333333333333
-0.67,-0.56,4436.111111111111
-0.68,-0.57,4438.888888888889
-0.68,-0.565,4441.666666666667
-0.675,-0.54,4444.444444444444
-0.68,-0.535,4447.222222222223
-0.67,-0.53,4450.0
-0.665,-0.515,4452.777777777777
-0.655,-0.525,4455.555555555556
-0.645,-0.53,4458.333333333333
-0.65,-0.55,4461.111111111111
-0.66,-0.555,4463.888888888889
-0.665,-0.57,4466.666666666667
-0.665,-0.56,4469.444444444444
-0.67,-0.575,4472.222222222223
-0.665,-0.555,4475.0
-0.665,-0.545,4477.777777777777
-0.665,-0.54,4480.555555555556
-0.665,-0.54,4483.333333333333
-0.655,-0.54,4486.111111111111
-0.66,-0.55,4488.888888888889
-0.66,-0.535,4491.666666666667
-0.66,-0.56,4494.444444444444
-0.65,-0.56,4497.222222222223
-0.64,-0.56,4500.0
-0.645,-0.545,4502.777777777777
-0.645,-0.535,4505.555555555556
-0.645,-0.53,4508.333333333333
-0.655,-0.54,4511.111111111111
-0.65,-0.56,4513.888888888889
-0.65,-0.585,4516.666666666667
-0.65,-0.61,4519.444444444444
-0.64,-0.59,4522.222222222223
-0.64,-0.58,4525.0
-0.615,-0.57,4527.777777777777
-0.615,-0.545,4530.555555555556
-0.615,-0.555,4533.333333333333
-0.63,-0.56,4536.111111111111
-0.64,-0.57,4538.888888888889
-0.65,-0.565,4541.666666666667
-0.655,-0.565,4544.444444444444
-0.65,-0.56,4547.222222222223
-0.635,-0.545,4550.0
-0.63,-0.535,4552.777777777777
-0.635,-0.52,4555.555555555556
-0.62,-0.52,4558.333333333333
-0.625,-0.545,4561.111111111111
-0.62,-0.57,4563.888888888889
-0.625,-0.58,4566.666666666667
-0.63,-0.59,4569.444444444444
-0.625,-0.59,4572.222222222223
-0.635,-0.575,4575.0
-0.64,-0.565,4577.777777777777
-0.64,-0.55,4580.555555555556
-0.635,-0.545,4583.333333333333
-0.615,-0.545,4586.111111111111
-0.625,-0.54,4588.888888888889
-0.61,-0.56,4591.666666666667
-0.605,-0.56,4594.444444444444
-0.61,-0.56,4597.222222222223
-0.62,-0.59,4600.0
-0.63,-0.59,4602.777777777777
-0.645,-0.595,4605.555555555556
-0.635,-0.59,4608.333333333333
-0.64,-0.585,4611.111111111111
-0.64,-0.565,4613.888888888889
-0.64,-0.545,4616.666666666667
-0.63,-0.55,4619.444444444444
-0.635,-0.545,4622.222222222223
-0.615,-0.55,4625.0
-0.615,-0.55,4627.777777777777
-0.62,-0.55,4630.555555555556
-0.635,-0.565,4633.333333333333
-0.64,-0.56,4636.111111111111
-0.65,-0.565,4638.888888888889
-0.665,-0.565,4641.666666666667
-0.68,-0.555,4644.444444444444
-0.685,-0.595,4647.222222222223
-0.685,-0.625,4650.0
-0.68,-0.645,4652.777777777777
-0.685,-0.63,4655.555555555556
-0.685,-0.615,4658.333333333333
-0.695,-0.605,4661.111111111111
-0.705,-0.575,4663.888888888889
-0.73,-0.575,4666.666666666667
-0.76,-0.565,4669.444444444444
-0.775,-0.58,4672.222222222223
-0.79,-0.61,4675.0
-0.795,-0.615,4677.777777777777
-0.815,-0.63,4680.555555555556
-0.81,-0.63,4683.333333333333
-0.8,-0.61,4686.111111111111
-0.79,-0.6,4688.888888888889
-0.78,-0.58,4691.666666666667
-0.795,-0.565,4694.444444444444
-0.805,-0.57,4697.222222222223
-0.81,-0.595,4700.0
-0.83,-0.605,4702.777777777777
-0.83,-0.61,4705.555555555556
-0.835,-0.62,4708.333333333333
-0.855,-0.6,4711.111111111111
-0.85,-0.585,4713.888888888889
-0.84,-0.58,4716.666666666667
-0.835,-0.575,4719.444444444444
-0.84,-0.58,4722.222222222223
-0.85,-0.585,4725.0
-0.855,-0.6,4727.777777777777
-0.85,-0.6,4730.555555555556
-0.845,-0.625,4733.333333333333
-0.845,-0.63,4736.111111111111
-0.845,-0.63,4738.888888888889
-0.865,-0.63,4741.666666666667
-0.86,-0.615,4744.444444444444
-0.86,-0.595,4747.222222222223
-0.87,-0.585,4750.0
-0.855,-0.585,4752.777777777777
-0.855,-0.57,4755.555555555556
-0.835,-0.575,4758.333333333333
-0.85,-0.555,4761.111111111111
-0.85,-0.545,4763.888888888889
-0.845,-0.54,4766.666666666667
-0.87,-0.555,4769.444444444444
-0.875,-0.56,4772.222222222223
-0.885,-0.605,4775.0
-0.895,-0.63,4777.777777777777
-0.88,-0.645,4780.555555555556
-0.865,-0.64,4783.333333333333
-0.865,-0.605,4786.111111111111
-0.86,-0.58,4788.888888888889
-0.845,-0.575,4791.666666666667
-0.86,-0.59,4794.444444444444
-0.87,-0.59,4797.222222222223
-0.88,-0.6,4800.0
-0.88,-0.615,4802.777777777777
-0.885,-0.615,4805.555555555556
-0.9,-0.605,4808.333333333333
-0.895,-0.615,4811.111111111111
-0.885,-0.565,4813.888888888889
-0.895,-0.545,4816.666666666667
-0.895,-0.545,4819.444444444444
-0.875,-0.555,4822.222222222223
-0.88,-0.575,4825.0
-0.885,-0.58,4827.777777777777
-0.895,-0.585,4830.555555555556
-0.9,-0.58,4833.333333333333
-0.905,-0.58,4836.111111111111
-0.905,-0.595,4838.888888888889
-0.91,-0.635,4841.666666666667
-0.925,-0.64,4844.444444444444
-0.93,-0.64,4847.222222222223
-0.905,-0.63,4850.0
-0.91,-0.615,4852.777777777777
-0.895,-0.58,4855.555555555556
-0.9,-0.55,4858.333333333333
-0.91,-0.555,4861.111111111111
-0.915,-0.56,4863.888888888889
-0.9,-0.575,4866.666666666667
-0.91,-0.595,4869.444444444444
-0.92,-0.625,4872.222222222223
-0.95,-0.64,4875.0
-0.955,-0.63,4877.777777777777
-0.94,-0.63,4880.555555555556
-0.935,-0.61,4883.333333333333
-0.925,-0.605,4886.111111111111
-0.935,-0.59,4888.888888888889
-0.915,-0.57,4891.666666666667
-0.92,-0.58,4894.444444444444
-0.915,-0.6,4897.222222222223
-0.93,-0.605,4900.0
-0.935,-0.61,4902.777777777777
-0.94,-0.605,4905.555555555556
-0.945,-0.615,4908.333333333333
-0.935,-0.615,4911.111111111111
-0.94,-0.615,4913.888888888889
-0.935,-0.615,4916.666666666667
-0.935,-0.61,4919.444444444444
-0.925,-0.6,4922.222222222223
-0.91,-0.575,4925.0
-0.915,-0.58,4927.777777777777
-0.935,-0.595,4930.555555555556
-0.925,-0.605,4933.333333333333
-0.915,-0.615,4936.111111111111
-0.925,-0.62,4938.888888888889
-0.925,-0.625,4941.666666666667
-0.925,-0.615,4944.444444444444
-0.93,-0.61,4947.222222222223
-0.91,-0.605,4950.0
-0.92,-0.6,4952.777777777777
-0.92,-0.6,4955.555555555556
-0.91,-0.605,4958.333333333333
-0.905,-0.615,4961.111111111111
-0.91,-0.615,4963.888888888889
-0.92,-0.625,4966.666666666667
-0.92,-0.64,4969.444444444444
-0.92,-0.625,4972.222222222223
-0.93,-0.63,4975.0
-0.925,-0.63,4977.777777777777
-0.925,-0.605,4980.555555555556
-0.915,-0.605,4983.333333333333
-0.91,-0.61,4986.111111111111
-0.905,-0.61,4988.888888888889
-0.895,-0.6,4991.666666666667
-0.895,-0.59,4994.444444444444
-0.91,-0.595,4997.222222222223
-0.915,-0.595,5000.0
-0.93,-0.605,5002.777777777777
-0.935,-0.625,5005.555555555556
-0.935,-0.64,5008.333333333333
-0.94,-0.645,5011.111111111111
-0.93,-0.63,5013.888888888889
-0.925,-0.615,5016.666666666667
-0.91,-0.615,5019.444444444444
-0.91,-0.58,5022.222222222223
-0.89,-0.585,5025.0
-0.89,-0.59,5027.777777777777
-0.905,-0.595,5030.555555555556
-0.91,-0.62,5033.333333333333
-0.905,-0.64,5036.111111111111
-0.915,-0.645,5038.888888888889
-0.92,-0.65,5041.666666666667
-0.935,-0.64,5044.444444444444
-0.94,-0.625,5047.222222222223
-0.925,-0.605,5050.0
-0.91,-0.595,5052.777777777777
-0.905,-0.595,5055.555555555556
-0.895,-0.605,5058.333333333333
-0.89,-0.63,5061.111111111111
-0.895,-0.625,5063.888888888889
-0.9,-0.63,5066.666666666667
-0.895,-0.625,5069.444444444444
-0.895,-0.62,5072.222222222223
-0.9,-0.64,5075.0
-0.905,-0.645,5077.777777777777
-0.905,-0.65,5080.555555555556
-0.895,-0.625,5083.333333333333
-0.89,-0.615,5086.111111111111
-0.885,-0.6,5088.888888888889
-0.89,-0.6,5091.666666666667
-0.88,-0.61,5094.444444444444
-0.895,-0.595,5097.222222222223
-0.915,-0.615,5100.0
-0.905,-0.62,5102.777777777777
-0.92,-0.625,5105.555555555556
-0.92,-0.615,5108.333333333333
-0.915,-0.63,5111.111111111111
-0.915,-0.625,5113.888888888889
-0.905,-0.61,5116.666666666667
-0.9,-0.61,5119.444444444444
-0.895,-0.6,5122.222222222223
-0.885,-0.59,5125.0
-0.87,-0.6,5127.777777777777
-0.88,-0.585,5130.555555555556
-0.89,-0.59,5133.333333333333
-0.885,-0.595,5136.111111111111
-0.885,-0.61,5138.888888888889
-0.895,-0.64,5141.666666666667
-0.895,-0.645,5144.444444444444
-0.9,-0.64,5147.222222222223
-0.9,-0.63,5150.0
-0.895,-0.625,5152.777777777777
-0.9,-0.6,5155.555555555556
-0.88,-0.595,5158.333333333333
-0.85,-0.58,5161.111111111111
-0.845,-0.59,5163.888888888889
-0.845,-0.595,5166.666666666667
-0.845,-0.615,5169.444444444444
-0.84,-0.61,5172.222222222223
-0.845,-0.615,5175.0
-0.85,-0.63,5177.777777777777
-0.85,-0.65,5180.555555555556
-0.85,-0.675,5183.333333333333
-0.835,-0.7,5186.111111111111
-0.825,-0.685,5188.888888888889
-0.805,-0.69,5191.666666666667
-0.805,-0.665,5194.444444444444
-0.81,-0.655,5197.222222222223
-0.81,-0.665,5200.0
-0.825,-0.68,5202.777777777777
-0.83,-0.68,5205.555555555556
-0.84,-0.695,5208.333333333333
-0.855,-0.68,5211.111111111111
-0.855,-0.66,5213.888888888889
-0.835,-0.645,5216.666666666667
-0.835,-0.65,5219.444444444444
-0.825,-0.645,5222.222222222223
-0.8,-0.635,5225.0
-0.81,-0.635,5227.777777777777
-0.815,-0.615,5230.555555555556
-0.815,-0.62,5233.333333333333
-0.83,-0.61,5236.111111111111
-0.84,-0.605,5238.888888888889
-0.835,-0.605,5241.666666666667
-0.855,-0.625,5244.444444444444
-0.875,-0.61,5247.222222222223
-0.86,-0.63,5250.0
-0.885,-0.64,5252.777777777777
-0.885,-0.625,5255.555555555556
-0.875,-0.61,5258.333333333333
-0.87,-0.6,5261.111111111111
-0.86,-0.6,5263.888888888889
-0.86,-0.595,5266.666666666667
-0.865,-0.595,5269.444444444444
-0.875,-0.59,5272.222222222223
-0.87,-0.6,5275.0
-0.885,-0.595,5277.777777777777
-0.885,-0.6,5280.555555555556
-0.88,-0.605,5283.333333333333
-0.865,-0.605,5286.111111111111
-0.855,-0.59,5288.888888888889
-0.835,-0.575,5291.666666666667
-0.835,-0.575,5294.444444444444
-0.83,-0.575,5297.222222222223
-0.83,-0.595,5300.0
-0.82,-0.655,5302.777777777777
-0.8,-0.76,5305.555555555556
-0.77,-0.885,5308.333333333333
-0.705,-1.05,5311.111111111111
-0.62,-1.215,5313.888888888889
-0.51,-1.37,5316.666666666667
-0.365,-1.51,5319.444444444444
-0.235,-1.585,5322.222222222223
-0.105,-1.605,5325.0
0.015,-1.58,5327.777777777777
0.1,-1.49,5330.555555555556
0.155,-1.39,5333.333333333333
0.205,-1.28,5336.111111111111
0.215,-1.16,5338.888888888889
0.24,-1.075,5341.666666666667
0.245,-0.995,5344.444444444444
0.245,-0.92,5347.222222222223
0.22,-0.845,5350.0
0.175,-0.77,5352.777777777777
0.125,-0.71,5355.555555555556
0.075,-0.645,5358.333333333333
0.02,-0.615,5361.111111111111
-0.045,-0.595,5363.888888888889
-0.13,-0.595,5366.666666666667
-0.22,-0.59,5369.444444444444
-0.3,-0.6,5372.222222222223
-0.39,-0.59,5375.0
-0.485,-0.59,5377.777777777777
-0.575,-0.59,5380.555555555556
-0.645,-0.58,5383.333333333333
-0.71,-0.58,5386.111111111111
-0.755,-0.55,5388.888888888889
-0.78,-0.55,5391.666666666667
-0.805,-0.535,5394.444444444444
-0.805,-0.535,5397.222222222223
-0.815,-0.535,5400.0
-0.805,-0.545,5402.777777777777
-0.82,-0.565,5405.555555555556
-0.825,-0.565,5408.333333333333
-0.825,-0.57,5411.111111111111
-0.825,-0.565,5413.888888888889
-0.82,-0.55,5416.666666666667
-0.815,-0.54,5419.444444444444
-0.805,-0.525,5422.222222222223
-0.8,-0.515,5425.0
-0.805,-0.51,5427.777777777777
-0.805,-0.51,5430.555555555556
-0.805,-0.52,5433.333333333333
-0.795,-0.52,5436.111111111111
-0.81,-0.545,5438.888888888889
-0.815,-0.56,5441.666666666667
-0.805,-0.565,5444.444444444444
-0.815,-0.575,5447.222222222223
-0.795,-0.565,5450.0
-0.79,-0.55,5452.777777777777
-0.785,-0.555,5455.555555555556
-0.785,-0.545,5458.333333333333
-0.775,-0.54,5461.111111111111
-0.765,-0.545,5463.888888888889
-0.765,-0.54,5466.666666666667
-0.775,-0.545,5469.444444444444
-0.78,-0.55,5472.222222222223
-0.785,-0.555,5475.0
-0.785,-0.565,5477.777777777777
-0.78,-0.55,5480.555555555556
-0.785,-0.54,5483.333333333333
-0.775,-0.53,5486.111111111111
-0.775,-0.505,5488.888888888889
-0.745,-0.5,5491.666666666667
-0.74,-0.53,5494.444444444444
-0.74,-0.555,5497.222222222223
-0.745,-0.57,5500.0
-0.755,-0.575,5502.777777777777
-0.77,-0.585,5505.555555555556
-0.76,-0.56,5508.333333333333
-0.755,-0.54,5511.111111111111
-0.755,-0.53,5513.888888888889
-0.75,-0.525,5516.666666666667
-0.745,-0.54,5519.444444444444
-0.74,-0.55,5522.222222222223
-0.72,-0.555,5525.0
-0.72,-0.55,5527.777777777777
-0.725,-0.55,5530.555555555556
-0.74,-0.545,5533.333333333333
-0.74,-0.545,5536.111111111111
-0.735,-0.555,5538.888888888889
-0.74,-0.57,5541.666666666667
-0.735,-0.575,5544.444444444444
-0.75,-0.58,5547.222222222223
-0.735,-0.57,5550.0
-0.725,-0.545,5552.777777777777
-0.71,-0.53,5555.555555555556
-0.695,-0.52,5558.333333333333
-0.685,-0.525,5561.111111111111
-0.685,-0.53,5563.888888888889
-0.705,-0.535,5566.666666666667
-0.715,-0.54,5569.444444444444
-0.72,-0.565,5572.222222222223
-0.715,-0.57,5575.0
-0.71,-0.565,5577.777777777777
-0.71,-0.55,5580.555555555556
-0.7,-0.54,5583.333333333333
-0.69,-0.525,5586.111111111111
-0.68,-0.515,5588.888888888889
-0.67,-0.51,5591.666666666667
-0.67,-0.525,5594.444444444444
-0.665,-0.53,5597.222222222223
-0.68,-0.56,5600.0
-0.68,-0.57,5602.777777777777
-0.685,-0.575,5605.555555555556
-0.685,-0.585,5608.333333333333
-0.685,-0.575,5611.111111111111
-0.695,-0.57,5613.888888888889
-0.69,-0.585,5616.666666666667
-0.69,-0.585,5619.444444444444
-0.695,-0.585,5622.222222222223
-0.685,-0.565,5625.0
-0.68,-0.585,5627.777777777777
-0.69,-0.575,5630.555555555556
-0.695,-0.565,5633.333333333333
-0.7,-0.56,5636.111111111111
-0.72,-0.57,5638.888888888889
-0.72,-0.58,5641.666666666667
-0.74,-0.595,5644.444444444444
-0.76,-0.59,5647.222222222223
-0.755,-0.58,5650.0
-0.75,-0.575,5652.777777777777
-0.755,-0.57,5655.555555555556
-0.75,-0.565,5658.333333333333
-0.765,-0.575,5661.111111111111
-0.78,-0.59,5663.888888888889
-0.79,-0.61,5666.666666666667
-0.795,-0.61,5669.444444444444
-0.805,-0.615,5672.222222222223
-0.82,-0.61,5675.0
-0.825,-0.61,5677.777777777777
-0.835,-0.59,5680.555555555556
-0.835,-0.585,5683.333333333333
-0.85,-0.58,5686.111111111111
-0.845,-0.57,5688.888888888889
-0.835,-0.57,5691.666666666667
-0.84,-0.565,5694.444444444444
-0.855,-0.575,5697.222222222223
-0.865,-0.58,5700.0
-0.87,-0.59,5702.777777777777
-0.875,-0.59,5705.555555555556
-0.88,-0.59,5708.333333333333
-0.895,-0.595,5711.111111111111
-0.9,-0.58,5713.888888888889
-0.895,-0.565,5716.666666666667
-0.89,-0.565,5719.444444444444
-0.885,-0.565,5722.222222222223
-0.865,-0.57,5725.0
-0.86,-0.585,5727.777777777777
-0.845,-0.59,5730.555555555556
-0.85,-0.605,5733.333333333333
-0.845,-0.6,5736.111111111111
-0.875,-0.605,5738.888888888889
-0.88,-0.595,5741.666666666667
-0.875,-0.585,5744.444444444444
-0.87,-0.58,5747.222222222223
-0.865,-0.58,5750.0
-0.86,-0.575,5752.777777777777
-0.85,-0.56,5755.555555555556
-0.84,-0.58,5758.333333333333
-0.845,-0.575,5761.111111111111
-0.845,-0.59,5763.888888888889
-0.85,-0.59,5766.666666666667
-0.855,-0.605,5769.444444444444
-0.86,-0.585,5772.222222222223
-0.865,-0.595,5775.0
-0.875,-0.585,5777.777777777777
-0.87,-0.575,5780.555555555556
-0.875,-0.58,5783.333333333333
-0.88,-0.57,5786.111111111111
-0.87,-0.56,5788.888888888889
-0.865,-0.56,5791.666666666667
-0.86,-0.56,5794.444444444444
-0.86,-0.55,5797.222222222223
-0.86,-0.555,5800.0
-0.88,-0.57,5802.777777777777
-0.88,-0.58,5805.555555555556
-0.89,-0.6,5808.333333333333
-0.895,-0.605,5811.111111111111
-0.9,-0.605,5813.888888888889
-0.89,-0.585,5816.666666666667
-0.895,-0.565,5819.444444444444
-0.885,-0.55,5822.222222222223
-0.875,-0.55,5825.0
-0.885,-0.55,5827.777777777777
-0.885,-0.56,5830.555555555556
-0.895,-0.58,5833.333333333333
-0.895,-0.6,5836.111111111111
-0.9,-0.605,5838.888888888889
-0.915,-0.6,5841.666666666667
-0.915,-0.585,5844.444444444444
-0.92,-0.57,5847.222222222223
-0.92,-0.575,5850.0
-0.91,-0.57,5852.777777777777
-0.9,-0.57,5855.555555555556
-0.895,-0.555,5858.333333333333
-0.875,-0.57,5861.111111111111
-0.88,-0.575,5863.888888888889
-0.88,-0.58,5866.666666666667
-0.88,-0.575,5869.444444444444
-0.88,-0.59,5872.222222222223
-0.9,-0.6,5875.0
-0.915,-0.59,5877.777777777777
-0.905,-0.59,5880.555555555556
-0.9,-0.58,5883.333333333333
-0.89,-0.58,5886.111111111111
-0.89,-0.57,5888.888888888889
-0.875,-0.57,5891.666666666667
-0.875,-0.57,5894.444444444444
-0.87,-0.57,5897.222222222223
-0.87,-0.585,5900.0
-0.895,-0.59,5902.777777777777
-0.89,-0.6,5905.555555555556
-0.88,-0.61,5908.333333333333
-0.895,-0.595,5911.111111111111
-0.89,-0.585,5913.888888888889
-0.885,-0.585,5916.666666666667
-0.88,-0.57,5919.444444444444
-0.88,-0.57,5922.222222222223
-0.88,-0.565,5925.0
-0.87,-0.575,5927.777777777777
-0.87,-0.58,5930.555555555556
-0.865,-0.585,5933.333333333333
-0.87,-0.59,5936.111111111111
-0.865,-0.6,5938.888888888889
-0.87,-0.6,5941.666666666667
-0.875,-0.595,5944.444444444444
-0.88,-0.6,5947.222222222223
-0.865,-0.585,5950.0
-0.87,-0.575,5952.777777777777
-0.85,-0.575,5955.555555555556
-0.85,-0.56,5958.333333333333
-0.85,-0.575,5961.111111111111
-0.85,-0.58,5963.888888888889
-0.85,-0.585,5966.666666666667
-0.87,-0.6,5969.444444444444
-0.875,-0.595,5972.222222222223
-0.86,-0.6,5975.0
-0.875,-0.59,5977.777777777777
-0.865,-0.59,5980.555555555556
-0.855,-0.59,5983.333333333333
-0.855,-0.575,5986.111111111111
-0.845,-0.57,5988.888888888889
-0.835,-0.585,5991.666666666667
-0.83,-0.59,5994.444444444444
-0.835,-0.58,5997.222222222223
-0.845,-0.585,6000.0
-0.84,-0.585,6002.777777777777
-0.85,-0.595,6005.555555555556
-0.87,-0.595,6008.333333333333
-0.865,-0.595,6011.111111111111
-0.865,-0.595,6013.888888888889
-0.845,-0.59,6016.666666666667
-0.84,-0.57,6019.444444444444
-0.84,-0.565,6022.222222222223
-0.83,-0.57,6025.0
-0.82,-0.58,6027.777777777777
-0.825,-0.575,6030.555555555556
-0.83,-0.585,6033.333333333333
-0.835,-0.6,6036.111111111111
-0.86,-0.6,6038.888888888889
-0.86,-0.605,6041.666666666667
-0.855,-0.605,6044.444444444444
-0.85,-0.59,6047.222222222223
-0.835,-0.58,6050.0
-0.82,-0.58,6052.777777777777
-0.815,-0.575,6055.555555555556
-0.81,-0.58,6058.333333333333
-0.82,-0.58,6061.111111111111
-0.825,-0.575,6063.888888888889
-0.82,-0.585,6066.666666666667
-0.825,-0.59,6069.444444444444
-0.82,-0.59,6072.222222222223
-0.825,-0.605,6075.0
-0.84,-0.59,6077.777777777777
-0.845,-0.585,6080.555555555556
-0.845,-0.585,6083.333333333333
-0.83,-0.57,6086.111111111111
-0.835,-0.56,6088.888888888889
-0.82,-0.555,6091.666666666667
-0.82,-0.55,6094.444444444444
-0.8,-0.555,6097.222222222223
-0.81,-0.58,6100.0
-0.81,-0.585,6102.777777777777
-0.82,-0.585,6105.555555555556
-0.84,-0.6,6108.333333333333
-0.835,-0.58,6111.111111111111
-0.85,-0.57,6113.888888888889
-0.83,-0.57,6116.666666666667
-0.82,-0.565,6119.444444444444
-0.81,-0.555,6122.222222222223
-0.805,-0.545,6125.0
-0.825,-0.56,6127.777777777777
-0.815,-0.57,6130.555555555556
-0.825,-0.595,6133.333333333333
-0.83,-0.58,6136.111111111111
-0.825,-0.58,6138.888888888889
-0.835,-0.57,6141.666666666667
-0.84,-0.57,6144.444444444444
-0.815,-0.565,6147.222222222223
-0.81,-0.56,6150.0
-0.815,-0.565,6152.777777777777
-0.805,-0.555,6155.555555555556
-0.78,-0.545,6158.333333333333
-0.765,-0.55,6161.111111111111
-0.745,-0.545,6163.888888888889
-0.735,-0.56,6166.666666666667
-0.74,-0.575,6169.444444444444
-0.755,-0.595,6172.222222222223
-0.77,-0.615,6175.0
-0.775,-0.635,6177.777777777777
-0.78,-0.65,6180.555555555556
-0.77,-0.65,6183.333333333333
-0.75,-0.65,6186.111111111111
-0.735,-0.63,6188.888888888889
-0.725,-0.62,6191.666666666667
-0.72,-0.625,6194.444444444444
-0.73,-0.62,6197.222222222223
-0.725,-0.625,6200.0
-0.74,-0.625,6202.777777777777
-0.745,-0.64,6205.555555555556
-0.75,-0.64,6208.333333333333
-0.76,-0.625,6211.111111111111
-0.75,-0.6,6213.888888888889
-0.74,-0.59,6216.666666666667
-0.71,-0.58,6219.444444444444
-0.7,-0.575,6222.222222222223
-0.7,-0.58,6225.0
-0.7,-0.595,6227.777777777777
-0.695,-0.595,6230.555555555556
-0.695,-0.59,6233.333333333333
-0.695,-0.59,6236.111111111111
-0.725,-0.58,6238.888888888889
-0.735,-0.585,6241.666666666667
-0.735,-0.585,6244.444444444444
-0.755,-0.58,6247.222222222223
-0.745,-0.565,6250.0
-0.745,-0.575,6252.777777777777
-0.745,-0.55,6255.555555555556
-0.735,-0.555,6258.333333333333
-0.73,-0.55,6261.111111111111
-0.73,-0.565,6263.888888888889
-0.725,-0.57,6266.666666666667
-0.73,-0.575,6269.444444444444
-0.735,-0.57,6272.222222222223
-0.73,-0.575,6275.0
-0.74,-0.57,6277.777777777777
-0.74,-0.58,6280.555555555556
-0.73,-0.565,6283.333333333333
-0.73,-0.545,6286.111111111111
-0.72,-0.525,6288.888888888889
-0.71,-0.52,6291.666666666667
-0.69,-0.52,6294.444444444444
-0.685,-0.535,6297.222222222223
-0.67,-0.565,6300.0
-0.66,-0.65,6302.777777777777
-0.64,-0.78,6305.555555555556
-0.6,-0.945,6308.333333333333
-0.515,-1.15,6311.111111111111
-0.4,-1.34,6313.888888888889
-0.245,-1.515,6316.666666666667
-0.08,-1.615,6319.444444444444
0.065,-1.64,6322.222222222223
0.2,-1.58,6325.0
0.3,-1.455,6327.777777777777
0.355,-1.3,6330.555555555556
0.39,-1.155,6333.333333333333
0.41,-1.03,6336.111111111111
0.41,-0.925,6338.888888888889
0.41,-0.86,6341.666666666667
0.395,-0.78,6344.444444444444
0.375,-0.715,6347.222222222223
0.32,-0.64,6350.0
0.26,-0.59,6352.777777777777
0.21,-0.55,6355.555555555556
0.145,-0.52,6358.333333333333
0.055,-0.515,6361.111111111111
-0.06,-0.515,6363.888888888889
-0.17,-0.515,6366.666666666667
-0.295,-0.525,6369.444444444444
-0.405,-0.54,6372.222222222223
-0.5,-0.53,6375.0
-0.585,-0.52,6377.777777777777
-0.615,-0.5,6380.555555555556
-0.655,-0.475,6383.333333333333
-0.655,-0.475,6386.111111111111
-0.645,-0.475,6388.888888888889
-0.635,-0.475,6391.666666666667
-0.645,-0.49,6394.444444444444
-0.645,-0.505,6397.222222222223
-0.64,-0.515,6400.0
-0.64,-0.515,6402.777777777777
-0.66,-0.505,6405.555555555556
-0.665,-0.505,6408.333333333333
-0.665,-0.51,6411.111111111111
-0.655,-0.5,6413.888888888889
-0.66,-0.485,6416.666666666667
-0.66,-0.475,6419.444444444444
-0.635,-0.46,6422.222222222223
-0.62,-0.455,6425.0
-0.62,-0.455,6427.777777777777
-0.62,-0.465,6430.555555555556
-0.63,-0.475,6433.333333333333
-0.63,-0.485,6436.111111111111
-0.64,-0.485,6438.888888888889
-0.66,-0.49,6441.666666666667
-0.645,-0.495,6444.444444444444
-0.645,-0.485,6447.222222222223
-0.635,-0.48,6450.0
-0.635,-0.475,6452.777777777777
-0.615,-0.46,6455.555555555556
-0.6,-0.455,6458.333333333333
-0.595,-0.46,6461.111111111111
-0.605,-0.465,6463.888888888889
-0.6,-0.47,6466.666666666667
-0.6,-0.47,6469.444444444444
-0.61,-0.475,6472.222222222223
-0.62,-0.48,6475.0
-0.625,-0.47,6477.777777777777
-0.625,-0.475,6480.555555555556
-0.625,-0.465,6483.333333333333
-0.61,-0.47,6486.111111111111
-0.605,-0.465,6488.888888888889
-0.585,-0.47,6491.666666666667
-0.57,-0.475,6494.444444444444
-0.56,-0.47,6497.222222222223
-0.56,-0.485,6500.0
-0.555,-0.48,6502.777777777777
-0.56,-0.475,6505.555555555556
-0.575,-0.49,6508.333333333333
-0.585,-0.48,6511.111111111111
-0.57,-0.48,6513.888888888889
-0.57,-0.475,6516.666666666667
-0.56,-0.475,6519.444444444444
-0.56,-0.475,6522.222222222223
-0.555,-0.45,6525.0
-0.545,-0.455,6527.777777777777
-0.55,-0.46,6530.555555555556
-0.53,-0.465,6533.333333333333
-0.535,-0.475,6536.111111111111
-0.54,-0.475,6538.888888888889
-0.535,-0.46,6541.666666666667
-0.545,-0.465,6544.444444444444
-0.545,-0.48,6547.222222222223
-0.545,-0.475,6550.0
-0.54,-0.475,6552.777777777777
-0.54,-0.47,6555.555555555556
-0.53,-0.47,6558.333333333333
-0.515,-0.465,6561.111111111111
-0.52,-0.47,6563.888888888889
-0.505,-0.465,6566.666666666667
-0.505,-0.465,6569.444444444444
-0.51,-0.47,6572.222222222223
-0.515,-0.49,6575.0
-0.52,-0.485,6577.777777777777
-0.52,-0.49,6580.555555555556
-0.52,-0.485,6583.333333333333
-0.51,-0.465,6586.111111111111
-0.51,-0.475,6588.888888888889
-0.5,-0.46,6591.666666666667
-0.49,-0.465,6594.444444444444
-0.485,-0.465,6597.222222222223
-0.475,-0.46,6600.0
-0.49,-0.475,6602.777777777777
-0.485,-0.485,6605.555555555556
-0.5,-0.5,6608.333333333333
-0.515,-0.52,6611.111111111111
-0.525,-0.53,6613.888888888889
-0.53,-0.54,6616.666666666667
-0.52,-0.535,6619.444444444444
-0.505,-0.515,6622.222222222223
-0.495,-0.5,6625.0
-0.485,-0.505,6627.777777777777
-0.495,-0.49,6630.555555555556
-0.515,-0.49,6633.333333333333
-0.535,-0.505,6636.111111111111
-0.545,-0.515,6638.888888888889
-0.55,-0.51,6641.666666666667
-0.555,-0.505,6644.444444444444
-0.55,-0.515,6647.222222222223
-0.555,-0.535,6650.0
-0.555,-0.555,6652.777777777777
-0.55,-0.565,6655.555555555556
-0.55,-0.56,6658.333333333333
-0.56,-0.55,6661.111111111111
-0.56,-0.535,6663.888888888889
-0.585,-0.51,6666.666666666667
-0.605,-0.5,6669.444444444444
-0.61,-0.51,6672.222222222223
-0.62,-0.53,6675.0
-0.635,-0.52,6677.777777777777
-0.64,-0.53,6680.555555555556
-0.655,-0.515,6683.333333333333
-0.645,-0.53,6686.111111111111
-0.66,-0.55,6688.888888888889
-0.66,-0.55,6691.666666666667
-0.655,-0.58,6694.444444444444
-0.65,-0.58,6697.222222222223
-0.655,-0.57,6700.0
-0.66,-0.57,6702.777777777777
-0.665,-0.56,6705.555555555556
-0.685,-0.535,6708.333333333333
-0.695,-0.53,6711.111111111111
-0.69,-0.53,6713.888888888889
-0.69,-0.5,6716.666666666667
-0.675,-0.49,6719.444444444444
-0.665,-0.5,6722.222222222223
-0.66,-0.505,6725.0
-0.64,-0.545,6727.777777777777
-0.65,-0.55,6730.555555555556
-0.64,-0.55,6733.333333333333
-0.65,-0.55,6736.111111111111
-0.66,-0.52,6738.888888888889
-0.67,-0.505,6741.666666666667
-0.68,-0.49,6744.444444444444
-0.67,-0.47,6747.222222222223
-0.68,-0.485,6750.0
-0.67,-0.495,6752.777777777777
-0.665,-0.52,6755.555555555556
-0.66,-0.51,6758.333333333333
-0.655,-0.53,6761.111111111111
-0.655,-0.53,6763.888888888889
-0.665,-0.565,6766.666666666667
-0.665,-0.565,6769.444444444444
-0.68,-0.585,6772.222222222223
-0.69,-0.575,6775.0
-0.69,-0.575,6777.777777777777
-0.685,-0.55,6780.555555555556
-0.68,-0.525,6783.333333333333
-0.66,-0.505,6786.111111111111
-0.66,-0.5,6788.888888888889
-0.665,-0.49,6791.666666666667
-0.66,-0.525,6794.444444444444
-0.665,-0.54,6797.222222222223
-0.675,-0.545,6800.0
-0.675,-0.55,6802.777777777777
-0.675,-0.545,6805.555555555556
-0.69,-0.535,6808.333333333333
-0.695,-0.54,6811.111111111111
-0.7,-0.53,6813.888888888889
-0.705,-0.52,6816.666666666667
-0.725,-0.51,6819.444444444444
-0.715,-0.5,6822.222222222223
-0.705,-0.495,6825.0
-0.705,-0.51,6827.777777777777
-0.7,-0.52,6830.555555555556
-0.705,-0.52,6833.333333333333
-0.72,-0.535,6836.111111111111
-0.725,-0.54,6838.888888888889
-0.725,-0.54,6841.666666666667
-0.73,-0.54,6844.444444444444
-0.72,-0.545,6847.222222222223
-0.71,-0.53,6850.0
-0.72,-0.525,6852.777777777777
-0.715,-0.515,6855.555555555556
-0.705,-0.51,6858.333333333333
-0.705,-0.51,6861.111111111111
-0.705,-0.51,6863.888888888889
-0.71,-0.52,6866.666666666667
-0.715,-0.535,6869.444444444444
-0.72,-0.53,6872.222222222223
-0.715,-0.54,6875.0
-0.725,-0.545,6877.777777777777
-0.735,-0.545,6880.555555555556
-0.72,-0.525,6883.333333333333
-0.72,-0.535,6886.111111111111
-0.7,-0.52,6888.888888888889
-0.695,-0.515,6891.666666666667
-0.695,-0.525,6894.444444444444
-0.695,-0.53,6897.222222222223
-0.7,-0.525,6900.0
-0.71,-0.54,6902.777777777777
-0.705,-0.55,6905.555555555556
-0.72,-0.56,6908.333333333333
-0.715,-0.555,6911.111111111111
-0.715,-0.56,6913.888888888889
-0.705,-0.55,6916.666666666667
-0.69,-0.54,6919.444444444444
-0.69,-0.53,6922.222222222223
-0.685,-0.515,6925.0
-0.68,-0.54,6927.777777777777
-0.695,-0.545,6930.555555555556
-0.685,-0.55,6933.333333333333
-0.685,-0.56,6936.111111111111
-0.695,-0.56,6938.888888888889
-0.695,-0.555,6941.666666666667
-0.7,-0.555,6944.444444444444
-0.69,-0.55,6947.222222222223
-0.695,-0.54,6950.0
-0.695,-0.545,6952.777777777777
-0.69,-0.54,6955.555555555556
-0.68,-0.535,6958.333333333333
-0.675,-0.545,6961.111111111111
-0.675,-0.555,6963.888888888889
-0.675,-0.56,6966.666666666667
-0.68,-0.575,6969.444444444444
-0.675,-0.57,6972.222222222223
-0.68,-0.575,6975.0
-0.685,-0.57,6977.777777777777
-0.685,-0.57,6980.555555555556
-0.685,-0.55,6983.333333333333
-0.68,-0.555,6986.111111111111
-0.68,-0.555,6988.888888888889
-0.67,-0.54,6991.666666666667
-0.665,-0.545,6994.444444444444
-0.67,-0.545,6997.222222222223
-0.66,-0.55,7000.0
-0.665,-0.555,7002.777777777777
-0.675,-0.56,7005.555555555556
-0.68,-0.565,7008.333333333333
-0.69,-0.57,7011.111111111111
-0.69,-0.565,7013.888888888889
-0.68,-0.55,7016.666666666667
-0.665,-0.555,7019.444444444444
-0.66,-0.55,7022.222222222223
-0.665,-0.545,7025.0
-0.655,-0.545,7027.777777777777
-0.665,-0.555,7030.555555555556
-0.67,-0.555,7033.333333333333
-0.675,-0.57,7036.111111111111
-0.675,-0.575,7038.888888888889
-0.705,-0.57,7041.666666666667
-0.71,-0.565,7044.444444444444
-0.695,-0.575,7047.222222222223
-0.695,-0.57,7050.0
-0.695,-0.565,7052.777777777777
-0.685,-0.55,7055.555555555556
-0.665,-0.54,7058.333333333333
-0.66,-0.54,7061.111111111111
-0.665,-0.55,7063.888888888889
-0.67,-0.55,7066.666666666667
-0.695,-0.555,7069.444444444444
-0.69,-0.57,7072.222222222223
-0.69,-0.575,7075.0
-0.7,-0.575,7077.777777777777
-0.69,-0.58,7080.555555555556
-0.69,-0.565,7083.333333333333
-0.68,-0.555,7086.111111111111
-0.675,-0.555,7088.888888888889
-0.68,-0.545,7091.666666666667
-0.675,-0.55,7094.444444444444
-0.67,-0.565,7097.222222222223
-0.665,-0.565,7100.0
-0.67,-0.565,7102.777777777777
-0.67,-0.57,7105.555555555556
-0.695,-0.575,7108.333333333333
-0.705,-0.58,7111.111111111111
-0.7,-0.58,7113.888888888889
-0.695,-0.57,7116.666666666667
-0.69,-0.565,7119.444444444444
-0.68,-0.56,7122.222222222223
-0.675,-0.55,7125.0
-0.675,-0.545,7127.777777777777
-0.67,-0.555,7130.555555555556
-0.685,-0.565,7133.333333333333
-0.68,-0.585,7136.111111111111
-0.675,-0.575,7138.888888888889
-0.685,-0.575,7141.666666666667
-0.69,-0.57,7144.444444444444
-0.685,-0.565,7147.222222222223
-0.68,-0.55,7150.0
-0.68,-0.55,7152.777777777777
-0.685,-0.54,7155.555555555556
-0.66,-0.53,7158.333333333333
-0.645,-0.54,7161.111111111111
-0.645,-0.55,7163.888888888889
-0.625,-0.545,7166.666666666667
-0.62,-0.56,7169.444444444444
-0.62,-0.565,7172.222222222223
-0.63,-0.59,7175.0
-0.63,-0.595,7177.777777777777
-0.635,-0.605,7180.555555555556
-0.635,-0.625,7183.333333333333
-0.635,-0.645,7186.111111111111
-0.625,-0.635,7188.888888888889
-0.615,-0.64,7191.666666666667
-0.605,-0.64,7194.444444444444
-0.61,-0.63,7197.222222222223
-0.61,-0.63,7200.0
-0.62,-0.625,7202.777777777777
-0.63,-0.63,7205.555555555556
-0.63,-0.63,7208.333333333333
-0.645,-0.635,7211.111111111111
-0.64,-0.63,7213.888888888889
-0.635,-0.615,7216.666666666667
-0.62,-0.605,7219.444444444444
-0.625,-0.59,7222.222222222223
-0.6,-0.585,7225.0
-0.61,-0.575,7227.777777777777
-0.605,-0.575,7230.555555555556
-0.615,-0.57,7233.333333333333
-0.63,-0.57,7236.111111111111
-0.65,-0.575,7238.888888888889
-0.66,-0.575,7241.666666666667
-0.67,-0.575,7244.444444444444
-0.67,-0.585,7247.222222222223
-0.68,-0.575,7250.0
-0.685,-0.57,7252.777777777777
-0.68,-0.56,7255.555555555556
-0.675,-0.545,7258.333333333333
-0.675,-0.555,7261.111111111111
-0.675,-0.555,7263.888888888889
-0.685,-0.56,7266.666666666667
-0.705,-0.57,7269.444444444444
-0.71,-0.57,7272.222222222223
-0.715,-0.585,7275.0
-0.72,-0.585,7277.777777777777
-0.705,-0.575,7280.555555555556
-0.69,-0.56,7283.333333333333
-0.68,-0.54,7286.111111111111
-0.675,-0.525,7288.888888888889
-0.65,-0.51,7291.666666666667
-0.65,-0.5,7294.444444444444
-0.655,-0.525,7297.222222222223
-0.65,-0.57,7300.0
-0.645,-0.66,7302.777777777777
-0.635,-0.785,7305.555555555556
-0.595,-0.955,7308.333333333333
-0.53,-1.145,7311.111111111111
-0.435,-1.375,7313.888888888889
-0.315,-1.575,7316.666666666667
-0.17,-1.745,7319.444444444444
-0.02,-1.82,7322.222222222223
0.115,-1.765,7325.0
0.22,-1.61,7327.777777777777
0.275,-1.405,7330.555555555556
0.345,-1.2,7333.333333333333
0.395,-1.025,7336.111111111111
0.425,-0.9,7338.888888888889
0.4,-0.79,7341.666666666667
0.36,-0.71,7344.444444444444
0.29,-0.64,7347.222222222223
0.21,-0.585,7350.0
0.12,-0.55,7352.777777777777
0.04,-0.535,7355.555555555556
-0.055,-0.525,7358.333333333333
-0.155,-0.535,7361.111111111111
-0.26,-0.525,7363.888888888889
-0.35,-0.52,7366.666666666667
-0.45,-0.53,7369.444444444444
-0.52,-0.515,7372.222222222223
-0.57,-0.515,7375.0
-0.63,-0.525,7377.777777777777
-0.665,-0.52,7380.555555555556
-0.675,-0.5,7383.333333333333
-0.67,-0.495,7386.111111111111
-0.665,-0.485,7388.888888888889
-0.67,-0.47,7391.666666666667
-0.655,-0.475,7394.444444444444
-0.65,-0.485,7397.222222222223
-0.65,-0.47,7400.0
-0.64,-0.49,7402.777777777777
-0.65,-0.495,7405.555555555556
-0.66,-0.485,7408.333333333333
-0.665,-0.495,7411.111111111111
-0.655,-0.49,7413.888888888889
-0.66,-0.48,7416.666666666667
-0.645,-0.48,7419.444444444444
-0.64,-0.46,7422.222222222223
-0.63,-0.45,7425.0
-0.625,-0.455,7427.777777777777
-0.62,-0.47,7430.555555555556
-0.63,-0.465,7433.333333333333
-0.645,-0.475,7436.111111111111
-0.65,-0.48,7438.888888888889
-0.655,-0.485,7441.666666666667
-0.655,-0.49,7444.444444444444
-0.65,-0.485,7447.222222222223
-0.645,-0.47,7450.0
-0.64,-0.46,7452.777777777777
-0.625,-0.455,7455.555555555556
-0.625,-0.45,7458.333333333333
-0.615,-0.455,7461.111111111111
-0.615,-0.47,7463.888888888889
-0.615,-0.465,7466.666666666667
-0.62,-0.475,7469.444444444444
-0.63,-0.48,7472.222222222223
-0.625,-0.48,7475.0
-0.625,-0.475,7477.777777777777
-0.635,-0.465,7480.555555555556
-0.63,-0.465,7483.333333333333
-0.625,-0.465,7486.111111111111
-0.62,-0.455,7488.888888888889
-0.62,-0.455,7491.666666666667
-0.605,-0.47,7494.444444444444
-0.61,-0.46,7497.222222222223
-0.6,-0.47,7500.0
-0.62,-0.465,7502.777777777777
-0.61,-0.475,7505.555555555556
-0.61,-0.475,7508.333333333333
-0.63,-0.475,7511.111111111111
-0.625,-0.475,7513.888888888889
-0.625,-0.48,7516.666666666667
-0.615,-0.465,7519.444444444444
-0.61,-0.455,7522.222222222223
-0.595,-0.45,7525.0
-0.59,-0.455,7527.777777777777
-0.58,-0.46,7530.555555555556
-0.585,-0.47,7533.333333333333
-0.59,-0.475,7536.111111111111
-0.6,-0.475,7538.888888888889
-0.6,-0.485,7541.666666666667
-0.605,-0.48,7544.444444444444
-0.59,-0.485,7547.222222222223
-0.595,-0.48,7550.0
-0.585,-0.46,7552.777777777777
-0.565,-0.475,7555.555555555556
-0.565,-0.45,7558.333333333333
-0.565,-0.455,7561.111111111111
-0.56,-0.46,7563.888888888889
-0.585,-0.47,7566.666666666667
-0.585,-0.465,7569.444444444444
-0.565,-0.485,7572.222222222223
-0.57,-0.475,7575.0
-0.59,-0.485,7577.777777777777
-0.58,-0.485,7580.555555555556
-0.58,-0.465,7583.333333333333
-0.575,-0.475,7586.111111111111
-0.575,-0.475,7588.888888888889
-0.57,-0.475,7591.666666666667
-0.57,-0.47,7594.444444444444
-0.555,-0.485,7597.222222222223
-0.555,-0.495,7600.0
-0.55,-0.51,7602.777777777777
-0.565,-0.515,7605.555555555556
-0.575,-0.515,7608.333333333333
-0.585,-0.51,7611.111111111111
-0.595,-0.525,7613.888888888889
-0.595,-0.51,7616.666666666667
-0.59,-0.5,7619.444444444444
-0.59,-0.5,7622.222222222223
-0.585,-0.505,7625.0
-0.59,-0.515,7627.777777777777
-0.6,-0.52,7630.555555555556
-0.6,-0.535,7633.333333333333
-0.615,-0.545,7636.111111111111
-0.625,-0.555,7638.888888888889
-0.64,-0.55,7641.666666666667
-0.65,-0.555,7644.444444444444
-0.67,-0.55,7647.222222222223
-0.675,-0.54,7650.0
-0.67,-0.545,7652.777777777777
-0.67,-0.555,7655.555555555556
-0.665,-0.535,7658.333333333333
-0.675,-0.535,7661.111111111111
-0.675,-0.545,7663.888888888889
-0.685,-0.545,7666.666666666667
-0.705,-0.545,7669.444444444444
-0.72,-0.575,7672.222222222223
-0.735,-0.565,7675.0
-0.745,-0.57,7677.777777777777
-0.745,-0.57,7680.555555555556
-0.745,-0.56,7683.333333333333
-0.745,-0.545,7686.111111111111
-0.745,-0.545,7688.888888888889
-0.735,-0.54,7691.666666666667
-0.74,-0.555,7694.444444444444
-0.75,-0.545,7697.222222222223
-0.755,-0.56,7700.0
-0.76,-0.56,7702.777777777777
-0.76,-0.56,7705.555555555556
-0.775,-0.565,7708.333333333333
-0.79,-0.565,7711.111111111111
-0.775,-0.55,7713.888888888889
-0.785,-0.55,7716.666666666667
-0.78,-0.555,7719.444444444444
-0.765,-0.53,7722.222222222223
-0.77,-0.53,7725.0
-0.77,-0.525,7727.777777777777
-0.765,-0.53,7730.555555555556
-0.77,-0.54,7733.333333333333
-0.775,-0.535,7736.111111111111
-0.785,-0.545,7738.888888888889
-0.79,-0.54,7741.666666666667
-0.795,-0.56,7744.444444444444
-0.805,-0.55,7747.222222222223
-0.805,-0.54,7750.0
-0.795,-0.535,7752.777777777777
-0.79,-0.51,7755.555555555556
-0.785,-0.525,7758.333333333333
-0.795,-0.52,7761.111111111111
-0.795,-0.53,7763.888888888889
-0.795,-0.53,7766.666666666667
-0.795,-0.53,7769.444444444444
-0.81,-0.535,7772.222222222223
-0.825,-0.55,7775.0
-0.82,-0.54,7777.777777777777
-0.835,-0.53,7780.555555555556
-0.835,-0.52,7783.333333333333
-0.83,-0.525,7786.111111111111
-0.825,-0.515,7788.888888888889
-0.815,-0.51,7791.666666666667
-0.82,-0.515,7794.444444444444
-0.825,-0.515,7797.222222222223
-0.83,-0.53,7800.0
-0.83,-0.53,7802.777777777777
-0.845,-0.54,7805.555555555556
-0.845,-0.55,7808.333333333333
-0.855,-0.535,7811.111111111111
-0.855,-0.54,7813.888888888889
-0.86,-0.535,7816.666666666667
-0.85,-0.53,7819.444444444444
-0.855,-0.52,7822.222222222223
-0.85,-0.52,7825.0
-0.84,-0.535,7827.777777777777
-0.85,-0.52,7830.555555555556
-0.85,-0.54,7833.333333333333
-0.85,-0.555,7836.111111111111
-0.87,-0.55,7838.888888888889
-0.88,-0.54,7841.666666666667
-0.88,-0.56,7844.444444444444
-0.89,-0.555,7847.222222222223
-0.88,-0.555,7850.0
-0.87,-0.54,7852.777777777777
-0.87,-0.545,7855.555555555556
-0.86,-0.535,7858.333333333333
-0.86,-0.535,7861.111111111111
-0.865,-0.545,7863.888888888889
-0.87,-0.56,7866.666666666667
-0.865,-0.56,7869.444444444444
-0.87,-0.575,7872.222222222223
-0.875,-0.575,7875.0
-0.88,-0.57,7877.777777777777
-0.875,-0.56,7880.555555555556
-0.875,-0.56,7883.333333333333
-0.89,-0.545,7886.111111111111
-0.87,-0.54,7888.888888888889
-0.865,-0.535,7891.666666666667
-0.865,-0.535,7894.444444444444
-0.855,-0.545,7897.222222222223
-0.85,-0.56,7900.0
-0.87,-0.565,7902.777777777777
-0.875,-0.57,7905.555555555556
-0.875,-0.565,7908.333333333333
-0.88,-0.57,7911.111111111111
-0.88,-0.56,7913.888888888889
-0.88,-0.55,7916.666666666667
-0.875,-0.555,7919.444444444444
-0.865,-0.54,7922.222222222223
-0.86,-0.555,7925.0
-0.855,-0.56,7927.777777777777
-0.855,-0.55,7930.555555555556
-0.855,-0.565,7933.333333333333
-0.845,-0.58,7936.111111111111
-0.86,-0.565,7938.888888888889
-0.87,-0.575,7941.666666666667
-0.86,-0.58,7944.444444444444
-0.87,-0.57,7947.222222222223
-0.885,-0.57,7950.0
-0.865,-0.56,7952.777777777777
-0.865,-0.55,7955.555555555556
-0.85,-0.55,7958.333333333333
-0.84,-0.55,7961.111111111111
-0.835,-0.555,7963.888888888889
-0.835,-0.56,7966.666666666667
-0.85,-0.575,7969.444444444444
-0.845,-0.565,7972.222222222223
-0.86,-0.58,7975.0
-0.865,-0.575,7977.777777777777
-0.865,-0.58,7980.555555555556
-0.87,-0.575,7983.333333333333
-0.865,-0.565,7986.111111111111
-0.865,-0.57,7988.888888888889
-0.845,-0.55,7991.666666666667
-0.84,-0.545,7994.444444444444
-0.835,-0.55,7997.222222222223
-0.825,-0.55,8000.0
-0.84,-0.565,8002.777777777777
-0.86,-0.58,8005.555555555556
-0.87,-0.585,8008.333333333333
-0.87,-0.575,8011.111111111111
-0.87,-0.58,8013.888888888889
-0.86,-0.575,8016.666666666667
-0.855,-0.565,8019.444444444444
-0.835,-0.555,8022.222222222223
-0.825,-0.545,8025.0
-0.82,-0.55,8027.777777777777
-0.825,-0.56,8030.555555555556
-0.83,-0.56,8033.333333333333
-0.83,-0.56,8036.111111111111
-0.85,-0.575,8038.888888888889
-0.86,-0.575,8041.666666666667
-0.86,-0.58,8044.444444444444
-0.86,-0.575,8047.222222222223
-0.855,-0.57,8050.0
-0.845,-0.555,8052.777777777777
-0.84,-0.56,8055.555555555556
-0.84,-0.555,8058.333333333333
-0.84,-0.55,8061.111111111111
-0.835,-0.555,8063.888888888889
-0.845,-0.565,8066.666666666667
-0.84,-0.58,8069.444444444444
-0.83,-0.585,8072.222222222223
-0.855,-0.59,8075.0
-0.845,-0.58,8077.777777777777
-0.83,-0.58,8080.555555555556
-0.85,-0.565,8083.333333333333
-0.835,-0.55,8086.111111111111
-0.835,-0.56,8088.888888888889
-0.83,-0.555,8091.666666666667
-0.83,-0.56,8094.444444444444
-0.835,-0.56,8097.222222222223
-0.835,-0.57,8100.0
-0.84,-0.585,8102.777777777777
-0.85,-0.59,8105.555555555556
-0.85,-0.59,8108.333333333333
-0.84,-0.59,8111.111111111111
-0.85,-0.575,8113.888888888889
-0.84,-0.58,8116.666666666667
-0.835,-0.57,8119.444444444444
-0.825,-0.56,8122.222222222223
-0.825,-0.565,8125.0
-0.82,-0.565,8127.777777777777
-0.82,-0.56,8130.555555555556
-0.81,-0.575,8133.333333333333
-0.82,-0.575,8136.111111111111
-0.815,-0.59,8138.888888888889
-0.825,-0.6,8141.666666666667
-0.83,-0.595,8144.444444444444
-0.83,-0.585,8147.222222222223
-0.83,-0.58,8150.0
-0.825,-0.565,8152.777777777777
-0.825,-0.565,8155.555555555556
-0.815,-0.565,8158.333333333333
-0.8,-0.56,8161.111111111111
-0.8,-0.565,8163.888888888889
-0.805,-0.575,8166.666666666667
-0.81,-0.57,8169.444444444444
-0.82,-0.585,8172.222222222223
-0.82,-0.59,8175.0
-0.81,-0.575,8177.777777777777
-0.82,-0.575,8180.555555555556
-0.805,-0.565,8183.333333333333
-0.8,-0.56,8186.111111111111
-0.785,-0.555,8188.888888888889
-0.765,-0.57,8191.666666666667
-0.74,-0.58,8194.444444444445
-0.75,-0.605,8197.222222222223
-0.755,-0.625,8200.0
-0.765,-0.65,8202.777777777777
-0.77,-0.67,8205.555555555555
-0.775,-0.685,8208.333333333334
-0.78,-0.695,8211.111111111111
-0.785,-0.67,8213.888888888889
-0.785,-0.665,8216.666666666666
-0.78,-0.65,8219.444444444445
-0.79,-0.645,8222.222222222223
-0.775,-0.63,8225.0
-0.78,-0.625,8227.777777777777
-0.765,-0.63,8230.555555555555
-0.77,-0.63,8233.333333333334
-0.76,-0.645,8236.111111111111
-0.765,-0.635,8238.888888888889
-0.775,-0.64,8241.666666666666
-0.775,-0.64,8244.444444444445
-0.775,-0.625,8247.222222222223
-0.77,-0.615,8250.0
-0.77,-0.59,8252.777777777777
-0.77,-0.575,8255.555555555555
-0.77,-0.57,8258.333333333334
-0.775,-0.56,8261.111111111111
-0.79,-0.585,8263.888888888889
-0.785,-0.585,8266.666666666666
-0.81,-0.585,8269.444444444445
-0.825,-0.6,8272.222222222223
-0.83,-0.595,8275.0
-0.845,-0.605,8277.777777777777
-0.84,-0.595,8280.555555555555
-0.84,-0.585,8283.333333333334
-0.83,-0.575,8286.111111111111
-0.825,-0.575,8288.888888888889
-0.815,-0.575,8291.666666666666
-0.81,-0.58,8294.444444444445
-0.815,-0.57,8297.222222222223
-0.81,-0.575,8300.0
-0.835,-0.59,8302.777777777777
-0.84,-0.58,8305.555555555555
-0.845,-0.58,8308.333333333334
-0.835,-0.59,8311.111111111111
-0.835,-0.565,8313.888888888889
-0.83,-0.56,8316.666666666666
-0.825,-0.54,8319.444444444445
-0.815,-0.54,8322.222222222223
-0.8,-0.56,8325.0
-0.775,-0.625,8327.777777777777
-0.765,-0.74,8330.555555555555
-0.73,-0.905,8333.333333333334
-0.68,-1.12,8336.111111111111
-0.59,-1.365,8338.888888888889
-0.485,-1.615,8341.666666666666
-0.355,-1.83,8344.444444444445
-0.235,-1.93,8347.222222222223
-0.105,-1.88,8350.0
-0.005,-1.74,8352.777777777777
0.065,-1.535,8355.555555555555
0.115,-1.33,8358.333333333334
0.16,-1.145,8361.111111111111
0.19,-1.005,8363.888888888889
0.21,-0.915,8366.666666666666
0.205,-0.84,8369.444444444445
0.15,-0.775,8372.222222222223
0.1,-0.71,8375.0
0.015,-0.66,8377.777777777777
-0.05,-0.61,8380.555555555555
-0.13,-0.575,8383.333333333334
-0.225,-0.56,8386.111111111111
-0.32,-0.55,8388.888888888889
-0.415,-0.54,8391.666666666666
-0.5,-0.535,8394.444444444445
-0.57,-0.53,8397.222222222223
-0.635,-0.525,8400.0
-0.695,-0.525,8402.777777777777
-0.74,-0.535,8405.555555555555
-0.78,-0.53,8408.333333333334
-0.81,-0.535,8411.111111111111
-0.815,-0.52,8413.888888888889
-0.82,-0.505,8416.666666666666
-0.82,-0.495,8419.444444444445
-0.81,-0.49,8422.222222222223
-0.805,-0.48,8425.0
-0.79,-0.495,8427.777777777777
-0.795,-0.49,8430.555555555555
-0.795,-0.5,8433.333333333334
-0.795,-0.495,8436.111111111111
-0.81,-0.515,8438.888888888889
-0.825,-0.515,8441.666666666666
-0.815,-0.51,8444.444444444445
-0.815,-0.52,8447.222222222223
-0.805,-0.495,8450.0
-0.805,-0.485,8452.777777777777
-0.81,-0.48,8455.555555555555
-0.805,-0.48,8458.333333333334
-0.79,-0.48,8461.111111111111
-0.785,-0.49,8463.888888888889
-0.795,-0.485,8466.666666666666
-0.79,-0.49,8469.444444444445
-0.8,-0.495,8472.222222222223
-0.795,-0.495,8475.0
-0.8,-0.495,8477.777777777777
-0.8,-0.5,8480.555555555555
-0.79,-0.48,8483.333333333334
-0.785,-0.48,8486.111111111111
-0.775,-0.465,8488.888888888889
-0.77,-0.465,8491.666666666666
-0.76,-0.475,8494.444444444445
-0.76,-0.48,8497.222222222223
-0.755,-0.475,8500.0
-0.77,-0.485,8502.777777777777
-0.77,-0.495,8505.555555555555
-0.785,-0.5,8508.333333333334
-0.78,-0.495,8511.111111111111
-0.775,-0.5,8513.888888888889
-0.78,-0.495,8516.666666666666
-0.77,-0.49,8519.444444444445
-0.765,-0.48,8522.222222222223
-0.76,-0.47,8525.0
-0.745,-0.465,8527.777777777777
-0.75,-0.485,8530.555555555555
-0.755,-0.5,8533.333333333334
-0.755,-0.495,8536.111111111111
-0.76,-0.5,8538.888888888889
-0.77,-0.51,8541.666666666666
-0.77,-0.505,8544.444444444445
-0.76,-0.505,8547.222222222223
-0.775,-0.49,8550.0
-0.76,-0.485,8552.777777777777
-0.765,-0.485,8555.555555555555
-0.75,-0.465,8558.333333333334
-0.75,-0.485,8561.111111111111
-0.74,-0.485,8563.888888888889
-0.745,-0.49,8566.666666666666
-0.745,-0.495,8569.444444444445
-0.755,-0.505,8572.222222222223
-0.75,-0.515,8575.0
-0.75,-0.505,8577.777777777777
-0.75,-0.505,8580.555555555555
-0.745,-0.51,8583.333333333334
-0.745,-0.495,8586.111111111111
-0.735,-0.495,8588.888888888889
-0.72,-0.485,8591.666666666666
-0.72,-0.485,8594.444444444445
-0.715,-0.485,8597.222222222223
-0.705,-0.49,8600.0
-0.71,-0.5,8602.777777777777
-0.705,-0.515,8605.555555555555
-0.73,-0.515,8608.333333333334
-0.735,-0.525,8611.111111111111
-0.74,-0.515,8613.888888888889
-0.73,-0.495,8616.666666666666
-0.73,-0.495,8619.444444444445
-0.735,-0.495,8622.222222222223
-0.71,-0.48,8625.0
-0.695,-0.49,8627.777777777777
-0.69,-0.51,8630.555555555555
-0.695,-0.515,8633.333333333334
-0.7,-0.52,8636.111111111111
-0.71,-0.54,8638.888888888889
-0.73,-0.545,8641.666666666666
-0.74,-0.55,8644.444444444445
-0.745,-0.55,8647.222222222223
-0.735,-0.53,8650.0
-0.715,-0.535,8652.777777777777
-0.725,-0.535,8655.555555555555
-0.72,-0.535,8658.333333333334
-0.72,-0.53,8661.111111111111
-0.735,-0.56,8663.888888888889
-0.745,-0.555,8666.666666666666
-0.755,-0.56,8669.444444444445
-0.76,-0.575,8672.222222222223
-0.785,-0.58,8675.0
-0.775,-0.575,8677.777777777777
-0.795,-0.575,8680.555555555555
-0.8,-0.57,8683.333333333334
-0.805,-0.56,8686.111111111111
-0.815,-0.55,8688.888888888889
-0.82,-0.545,8691.666666666666
-0.805,-0.545,8694.444444444445
-0.81,-0.565,8697.222222222223
-0.82,-0.555,8700.0
-0.83,-0.57,8702.777777777777
-0.84,-0.585,8705.555555555555
-0.87,-0.575,8708.333333333334
-0.875,-0.595,8711.111111111111
-0.885,-0.58,8713.888888888889
-0.88,-0.575,8716.666666666666
-0.865,-0.56,8719.444444444445
-0.875,-0.555,8722.222222222223
-0.88,-0.545,8725.0
-0.87,-0.56,8727.777777777777
-0.88,-0.565,8730.555555555555
-0.89,-0.555,8733.333333333334
-0.885,-0.56,8736.111111111111
-0.9,-0.565,8738.888888888889
-0.91,-0.565,8741.666666666666
-0.93,-0.575,8744.444444444445
-0.93,-0.565,8747.222222222223
-0.925,-0.555,8750.0
-0.925,-0.56,8752.777777777777
-0.915,-0.55,8755.555555555555
-0.92,-0.545,8758.333333333334
-0.915,-0.54,8761.111111111111
-0.91,-0.535,8763.888888888889
-0.93,-0.545,8766.666666666666
-0.945,-0.545,8769.444444444445
-0.94,-0.55,8772.222222222223
-0.955,-0.565,8775.0
-0.96,-0.555,8777.777777777777
-0.965,-0.555,8780.555555555555
-0.96,-0.545,8783.333333333334
-0.945,-0.535,8786.111111111111
-0.945,-0.53,8788.888888888889
-0.94,-0.52,8791.666666666666
-0.935,-0.515,8794.444444444445
-0.92,-0.525,8797.222222222223
-0.93,-0.515,8800.0
-0.945,-0.54,8802.777777777777
-0.95,-0.55,8805.555555555555
-0.965,-0.545,8808.333333333334
-0.96,-0.545,8811.111111111111
-0.965,-0.54,8813.888888888889
-0.965,-0.525,8816.666666666666
-0.97,-0.525,8819.444444444445
-0.96,-0.515,8822.222222222223
-0.96,-0.515,8825.0
-0.955,-0.515,8827.777777777777
-0.96,-0.53,8830.555555555555
-0.97,-0.535,8833.333333333334
-0.97,-0.53,8836.111111111111
-0.985,-0.535,8838.888888888889
-0.985,-0.545,8841.666666666666
-0.995,-0.54,8844.444444444445
-1.0,-0.535,8847.222222222223
-1.005,-0.53,8850.0
-1.0,-0.535,8852.777777777777
-0.99,-0.52,8855.555555555555
-0.99,-0.515,8858.333333333334
-0.98,-0.52,8861.111111111111
-0.995,-0.525,8863.888888888889
-1.0,-0.53,8866.666666666666
-1.005,-0.53,8869.444444444445
-1.005,-0.55,8872.222222222223
-1.0,-0.56,8875.0
-1.005,-0.56,8877.777777777777
-1.005,-0.555,8880.555555555555
-1.005,-0.555,8883.333333333334
-1.01,-0.545,8886.111111111111
-1.01,-0.53,8888.888888888889
-1.005,-0.525,8891.666666666666
-0.99,-0.52,8894.444444444445
-0.995,-0.54,8897.222222222223
-0.99,-0.525,8900.0
-1.0,-0.54,8902.777777777777
-1.0,-0.545,8905.555555555555
-1.005,-0.56,8908.333333333334
-1.015,-0.57,8911.111111111111
-1.02,-0.565,8913.888888888889
-1.025,-0.545,8916.666666666666
-1.01,-0.545,8919.444444444445
-1.02,-0.535,8922.222222222223
-0.995,-0.535,8925.0
-0.995,-0.535,8927.777777777777
-0.99,-0.545,8930.555555555555
-1.0,-0.54,8933.333333333334
-1.005,-0.545,8936.111111111111
-1.005,-0.555,8938.888888888889
-1.015,-0.56,8941.666666666666
-1.01,-0.565,8944.444444444445
-1.01,-0.56,8947.222222222223
-1.01,-0.555,8950.0
-1.005,-0.55,8952.777777777777
-1.0,-0.55,8955.555555555555
-0.985,-0.535,8958.333333333334
-0.975,-0.54,8961.111111111111
-0.99,-0.54,8963.888888888889
-0.985,-0.55,8966.666666666666
-0.975,-0.56,8969.444444444445
-0.995,-0.56,8972.222222222223
-1.0,-0.575,8975.0
-1.005,-0.56,8977.777777777777
-1.01,-0.57,8980.555555555555
-1.01,-0.565,8983.333333333334
-1.0,-0.55,8986.111111111111
-1.005,-0.545,8988.888888888889
-0.99,-0.54,8991.666666666666
-0.985,-0.54,8994.444444444445
-0.985,-0.54,8997.222222222223
-0.98,-0.545,9000.0
-0.98,-0.555,9002.777777777777
-0.995,-0.565,9005.555555555555
-1.005,-0.565,9008.333333333334
-1.01,-0.58,9011.111111111111
-1.01,-0.57,9013.888888888889
-1.02,-0.555,9016.666666666666
-1.0,-0.555,9019.444444444445
-0.995,-0.55,9022.222222222223
-0.985,-0.535,9025.0
-0.975,-0.545,9027.777777777777
-0.975,-0.545,9030.555555555555
-0.985,-0.555,9033.333333333334
-0.98,-0.55,9036.111111111111
-0.995,-0.565,9038.888888888889
-1.005,-0.575,9041.666666666666
-1.02,-0.58,9044.444444444445
-1.015,-0.565,9047.222222222223
-1.01,-0.565,9050.0
-1.0,-0.565,9052.777777777777
-0.985,-0.555,9055.555555555555
-0.98,-0.55,9058.333333333334
-0.97,-0.55,9061.111111111111
-0.98,-0.55,9063.888888888889
-0.965,-0.555,9066.666666666666
-0.98,-0.565,9069.444444444445
-0.98,-0.565,9072.222222222223
-0.99,-0.575,9075.0
-0.99,-0.57,9077.777777777777
-0.995,-0.575,9080.555555555555
-0.995,-0.565,9083.333333333334
-0.98,-0.56,9086.111111111111
-0.985,-0.55,9088.888888888889
-0.97,-0.55,9091.666666666666
-0.965,-0.535,9094.444444444445
-0.97,-0.545,9097.222222222223
-0.975,-0.56,9100.0
-0.975,-0.56,9102.777777777777
-1.0,-0.565,9105.555555555555
-0.995,-0.58,9108.333333333334
-1.0,-0.57,9111.111111111111
-0.99,-0.565,9113.888888888889
-0.99,-0.565,9116.666666666666
-0.98,-0.555,9119.444444444445
-0.985,-0.54,9122.222222222223
-0.97,-0.545,9125.0
-0.97,-0.54,9127.777777777777
-0.965,-0.545,9130.555555555555
-0.965,-0.575,9133.333333333334
-0.97,-0.57,9136.111111111111
-0.985,-0.58,9138.888888888889
-0.975,-0.58,9141.666666666666
-0.985,-0.57,9144.444444444445
-0.985,-0.57,9147.222222222223
-0.985,-0.565,9150.0
-0.985,-0.55,9152.777777777777
-0.97,-0.565,9155.555555555555
-0.965,-0.54,9158.333333333334
-0.955,-0.535,9161.111111111111
-0.95,-0.545,9163.888888888889
-0.955,-0.555,9166.666666666666
-0.96,-0.575,9169.444444444445
-0.98,-0.575,9172.222222222223
-0.975,-0.575,9175.0
-0.97,-0.575,9177.777777777777
-0.97,-0.565,9180.555555555555
-0.975,-0.55,9183.333333333334
-0.965,-0.555,9186.111111111111
-0.965,-0.54,9188.888888888889
-0.955,-0.56,9191.666666666666
-0.955,-0.545,9194.444444444445
-0.95,-0.55,9197.222222222223
-0.945,-0.545,9200.0
-0.97,-0.555,9202.777777777777
-0.955,-0.555,9205.555555555555
-0.945,-0.555,9208.333333333334
-0.945,-0.555,9211.111111111111
-0.925,-0.555,9213.888888888889
-0.925,-0.555,9216.666666666666
-0.9,-0.555,9219.444444444445
-0.905,-0.555,9222.222222222223
-0.89,-0.555,9225.0
-0.89,-0.575,9227.777777777777
-0.905,-0.625,9230.555555555555
-0.91,-0.63,9233.333333333334
-0.9,-0.655,9236.111111111111
-0.895,-0.66,9238.888888888889
-0.89,-0.645,9241.666666666666
-0.9,-0.64,9244.444444444445
-0.895,-0.63,9247.222222222223
-0.905,-0.62,9250.0
-0.9,-0.61,9252.777777777777
-0.895,-0.6,9255.555555555555
-0.89,-0.6,9258.333333333334
-0.89,-0.6,9261.111111111111
-0.895,-0.595,9263.888888888889
-0.895,-0.605,9266.666666666666
-0.89,-0.59,9269.444444444445
-0.905,-0.59,9272.222222222223
-0.905,-0.58,9275.0
-0.92,-0.57,9277.777777777777
-0.925,-0.55,9280.555555555555
-0.93,-0.555,9283.333333333334
-0.93,-0.545,9286.111111111111
-0.93,-0.54,9288.888888888889
-0.92,-0.54,9291.666666666666
-0.915,-0.54,9294.444444444445
-0.925,-0.55,9297.222222222223
-0.925,-0.54,9300.0
-0.93,-0.55,9302.777777777777
-0.945,-0.55,9305.555555555555
-0.96,-0.55,9308.333333333334
-0.96,-0.565,9311.111111111111
-0.955,-0.565,9313.888888888889
-0.96,-0.55,9316.666666666666
-0.96,-0.545,9319.444444444445
-0.965,-0.545,9322.222222222223
-0.94,-0.54,9325.0
-0.925,-0.53,9327.777777777777
-0.925,-0.525,9330.555555555555
-0.92,-0.52,9333.333333333334
-0.915,-0.525,9336.111111111111
-0.92,-0.515,9338.888888888889
-0.92,-0.525,9341.666666666666
-0.92,-0.54,9344.444444444445
-0.9,-0.59,9347.222222222223
-0.89,-0.685,9350.0
-0.84,-0.81,9352.777777777777
-0.78,-0.995,9355.555555555555
-0.7,-1.205,9358.333333333334
-0.59,-1.41,9361.111111111111
-0.485,-1.6,9363.888888888889
-0.36,-1.73,9366.666666666666
-0.23,-1.79,9369.444444444445
-0.15,-1.745,9372.222222222223
-0.08,-1.655,9375.0
-0.04,-1.51,9377.777777777777
-0.005,-1.35,9380.555555555555
0.02,-1.2,9383.333333333334
0.055,-1.06,9386.111111111111
0.08,-0.965,9388.888888888889
0.095,-0.88,9391.666666666666
0.07,-0.785,9394.444444444445
0.01,-0.725,9397.222222222223
-0.06,-0.655,9400.0
-0.135,-0.61,9402.777777777777
-0.22,-0.58,9405.555555555555
-0.3,-0.565,9408.333333333334
-0.39,-0.55,9411.111111111111
-0.485,-0.55,9413.888888888889
-0.57,-0.525,9416.666666666666
-0.635,-0.495,9419.444444444445
-0.69,-0.49,9422.222222222223
-0.75,-0.47,9425.0
-0.805,-0.47,9427.777777777777
-0.845,-0.47,9430.555555555555
-0.88,-0.475,9433.333333333334
-0.89,-0.485,9436.111111111111
-0.895,-0.475,9438.888888888889
-0.905,-0.505,9441.666666666666
-0.895,-0.48,9444.444444444445
-0.895,-0.48,9447.222222222223
-0.9,-0.47,9450.0
-0.89,-0.465,9452.777777777777
-0.885,-0.45,9455.555555555555
-0.87,-0.455,9458.333333333334
-0.865,-0.45,9461.111111111111
-0.865,-0.465,9463.888888888889
-0.865,-0.46,9466.666666666666
-0.86,-0.465,9469.444444444445
-0.875,-0.465,9472.222222222223
-0.885,-0.475,9475.0
-0.885,-0.485,9477.777777777777
-0.885,-0.48,9480.555555555555
-0.89,-0.465,9483.333333333334
-0.875,-0.46,9486.111111111111
-0.86,-0.46,9488.888888888889
-0.85,-0.45,9491.666666666666
-0.84,-0.465,9494.444444444445
-0.835,-0.445,9497.222222222223
-0.83,-0.45,9500.0
-0.835,-0.455,9502.777777777777
-0.84,-0.465,9505.555555555555
-0.835,-0.475,9508.333333333334
-0.845,-0.48,9511.111111111111
-0.845,-0.485,9513.888888888889
-0.84,-0.48,9516.666666666666
-0.835,-0.47,9519.444444444445
-0.825,-0.465,9522.222222222223
-0.815,-0.455,9525.0
-0.8,-0.445,9527.777777777777
-0.8,-0.465,9530.555555555555
-0.81,-0.46,9533.333333333334
-0.81,-0.48,9536.111111111111
-0.815,-0.485,9538.888888888889
-0.825,-0.49,9541.666666666666
-0.82,-0.5,9544.444444444445
-0.825,-0.495,9547.222222222223
-0.815,-0.48,9550.0
-0.805,-0.465,9552.777777777777
-0.805,-0.47,9555.555555555555
-0.8,-0.45,9558.333333333334
-0.785,-0.46,9561.111111111111
-0.79,-0.455,9563.888888888889
-0.79,-0.475,9566.666666666666
-0.8,-0.485,9569.444444444445
-0.8,-0.49,9572.222222222223
-0.805,-0.48,9575.0
-0.805,-0.49,9577.777777777777
-0.805,-0.475,9580.555555555555
-0.81,-0.475,9583.333333333334
-0.8,-0.465,9586.111111111111
-0.8,-0.465,9588.888888888889
-0.79,-0.465,9591.666666666666
-0.775,-0.45,9594.444444444445
-0.78,-0.47,9597.222222222223
-0.78,-0.46,9600.0
-0.785,-0.485,9602.777777777777
-0.785,-0.48,9605.555555555555
-0.78,-0.49,9608.333333333334
-0.785,-0.485,9611.111111111111
-0.78,-0.485,9613.888888888889
-0.78,-0.475,9616.666666666666
-0.77,-0.47,9619.444444444445
-0.775,-0.47,9622.222222222223
-0.755,-0.465,9625.0
-0.745,-0.455,9627.777777777777
-0.735,-0.455,9630.555555555555
-0.735,-0.475,9633.333333333334
-0.74,-0.49,9636.111111111111
-0.745,-0.49,9638.888888888889
-0.755,-0.495,9641.666666666666
-0.75,-0.505,9644.444444444445
-0.755,-0.505,9647.222222222223
-0.76,-0.49,9650.0
-0.755,-0.49,9652.777777777777
-0.75,-0.495,9655.555555555555
-0.735,-0.485,9658.333333333334
-0.73,-0.49,9661.111111111111
-0.73,-0.495,9663.888888888889
-0.735,-0.495,9666.666666666666
-0.735,-0.505,9669.444444444445
-0.755,-0.515,9672.222222222223
-0.765,-0.53,9675.0
-0.78,-0.52,9677.777777777777
-0.78,-0.52,9680.555555555555
-0.78,-0.52,9683.333333333334
-0.785,-0.505,9686.111111111111
-0.78,-0.51,9688.888888888889
-0.78,-0.495,9691.666666666666
-0.775,-0.505,9694.444444444445
-0.79,-0.505,9697.222222222223
-0.8,-0.515,9700.0
-0.805,-0.515,9702.777777777777
-0.825,-0.515,9705.555555555555
-0.835,-0.525,9708.333333333334
-0.855,-0.53,9711.111111111111
-0.86,-0.52,9713.888888888889
-0.865,-0.51,9716.666666666666
-0.855,-0.51,9719.444444444445
-0.87,-0.515,9722.222222222223
-0.865,-0.5,9725.0
-0.87,-0.505,9727.777777777777
-0.88,-0.51,9730.555555555555
-0.9,-0.5,9733.333333333334
-0.915,-0.53,9736.111111111111
-0.915,-0.53,9738.888888888889
-0.925,-0.53,9741.666666666666
-0.935,-0.53,9744.444444444445
-0.945,-0.535,9747.222222222223
-0.95,-0.535,9750.0
-0.945,-0.525,9752.777777777777
-0.94,-0.505,9755.555555555555
-0.935,-0.51,9758.333333333334
-0.935,-0.5,9761.111111111111
-0.94,-0.51,9763.888888888889
-0.94,-0.515,9766.666666666666
-0.955,-0.52,9769.444444444445
-0.96,-0.525,9772.222222222223
-0.965,-0.54,9775.0
-0.985,-0.54,9777.777777777777
-0.985,-0.52,9780.555555555555
-0.985,-0.53,9783.333333333334
-0.96,-0.52,9786.111111111111
-0.955,-0.515,9788.888888888889
-0.955,-0.495,9791.666666666666
-0.955,-0.495,9794.444444444445
-0.96,-0.495,9797.222222222223
-0.965,-0.5,9800.0
-0.975,-0.515,9802.777777777777
-0.98,-0.51,9805.555555555555
-0.975,-0.525,9808.333333333334
-0.99,-0.525,9811.111111111111
-1.01,-0.505,9813.888888888889
-1.01,-0.505,9816.666666666666
-1.01,-0.49,9819.444444444445
-1.005,-0.5,9822.222222222223
-0.99,-0.49,9825.0
-0.985,-0.49,9827.777777777777
-0.995,-0.495,9830.555555555555
-0.985,-0.51,9833.333333333334
-0.99,-0.51,9836.111111111111
-1.005,-0.515,9838.888888888889
-1.01,-0.515,9841.666666666666
-1.015,-0.53,9844.444444444445
-1.035,-0.52,9847.222222222223
-1.025,-0.515,9850.0
-1.02,-0.5,9852.777777777777
-1.03,-0.495,9855.555555555555
-1.02,-0.485,9858.333333333334
-1.01,-0.49,9861.111111111111
-1.015,-0.495,9863.888888888889
-1.01,-0.495,9866.666666666666
-1.02,-0.5,9869.444444444445
-1.035,-0.51,9872.222222222223
-1.04,-0.52,9875.0
-1.045,-0.52,9877.777777777777
-1.045,-0.52,9880.555555555555
-1.065,-0.515,9883.333333333334
-1.055,-0.5,9886.111111111111
-1.045,-0.5,9888.888888888889
-1.03,-0.495,9891.666666666666
-1.025,-0.49,9894.444444444445
-1.025,-0.51,9897.222222222223
-1.02,-0.505,9900.0
-1.025,-0.515,9902.777777777777
-1.03,-0.53,9905.555555555555
-1.05,-0.535,9908.333333333334
-1.05,-0.53,9911.111111111111
-1.045,-0.53,9913.888888888889
-1.045,-0.525,9916.666666666666
-1.04,-0.515,9919.444444444445
-1.04,-0.51,9922.222222222223
-1.03,-0.495,9925.0
-1.02,-0.5,9927.777777777777
-1.015,-0.51,9930.555555555555
-1.02,-0.52,9933.333333333334
-1.025,-0.525,9936.111111111111
-1.03,-0.535,9938.888888888889
-1.04,-0.55,9941.666666666666
-1.05,-0.54,9944.444444444445
-1.045,-0.55,9947.222222222223
-1.05,-0.535,9950.0
-1.035,-0.525,9952.777777777777
-1.02,-0.525,9955.555555555555
-1.025,-0.51,9958.333333333334
-1.01,-0.51,9961.111111111111
-1.005,-0.525,9963.888888888889
-1.005,-0.52,9966.666666666666
-1.01,-0.535,9969.444444444445
-1.015,-0.54,9972.222222222223
-1.01,-0.545,9975.0
-1.025,-0.555,9977.777777777777
-1.025,-0.545,9980.555555555555
-1.025,-0.535,9983.333333333334
-1.015,-0.535,9986.111111111111
-1.02,-0.515,9988.888888888889
-1.005,-0.525,9991.666666666666
-1.0,-0.52,9994.444444444445
-1.0,-0.525,9997.222222222223
-0.99,-0.52,10000.0
-0.995,-0.54,10002.777777777777
-1.0,-0.54,10005.555555555555
-1.0,-0.55,10008.333333333334
-1.01,-0.55,10011.111111111111
-1.025,-0.56,10013.888888888889
-1.015,-0.545,10016.666666666666
-1.015,-0.535,10019.444444444445
-1.015,-0.525,10022.222222222223
-1.005,-0.52,10025.0
-1.0,-0.515,10027.777777777777
-1.0,-0.52,10030.555555555555
-0.99,-0.535,10033.333333333334
-0.995,-0.53,10036.111111111111
-1.0,-0.54,10038.888888888889
-1.005,-0.54,10041.666666666666
-1.01,-0.545,10044.444444444445
-1.02,-0.55,10047.222222222223
-1.01,-0.545,10050.0
-1.015,-0.535,10052.777777777777
-1.0,-0.525,10055.555555555555
-0.99,-0.525,10058.333333333334
-0.98,-0.52,10061.111111111111
-0.98,-0.525,10063.888888888889
-0.975,-0.53,10066.666666666666
-0.985,-0.545,10069.444444444445
-1.005,-0.55,10072.222222222223
-0.995,-0.545,10075.0
-1.005,-0.545,10077.777777777777
-1.02,-0.55,10080.555555555555
-1.025,-0.56,10083.333333333334
-1.0,-0.525,10086.111111111111
-0.995,-0.53,10088.888888888889
-0.985,-0.525,10091.666666666666
-0.975,-0.525,10094.444444444445
-0.975,-0.53,10097.222222222223
-0.98,-0.53,10100.0
-0.975,-0.535,10102.777777777777
-1.005,-0.54,10105.555555555555
-1.0,-0.565,10108.333333333334
-0.995,-0.555,10111.111111111111
-1.0,-0.555,10113.888888888889
-0.995,-0.545,10116.666666666666
-0.995,-0.545,10119.444444444445
-0.985,-0.54,10122.222222222223
-0.99,-0.52,10125.0
-0.98,-0.525,10127.777777777777
-0.98,-0.53,10130.555555555555
-0.985,-0.545,10133.333333333334
-0.98,-0.55,10136.111111111111
-0.985,-0.55,10138.888888888889
-0.995,-0.57,10141.666666666666
-0.985,-0.565,10144.444444444445
-1.015,-0.555,10147.222222222223
-0.99,-0.55,10150.0
-0.99,-0.535,10152.777777777777
-0.985,-0.53,10155.555555555555
-0.975,-0.53,10158.333333333334
-0.975,-0.53,10161.111111111111
-0.965,-0.535,10163.888888888889
-0.975,-0.535,10166.666666666666
-0.97,-0.56,10169.444444444445
-0.97,-0.55,10172.222222222223
-0.985,-0.56,10175.0
-0.98,-0.56,10177.777777777777
-0.985,-0.56,10180.555555555555
-0.985,-0.545,10183.333333333334
-0.985,-0.555,10186.111111111111
-0.98,-0.55,10188.888888888889
-0.97,-0.535,10191.666666666666
-0.96,-0.53,10194.444444444445
-0.97,-0.51,10197.222222222223
-0.96,-0.53,10200.0
-0.955,-0.54,10202.777777777777
-0.95,-0.545,10205.555555555555
-0.96,-0.54,10208.333333333334
-0.955,-0.545,10211.111111111111
-0.945,-0.555,10213.888888888889
-0.955,-0.55,10216.666666666666
-0.935,-0.535,10219.444444444445
-0.925,-0.55,10222.222222222223
-0.905,-0.555,10225.0
-0.915,-0.58,10227.777777777777
-0.925,-0.595,10230.555555555555
-0.905,-0.625,10233.333333333334
-0.91,-0.635,10236.111111111111
-0.91,-0.645,10238.888888888889
-0.915,-0.635,10241.666666666666
-0.92,-0.645,10244.444444444445
-0.93,-0.625,10247.222222222223
-0.93,-0.615,10250.0
-0.93,-0.59,10252.777777777777
-0.94,-0.605,10255.555555555555
-0.93,-0.59,10258.333333333334
-0.91,-0.595,10261.111111111111
-0.9,-0.59,10263.888888888889
-0.905,-0.605,10266.666666666666
-0.905,-0.595,10269.444444444445
-0.915,-0.595,10272.222222222223
-0.915,-0.58,10275.0
-0.925,-0.57,10277.777777777777
-0.94,-0.555,10280.555555555555
-0.94,-0.55,10283.333333333334
-0.94,-0.545,10286.111111111111
-0.935,-0.55,10288.888888888889
-0.925,-0.53,10291.666666666666
-0.945,-0.54,10294.444444444445
-0.94,-0.535,10297.222222222223
-0.95,-0.545,10300.0
-0.955,-0.55,10302.777777777777
-0.96,-0.565,10305.555555555555
-0.975,-0.555,10308.333333333334
-0.975,-0.56,10311.111111111111
-0.98,-0.56,10313.888888888889
-0.975,-0.555,10316.666666666666
-0.965,-0.545,10319.444444444445
-0.965,-0.545,10322.222222222223
-0.955,-0.535,10325.0
-0.945,-0.54,10327.777777777777
-0.94,-0.54,10330.555555555555
-0.94,-0.535,10333.333333333334
-0.935,-0.515,10336.111111111111
-0.94,-0.515,10338.888888888889
-0.94,-0.53,10341.666666666666
-0.945,-0.54,10344.444444444445
-0.94,-0.575,10347.222222222223
-0.94,-0.645,10350.0
-0.9,-0.78,10352.777777777777
-0.83,-0.945,10355.555555555555
-0.775,-1.155,10358.333333333334
-0.67,-1.365,10361.111111111111
-0.535,-1.57,10363.888888888889
-0.4,-1.725,10366.666666666666
-0.265,-1.785,10369.444444444445
-0.17,-1.775,10372.222222222223
-0.085,-1.655,10375.0
-0.025,-1.51,10377.777777777777
0.0,-1.32,10380.555555555555
0.02,-1.155,10383.333333333334
0.06,-1.005,10386.111111111111
0.08,-0.89,10388.888888888889
0.08,-0.825,10391.666666666666
0.06,-0.74,10394.444444444445
-0.015,-0.68,10397.222222222223
-0.07,-0.625,10400.0
-0.15,-0.59,10402.777777777777
-0.23,-0.565,10405.555555555555
-0.31,-0.56,10408.333333333334
-0.405,-0.565,10411.111111111111
-0.495,-0.535,10413.888888888889
-0.58,-0.535,10416.666666666666
-0.66,-0.515,10419.444444444445
-0.725,-0.5,10422.222222222223
-0.775,-0.485,10425.0
-0.81,-0.48,10427.777777777777
-0.84,-0.485,10430.555555555555
-0.885,-0.495,10433.333333333334
-0.92,-0.495,10436.111111111111
-0.925,-0.49,10438.888888888889
-0.935,-0.495,10441.666666666666
-0.935,-0.49,10444.444444444445
-0.935,-0.495,10447.222222222223
-0.935,-0.485,10450.0
-0.915,-0.48,10452.777777777777
-0.92,-0.475,10455.555555555555
-0.915,-0.465,10458.333333333334
-0.905,-0.475,10461.111111111111
-0.91,-0.47,10463.888888888889
-0.91,-0.48,10466.666666666666
-0.92,-0.475,10469.444444444445
-0.9,-0.48,10472.222222222223
-0.91,-0.48,10475.0
-0.905,-0.5,10477.777777777777
-0.92,-0.485,10480.555555555555
-0.905,-0.47,10483.333333333334
-0.92,-0.46,10486.111111111111
-0.91,-0.47,10488.888888888889
-0.905,-0.455,10491.666666666666
-0.885,-0.455,10494.444444444445
-0.885,-0.455,10497.222222222223
-0.895,-0.46,10500.0
-0.885,-0.47,10502.777777777777
-0.89,-0.48,10505.555555555555
-0.895,-0.49,10508.333333333334
-0.895,-0.48,10511.111111111111
-0.905,-0.475,10513.888888888889
-0.895,-0.475,10516.666666666666
-0.885,-0.48,10519.444444444445
-0.875,-0.465,10522.222222222223
-0.885,-0.47,10525.0
-0.865,-0.465,10527.777777777777
-0.86,-0.47,10530.555555555555
-0.855,-0.48,10533.333333333334
-0.86,-0.485,10536.111111111111
-0.87,-0.485,10538.888888888889
-0.88,-0.49,10541.666666666666
-0.885,-0.5,10544.444444444445
-0.9,-0.495,10547.222222222223
-0.9,-0.49,10550.0
-0.9,-0.485,10552.777777777777
-0.885,-0.475,10555.555555555555
-0.885,-0.475,10558.333333333334
-0.87,-0.46,10561.111111111111
-0.86,-0.47,10563.888888888889
-0.845,-0.47,10566.666666666666
-0.86,-0.49,10569.444444444445
-0.865,-0.495,10572.222222222223
-0.855,-0.495,10575.0
-0.865,-0.505,10577.777777777777
-0.87,-0.5,10580.555555555555
-0.87,-0.49,10583.333333333334
-0.86,-0.5,10586.111111111111
-0.855,-0.495,10588.888888888889
-0.855,-0.48,10591.666666666666
-0.835,-0.47,10594.444444444445
-0.83,-0.48,10597.222222222223
-0.84,-0.475,10600.0
-0.835,-0.485,10602.777777777777
-0.83,-0.495,10605.555555555555
-0.845,-0.505,10608.333333333334
-0.835,-0.515,10611.111111111111
-0.84,-0.51,10613.888888888889
-0.84,-0.51,10616.666666666666
-0.835,-0.49,10619.444444444445
-0.82,-0.5,10622.222222222223
-0.805,-0.485,10625.0
-0.805,-0.49,10627.777777777777
-0.81,-0.49,10630.555555555555
-0.79,-0.495,10633.333333333334
-0.81,-0.51,10636.111111111111
-0.805,-0.505,10638.888888888889
-0.815,-0.525,10641.666666666666
-0.82,-0.515,10644.444444444445
-0.82,-0.53,10647.222222222223
-0.81,-0.52,10650.0
-0.825,-0.515,10652.777777777777
-0.815,-0.52,10655.555555555555
-0.8,-0.5,10658.333333333334
-0.79,-0.515,10661.111111111111
-0.795,-0.52,10663.888888888889
-0.8,-0.53,10666.666666666666
-0.805,-0.535,10669.444444444445
-0.82,-0.545,10672.222222222223
-0.82,-0.545,10675.0
-0.84,-0.54,10677.777777777777
-0.84,-0.56,10680.555555555555
-0.845,-0.555,10683.333333333334
-0.85,-0.545,10686.111111111111
-0.86,-0.55,10688.888888888889
-0.855,-0.53,10691.666666666666
-0.855,-0.525,10694.444444444445
-0.86,-0.545,10697.222222222223
-0.88,-0.535,10700.0
-0.885,-0.55,10702.777777777777
-0.905,-0.555,10705.555555555555
-0.9,-0.565,10708.333333333334
-0.91,-0.56,10711.111111111111
-0.92,-0.58,10713.888888888889
-0.925,-0.575,10716.666666666666
-0.93,-0.555,10719.444444444445
-0.935,-0.56,10722.222222222223
-0.935,-0.545,10725.0
-0.93,-0.54,10727.777777777777
-0.94,-0.54,10730.555555555555
-0.955,-0.55,10733.333333333334
-0.96,-0.56,10736.111111111111
-0.98,-0.56,10738.888888888889
-0.99,-0.56,10741.666666666666
-1.0,-0.575,10744.444444444445
-1.005,-0.565,10747.222222222223
-1.005,-0.565,10750.0
-1.015,-0.55,10752.777777777777
-1.015,-0.54,10755.555555555555
-1.005,-0.53,10758.333333333334
-1.0,-0.535,10761.111111111111
-0.995,-0.545,10763.888888888889
-1.0,-0.55,10766.666666666666
-1.015,-0.555,10769.444444444445
-1.02,-0.565,10772.222222222223
-1.04,-0.58,10775.0
-1.05,-0.57,10777.777777777777
-1.05,-0.555,10780.555555555555
-1.045,-0.55,10783.333333333334
-1.05,-0.555,10786.111111111111
-1.04,-0.555,10788.888888888889
-1.035,-0.525,10791.666666666666
-1.03,-0.535,10794.444444444445
-1.035,-0.545,10797.222222222223
-1.045,-0.54,10800.0
-1.05,-0.54,10802.777777777777
-1.06,-0.545,10805.555555555555
-1.045,-0.55,10808.333333333334
-1.065,-0.55,10811.111111111111
-1.075,-0.555,10813.888888888889
-1.07,-0.535,10816.666666666666
-1.075,-0.54,10819.444444444445
-1.075,-0.53,10822.222222222223
-1.075,-0.525,10825.0
-1.065,-0.53,10827.777777777777
-1.055,-0.535,10830.555555555555
-1.065,-0.53,10833.333333333334
-1.06,-0.54,10836.111111111111
-1.07,-0.54,10838.888888888889
-1.085,-0.56,10841.666666666666
-1.1,-0.56,10844.444444444445
-1.095,-0.555,10847.222222222223
-1.1,-0.565,10850.0
-1.095,-0.545,10852.777777777777
-1.08,-0.535,10855.555555555555
-1.075,-0.52,10858.333333333334
-1.075,-0.52,10861.111111111111
-1.085,-0.53,10863.888888888889
-1.09,-0.54,10866.666666666666
-1.095,-0.545,10869.444444444445
-1.1,-0.55,10872.222222222223
-1.115,-0.56,10875.0
-1.13,-0.57,10877.777777777777
-1.12,-0.56,10880.555555555555
-1.12,-0.55,10883.333333333334
-1.11,-0.54,10886.111111111111
-1.11,-0.535,10888.888888888889
-1.11,-0.54,10891.666666666666
-1.105,-0.54,10894.444444444445
-1.1,-0.55,10897.222222222223
-1.105,-0.55,10900.0
-1.105,-0.57,10902.777777777777
-1.11,-0.57,10905.555555555555
-1.115,-0.58,10908.333333333334
-1.125,-0.595,10911.111111111111
-1.125,-0.58,10913.888888888889
-1.115,-0.575,10916.666666666666
-1.12,-0.565,10919.444444444445
-1.115,-0.555,10922.222222222223
-1.105,-0.555,10925.0
-1.105,-0.555,10927.777777777777
-1.09,-0.555,10930.555555555555
-1.095,-0.56,10933.333333333334
-1.11,-0.565,10936.111111111111
-1.105,-0.57,10938.888888888889
-1.115,-0.59,10941.666666666666
-1.115,-0.58,10944.444444444445
-1.105,-0.58,10947.222222222223
-1.105,-0.585,10950.0
-1.105,-0.575,10952.777777777777
-1.09,-0.575,10955.555555555555
-1.105,-0.555,10958.333333333334
-1.09,-0.56,10961.111111111111
-1.075,-0.565,10963.888888888889
-1.08,-0.57,10966.666666666666
-1.095,-0.575,10969.444444444445
-1.095,-0.575,10972.222222222223
-1.105,-0.595,10975.0
-1.11,-0.59,10977.777777777777
-1.11,-0.59,10980.555555555555
-1.105,-0.59,10983.333333333334
-1.11,-0.57,10986.111111111111
-1.115,-0.56,10988.888888888889
-1.115,-0.565,10991.666666666666
-1.095,-0.565,10994.444444444445
-1.095,-0.56,10997.222222222223
-1.08,-0.56,11000.0
-1.09,-0.56,11002.777777777777
-1.1,-0.565,11005.555555555555
-1.095,-0.57,11008.333333333334
-1.105,-0.585,11011.111111111111
-1.11,-0.6,11013.888888888889
-1.1,-0.6,11016.666666666666
-1.095,-0.585,11019.444444444445
-1.08,-0.58,11022.222222222223
-1.085,-0.575,11025.0
-1.06,-0.56,11027.777777777777
-1.055,-0.555,11030.555555555555
-1.06,-0.565,11033.333333333334
-1.06,-0.565,11036.111111111111
-1.075,-0.57,11038.888888888889
-1.08,-0.58,11041.666666666666
-1.08,-0.57,11044.444444444445
-1.085,-0.56,11047.222222222223
-1.08,-0.57,11050.0
-1.08,-0.575,11052.777777777777
-1.085,-0.575,11055.555555555555
-1.075,-0.575,11058.333333333334
-1.07,-0.58,11061.111111111111
-1.07,-0.595,11063.888888888889
-1.055,-0.63,11066.666666666666
-1.06,-0.66,11069.444444444445
-1.065,-0.67,11072.222222222223
-1.055,-0.675,11075.0
-1.065,-0.665,11077.777777777777
-1.075,-0.635,11080.555555555555
-1.075,-0.62,11083.333333333334
-1.075,-0.61,11086.111111111111
-1.06,-0.6,11088.888888888889
-1.05,-0.595,11091.666666666666
-1.06,-0.595,11094.444444444445
-1.045,-0.59,11097.222222222223
-1.045,-0.615,11100.0
-1.06,-0.61,11102.777777777777
-1.065,-0.63,11105.555555555555
-1.07,-0.62,11108.333333333334
-1.085,-0.615,11111.111111111111
-1.085,-0.61,11113.888888888889
-1.085,-0.615,11116.666666666666
-1.085,-0.615,11119.444444444445
-1.075,-0.61,11122.222222222223
