MLII,V1,time_ms
-0.78,-0.735,0.0
-0.78,-0.735,2.7777777777777777
-0.78,-0.735,5.555555555555555
-0.78,-0.735,8.333333333333334
-0.78,-0.735,11.11111111111111
-0.78,-0.735,13.88888888888889
-0.78,-0.735,16.666666666666668
-0.78,-0.69,19.444444444444443
-0.78,-0.685,22.22222222222222
-0.775,-0.715,25.0
-0.755,-0.74,27.77777777777778
-0.755,-0.735,30.555555555555557
-0.745,-0.675,33.333333333333336
-0.745,-0.66,36.111111111111114
-0.765,-0.685,38.888888888888886
-0.76,-0.75,41.666666666666664
-0.745,-0.785,44.44444444444444
-0.745,-0.77,47.22222222222222
-0.76,-0.705,50.0
-0.76,-0.635,52.77777777777778
-0.75,-0.65,55.55555555555556
-0.735,-0.705,58.333333333333336
-0.705,-0.745,61.111111111111114
-0.695,-0.78,63.888888888888886
-0.69,-0.735,66.66666666666667
-0.705,-0.695,69.44444444444444
-0.725,-0.68,72.22222222222223
-0.72,-0.71,75.0
-0.7,-0.765,77.77777777777777
-0.665,-0.77,80.55555555555556
-0.645,-0.735,83.33333333333333
-0.61,-0.675,86.11111111111111
-0.595,-0.64,88.88888888888889
-0.58,-0.67,91.66666666666667
-0.55,-0.71,94.44444444444444
-0.52,-0.72,97.22222222222223
-0.535,-0.665,100.0
-0.54,-0.61,102.77777777777777
-0.55,-0.62,105.55555555555556
-0.545,-0.665,108.33333333333333
-0.535,-0.69,111.11111111111111
-0.54,-0.685,113.88888888888889
-0.545,-0.635,116.66666666666667
-0.56,-0.59,119.44444444444444
-0.575,-0.62,122.22222222222223
-0.585,-0.665,125.0
-0.58,-0.68,127.77777777777777
-0.58,-0.66,130.55555555555554
-0.59,-0.595,133.33333333333334
-0.605,-0.58,136.11111111111111
-0.605,-0.61,138.88888888888889
-0.605,-0.695,141.66666666666666
-0.61,-0.745,144.44444444444446
-0.61,-0.74,147.22222222222223
-0.645,-0.695,150.0
-0.685,-0.66,152.77777777777777
-0.69,-0.68,155.55555555555554
-0.715,-0.7,158.33333333333334
-0.7,-0.755,161.11111111111111
-0.715,-0.76,163.88888888888889
-0.735,-0.705,166.66666666666666
-0.755,-0.69,169.44444444444446
-0.79,-0.675,172.22222222222223
-0.775,-0.745,175.0
-0.795,-0.79,177.77777777777777
-0.785,-0.77,180.55555555555554
-0.795,-0.715,183.33333333333334
-0.81,-0.66,186.11111111111111
-0.78,-0.645,188.88888888888889
-0.765,-0.7,191.66666666666666
-0.755,-0.745,194.44444444444446
-0.74,-0.76,197.22222222222223
-0.74,-0.72,200.0
-0.785,-0.69,202.77777777777777
-0.825,-0.68,205.55555555555554
-0.84,-0.74,208.33333333333334
-0.89,-0.785,211.11111111111111
-0.925,-0.8,213.88888888888889
-0.96,-0.765,216.66666666666666
-0.965,-0.705,219.44444444444446
-0.95,-0.665,222.22222222222223
-0.87,-0.66,225.0
-0.73,-0.625,227.77777777777777
-0.555,-0.555,230.55555555555554
-0.345,-0.445,233.33333333333334
-0.14,-0.375,236.11111111111111
0.05,-0.36,238.88888888888889
0.235,-0.405,241.66666666666666
0.41,-0.42,244.44444444444446
0.57,-0.42,247.22222222222223
0.705,-0.405,250.0
0.8,-0.425,252.77777777777777
0.845,-0.54,255.55555555555554
0.855,-0.695,258.3333333333333
0.845,-0.86,261.1111111111111
0.805,-0.925,263.8888888888889
0.73,-0.89,266.6666666666667
0.65,-0.815,269.44444444444446
0.53,-0.735,272.22222222222223
0.34,-0.665,275.0
0.065,-0.595,277.77777777777777
-0.26,-0.585,280.55555555555554
-0.555,-0.6,283.3333333333333
-0.745,-0.68,286.1111111111111
-0.82,-0.75,288.8888888888889
-0.815,-0.82,291.6666666666667
-0.755,-0.815,294.44444444444446
-0.7,-0.74,297.22222222222223
-0.67,-0.675,300.0
-0.67,-0.7,302.77777777777777
-0.695,-0.73,305.55555555555554
-0.74,-0.745,308.3333333333333
-0.77,-0.765,311.1111111111111
-0.84,-0.695,313.8888888888889
-0.865,-0.66,316.6666666666667
-0.86,-0.69,319.44444444444446
-0.845,-0.71,322.22222222222223
-0.82,-0.705,325.0
-0.81,-0.65,327.77777777777777
-0.83,-0.625,330.55555555555554
-0.855,-0.615,333.3333333333333
-0.855,-0.68,336.1111111111111
-0.84,-0.72,338.8888888888889
-0.845,-0.725,341.6666666666667
-0.83,-0.68,344.44444444444446
-0.84,-0.625,347.22222222222223
-0.85,-0.62,350.0
-0.84,-0.655,352.77777777777777
-0.815,-0.69,355.55555555555554
-0.8,-0.69,358.3333333333333
-0.81,-0.625,361.1111111111111
-0.82,-0.595,363.8888888888889
-0.85,-0.605,366.6666666666667
-0.86,-0.66,369.44444444444446
-0.84,-0.715,372.22222222222223
-0.83,-0.71,375.0
-0.835,-0.655,377.77777777777777
-0.84,-0.605,380.55555555555554
-0.845,-0.605,383.3333333333333
-0.835,-0.62,386.1111111111111
-0.805,-0.67,388.8888888888889
-0.8,-0.635,391.6666666666667
-0.8,-0.615,394.44444444444446
-0.805,-0.55,397.22222222222223
-0.82,-0.55,400.0
-0.83,-0.615,402.77777777777777
-0.825,-0.66,405.55555555555554
-0.81,-0.67,408.3333333333333
-0.84,-0.63,411.1111111111111
-0.865,-0.57,413.8888888888889
-0.865,-0.55,416.6666666666667
-0.855,-0.575,419.44444444444446
-0.82,-0.615,422.22222222222223
-0.8,-0.605,425.0
-0.77,-0.535,427.77777777777777
-0.785,-0.5,430.55555555555554
-0.78,-0.495,433.3333333333333
-0.795,-0.525,436.1111111111111
-0.79,-0.59,438.8888888888889
-0.79,-0.595,441.6666666666667
-0.8,-0.55,444.44444444444446
-0.82,-0.52,447.22222222222223
-0.82,-0.505,450.0
-0.8,-0.545,452.77777777777777
-0.765,-0.575,455.55555555555554
-0.715,-0.565,458.3333333333333
-0.73,-0.485,461.1111111111111
-0.74,-0.45,463.8888888888889
-0.755,-0.465,466.6666666666667
-0.765,-0.52,469.44444444444446
-0.77,-0.605,472.22222222222223
-0.755,-0.625,475.0
-0.765,-0.575,477.77777777777777
-0.765,-0.535,480.55555555555554
-0.76,-0.52,483.3333333333333
-0.76,-0.55,486.1111111111111
-0.74,-0.595,488.8888888888889
-0.72,-0.605,491.6666666666667
-0.715,-0.575,494.44444444444446
-0.725,-0.535,497.22222222222223
-0.725,-0.545,500.0
-0.72,-0.6,502.77777777777777
-0.72,-0.66,505.55555555555554
-0.715,-0.65,508.3333333333333
-0.735,-0.63,511.1111111111111
-0.74,-0.6,513.8888888888889
-0.755,-0.63,516.6666666666666
-0.735,-0.665,519.4444444444445
-0.725,-0.705,522.2222222222222
-0.72,-0.67,525.0
-0.72,-0.62,527.7777777777778
-0.755,-0.595,530.5555555555555
-0.77,-0.66,533.3333333333334
-0.77,-0.725,536.1111111111111
-0.74,-0.75,538.8888888888889
-0.74,-0.72,541.6666666666666
-0.735,-0.67,544.4444444444445
-0.755,-0.665,547.2222222222222
-0.76,-0.685,550.0
-0.76,-0.745,552.7777777777778
-0.765,-0.75,555.5555555555555
-0.745,-0.73,558.3333333333334
-0.73,-0.655,561.1111111111111
-0.75,-0.65,563.8888888888889
-0.74,-0.69,566.6666666666666
-0.74,-0.75,569.4444444444445
-0.745,-0.775,572.2222222222222
-0.72,-0.74,575.0
-0.76,-0.705,577.7777777777778
-0.785,-0.695,580.5555555555555
-0.78,-0.72,583.3333333333334
-0.785,-0.77,586.1111111111111
-0.755,-0.77,588.8888888888889
-0.75,-0.725,591.6666666666666
-0.755,-0.655,594.4444444444445
-0.77,-0.655,597.2222222222222
-0.78,-0.695,600.0
-0.77,-0.78,602.7777777777778
-0.765,-0.815,605.5555555555555
-0.775,-0.78,608.3333333333334
-0.795,-0.73,611.1111111111111
-0.805,-0.69,613.8888888888889
-0.83,-0.725,616.6666666666666
-0.82,-0.76,619.4444444444445
-0.8,-0.78,622.2222222222222
-0.785,-0.735,625.0
-0.785,-0.7,627.7777777777778
-0.8,-0.67,630.5555555555555
-0.805,-0.715,633.3333333333334
-0.81,-0.765,636.1111111111111
-0.825,-0.8,638.8888888888889
-0.825,-0.76,641.6666666666666
-0.85,-0.72,644.4444444444445
-0.87,-0.72,647.2222222222222
-0.88,-0.76,650.0
-0.86,-0.795,652.7777777777778
-0.85,-0.8,655.5555555555555
-0.84,-0.73,658.3333333333334
-0.835,-0.68,661.1111111111111
-0.855,-0.675,663.8888888888889
-0.855,-0.73,666.6666666666666
-0.85,-0.775,669.4444444444445
-0.84,-0.795,672.2222222222222
-0.845,-0.77,675.0
-0.855,-0.725,677.7777777777778
-0.865,-0.7,680.5555555555555
-0.865,-0.75,683.3333333333334
-0.84,-0.8,686.1111111111111
-0.825,-0.785,688.8888888888889
-0.82,-0.74,691.6666666666666
-0.81,-0.695,694.4444444444445
-0.82,-0.69,697.2222222222222
-0.81,-0.755,700.0
-0.775,-0.8,702.7777777777778
-0.79,-0.785,705.5555555555555
-0.785,-0.75,708.3333333333334
-0.8,-0.715,711.1111111111111
-0.815,-0.73,713.8888888888889
-0.79,-0.78,716.6666666666666
-0.755,-0.805,719.4444444444445
-0.72,-0.785,722.2222222222222
-0.71,-0.72,725.0
-0.685,-0.69,727.7777777777778
-0.69,-0.685,730.5555555555555
-0.67,-0.75,733.3333333333334
-0.655,-0.8,736.1111111111111
-0.625,-0.775,738.8888888888889
-0.61,-0.72,741.6666666666666
-0.63,-0.675,744.4444444444445
-0.63,-0.68,747.2222222222222
-0.635,-0.71,750.0
-0.63,-0.74,752.7777777777778
-0.61,-0.73,755.5555555555555
-0.605,-0.675,758.3333333333334
-0.615,-0.605,761.1111111111111
-0.625,-0.615,763.8888888888889
-0.625,-0.68,766.6666666666666
-0.64,-0.725,769.4444444444445
-0.63,-0.745,772.2222222222222
-0.655,-0.715,775.0
-0.665,-0.665,777.7777777777778
-0.69,-0.655,780.5555555555555
-0.685,-0.695,783.3333333333334
-0.685,-0.745,786.1111111111111
-0.675,-0.76,788.8888888888889
-0.68,-0.73,791.6666666666666
-0.705,-0.665,794.4444444444445
-0.74,-0.665,797.2222222222222
-0.755,-0.725,800.0
-0.765,-0.805,802.7777777777778
-0.79,-0.845,805.5555555555555
-0.8,-0.815,808.3333333333334
-0.83,-0.775,811.1111111111111
-0.85,-0.745,813.8888888888889
-0.855,-0.76,816.6666666666666
-0.845,-0.79,819.4444444444445
-0.84,-0.79,822.2222222222222
-0.84,-0.77,825.0
-0.855,-0.71,827.7777777777778
-0.855,-0.715,830.5555555555555
-0.865,-0.775,833.3333333333334
-0.855,-0.825,836.1111111111111
-0.855,-0.84,838.8888888888889
-0.85,-0.795,841.6666666666666
-0.875,-0.76,844.4444444444445
-0.88,-0.745,847.2222222222222
-0.9,-0.785,850.0
-0.91,-0.84,852.7777777777778
-0.925,-0.83,855.5555555555555
-0.975,-0.785,858.3333333333334
-1.035,-0.735,861.1111111111111
-1.07,-0.74,863.8888888888889
-1.07,-0.785,866.6666666666666
-1.02,-0.805,869.4444444444445
-0.915,-0.785,872.2222222222222
-0.805,-0.7,875.0
-0.675,-0.585,877.7777777777778
-0.49,-0.52,880.5555555555555
-0.28,-0.515,883.3333333333334
-0.07,-0.49,886.1111111111111
0.135,-0.45,888.8888888888889
0.315,-0.375,891.6666666666666
0.48,-0.33,894.4444444444445
0.615,-0.36,897.2222222222222
0.715,-0.5,900.0
0.79,-0.63,902.7777777777778
0.795,-0.765,905.5555555555555
0.77,-0.835,908.3333333333334
0.71,-0.88,911.1111111111111
0.635,-0.885,913.8888888888889
0.55,-0.835,916.6666666666666
0.425,-0.745,919.4444444444445
0.19,-0.61,922.2222222222222
-0.135,-0.535,925.0
-0.45,-0.54,927.7777777777778
-0.69,-0.685,930.5555555555555
-0.83,-0.83,933.3333333333334
-0.87,-0.915,936.1111111111111
-0.87,-0.91,938.8888888888889
-0.84,-0.845,941.6666666666666
-0.8,-0.8,944.4444444444445
-0.79,-0.8,947.2222222222222
-0.775,-0.83,950.0
-0.78,-0.835,952.7777777777778
-0.82,-0.795,955.5555555555555
-0.865,-0.755,958.3333333333334
-0.89,-0.715,961.1111111111111
-0.915,-0.75,963.8888888888889
-0.92,-0.81,966.6666666666666
-0.93,-0.865,969.4444444444445
-0.915,-0.84,972.2222222222222
-0.935,-0.765,975.0
-0.95,-0.73,977.7777777777778
-0.97,-0.74,980.5555555555555
-0.955,-0.785,983.3333333333334
-0.935,-0.795,986.1111111111111
-0.92,-0.78,988.8888888888889
-0.92,-0.7,991.6666666666666
-0.925,-0.67,994.4444444444445
-0.905,-0.685,997.2222222222222
-0.905,-0.75,1000.0
-0.89,-0.78,1002.7777777777778
-0.905,-0.785,1005.5555555555555
-0.915,-0.75,1008.3333333333334
-0.93,-0.7,1011.1111111111111
-0.975,-0.69,1013.8888888888889
-0.945,-0.72,1016.6666666666666
-0.935,-0.775,1019.4444444444445
-0.905,-0.775,1022.2222222222222
-0.905,-0.71,1025.0
-0.915,-0.645,1027.7777777777778
-0.915,-0.63,1030.5555555555557
-0.925,-0.675,1033.3333333333333
-0.915,-0.73,1036.111111111111
-0.91,-0.755,1038.888888888889
-0.92,-0.71,1041.6666666666667
-0.935,-0.665,1044.4444444444443
-0.925,-0.645,1047.2222222222222
-0.93,-0.665,1050.0
-0.92,-0.73,1052.7777777777778
-0.885,-0.715,1055.5555555555557
-0.88,-0.68,1058.3333333333333
-0.905,-0.6,1061.111111111111
-0.9,-0.585,1063.888888888889
-0.905,-0.625,1066.6666666666667
-0.89,-0.67,1069.4444444444443
-0.87,-0.725,1072.2222222222222
-0.87,-0.675,1075.0
-0.895,-0.605,1077.7777777777778
-0.915,-0.57,1080.5555555555557
-0.915,-0.615,1083.3333333333333
-0.895,-0.655,1086.111111111111
-0.875,-0.67,1088.888888888889
-0.865,-0.615,1091.6666666666667
-0.85,-0.54,1094.4444444444443
-0.85,-0.53,1097.2222222222222
-0.885,-0.555,1100.0
-0.85,-0.625,1102.7777777777778
-0.835,-0.66,1105.5555555555557
-0.83,-0.65,1108.3333333333333
-0.84,-0.595,1111.111111111111
-0.86,-0.565,1113.888888888889
-0.875,-0.595,1116.6666666666667
-0.85,-0.63,1119.4444444444443
-0.84,-0.655,1122.2222222222222
-0.82,-0.605,1125.0
-0.81,-0.54,1127.7777777777778
-0.825,-0.525,1130.5555555555557
-0.825,-0.59,1133.3333333333333
-0.81,-0.665,1136.111111111111
-0.815,-0.695,1138.888888888889
-0.79,-0.655,1141.6666666666667
-0.82,-0.625,1144.4444444444443
-0.835,-0.595,1147.2222222222222
-0.835,-0.63,1150.0
-0.81,-0.695,1152.7777777777778
-0.79,-0.72,1155.5555555555557
-0.77,-0.71,1158.3333333333333
-0.775,-0.66,1161.111111111111
-0.775,-0.615,1163.888888888889
-0.785,-0.61,1166.6666666666667
-0.8,-0.68,1169.4444444444443
-0.795,-0.755,1172.2222222222222
-0.79,-0.8,1175.0
-0.79,-0.785,1177.7777777777778
-0.815,-0.725,1180.5555555555557
-0.82,-0.7,1183.3333333333333
-0.825,-0.725,1186.111111111111
-0.815,-0.775,1188.888888888889
-0.785,-0.795,1191.6666666666667
-0.79,-0.77,1194.4444444444443
-0.79,-0.73,1197.2222222222222
-0.8,-0.71,1200.0
-0.815,-0.755,1202.7777777777778
-0.815,-0.815,1205.5555555555557
-0.815,-0.86,1208.3333333333333
-0.82,-0.845,1211.111111111111
-0.84,-0.79,1213.888888888889
-0.85,-0.74,1216.6666666666667
-0.855,-0.755,1219.4444444444443
-0.855,-0.78,1222.2222222222222
-0.84,-0.835,1225.0
-0.82,-0.825,1227.7777777777778
-0.815,-0.765,1230.5555555555557
-0.83,-0.725,1233.3333333333333
-0.84,-0.74,1236.111111111111
-0.845,-0.785,1238.888888888889
-0.85,-0.86,1241.6666666666667
-0.84,-0.85,1244.4444444444443
-0.855,-0.81,1247.2222222222222
-0.87,-0.775,1250.0
-0.875,-0.755,1252.7777777777778
-0.85,-0.81,1255.5555555555557
-0.835,-0.835,1258.3333333333333
-0.83,-0.835,1261.111111111111
-0.825,-0.795,1263.888888888889
-0.86,-0.76,1266.6666666666667
-0.89,-0.75,1269.4444444444443
-0.875,-0.81,1272.2222222222222
-0.875,-0.885,1275.0
-0.885,-0.885,1277.7777777777778
-0.875,-0.86,1280.5555555555557
-0.895,-0.795,1283.3333333333333
-0.9,-0.755,1286.111111111111
-0.915,-0.785,1288.888888888889
-0.915,-0.84,1291.6666666666667
-0.88,-0.87,1294.4444444444443
-0.895,-0.845,1297.2222222222222
-0.92,-0.795,1300.0
-0.925,-0.785,1302.7777777777778
-0.94,-0.825,1305.5555555555557
-0.94,-0.88,1308.3333333333333
-0.945,-0.885,1311.111111111111
-0.95,-0.85,1313.888888888889
-0.96,-0.79,1316.6666666666667
-0.955,-0.795,1319.4444444444443
-0.94,-0.825,1322.2222222222222
-0.93,-0.845,1325.0
-0.92,-0.825,1327.7777777777778
-0.92,-0.785,1330.5555555555557
-0.93,-0.75,1333.3333333333333
-0.93,-0.775,1336.111111111111
-0.925,-0.825,1338.888888888889
-0.92,-0.875,1341.6666666666667
-0.92,-0.86,1344.4444444444443
-0.925,-0.825,1347.2222222222222
-0.925,-0.795,1350.0
-0.905,-0.805,1352.7777777777778
-0.87,-0.835,1355.5555555555557
-0.845,-0.85,1358.3333333333333
-0.825,-0.815,1361.111111111111
-0.835,-0.765,1363.888888888889
-0.86,-0.75,1366.6666666666667
-0.85,-0.775,1369.4444444444443
-0.835,-0.84,1372.2222222222222
-0.795,-0.885,1375.0
-0.77,-0.855,1377.7777777777778
-0.76,-0.8,1380.5555555555557
-0.75,-0.755,1383.3333333333333
-0.75,-0.755,1386.111111111111
-0.72,-0.785,1388.888888888889
-0.68,-0.82,1391.6666666666667
-0.665,-0.785,1394.4444444444443
-0.66,-0.73,1397.2222222222222
-0.67,-0.685,1400.0
-0.7,-0.675,1402.7777777777778
-0.69,-0.75,1405.5555555555557
-0.69,-0.815,1408.3333333333333
-0.695,-0.81,1411.111111111111
-0.7,-0.76,1413.888888888889
-0.735,-0.72,1416.6666666666667
-0.745,-0.71,1419.4444444444443
-0.735,-0.74,1422.2222222222222
-0.72,-0.78,1425.0
-0.72,-0.77,1427.7777777777778
-0.71,-0.745,1430.5555555555557
-0.715,-0.705,1433.3333333333333
-0.74,-0.72,1436.111111111111
-0.75,-0.77,1438.888888888889
-0.765,-0.83,1441.6666666666667
-0.8,-0.86,1444.4444444444443
-0.84,-0.82,1447.2222222222222
-0.875,-0.785,1450.0
-0.885,-0.785,1452.7777777777778
-0.9,-0.825,1455.5555555555557
-0.88,-0.865,1458.3333333333333
-0.875,-0.855,1461.111111111111
-0.885,-0.805,1463.888888888889
-0.89,-0.76,1466.6666666666667
-0.905,-0.77,1469.4444444444443
-0.925,-0.82,1472.2222222222222
-0.925,-0.885,1475.0
-0.935,-0.9,1477.7777777777778
-0.94,-0.855,1480.5555555555557
-0.945,-0.79,1483.3333333333333
-0.97,-0.78,1486.111111111111
-0.955,-0.8,1488.888888888889
-0.95,-0.865,1491.6666666666667
-0.905,-0.865,1494.4444444444443
-0.92,-0.835,1497.2222222222222
-0.93,-0.795,1500.0
-0.965,-0.765,1502.7777777777778
-1.0,-0.825,1505.5555555555557
-1.035,-0.885,1508.3333333333333
-1.07,-0.94,1511.111111111111
-1.125,-0.91,1513.888888888889
-1.155,-0.865,1516.6666666666667
-1.16,-0.77,1519.4444444444443
-1.1,-0.77,1522.2222222222222
-0.98,-0.77,1525.0
-0.82,-0.74,1527.7777777777778
-0.63,-0.66,1530.5555555555557
-0.435,-0.56,1533.3333333333333
-0.25,-0.48,1536.111111111111
-0.06,-0.475,1538.888888888889
0.085,-0.485,1541.6666666666667
0.265,-0.53,1544.4444444444443
0.42,-0.52,1547.2222222222222
0.545,-0.51,1550.0
0.625,-0.525,1552.7777777777778
0.675,-0.605,1555.5555555555557
0.71,-0.78,1558.3333333333333
0.715,-0.915,1561.111111111111
0.68,-0.98,1563.888888888889
0.635,-0.92,1566.6666666666667
0.555,-0.82,1569.4444444444443
0.45,-0.715,1572.2222222222222
0.245,-0.67,1575.0
0.015,-0.685,1577.7777777777778
-0.275,-0.73,1580.5555555555557
-0.56,-0.745,1583.3333333333333
-0.76,-0.77,1586.111111111111
-0.895,-0.82,1588.888888888889
-0.945,-0.88,1591.6666666666667
-0.925,-0.935,1594.4444444444443
-0.855,-0.96,1597.2222222222222
-0.815,-0.91,1600.0
-0.815,-0.825,1602.7777777777778
-0.85,-0.785,1605.5555555555557
-0.925,-0.81,1608.3333333333333
-0.945,-0.88,1611.111111111111
-0.965,-0.905,1613.888888888889
-0.995,-0.9,1616.6666666666667
-1.015,-0.85,1619.4444444444443
-1.02,-0.795,1622.2222222222222
-1.03,-0.78,1625.0
-1.015,-0.81,1627.7777777777778
-0.985,-0.86,1630.5555555555557
-0.99,-0.855,1633.3333333333333
-0.99,-0.81,1636.111111111111
-1.02,-0.755,1638.888888888889
-1.035,-0.765,1641.6666666666667
-1.03,-0.81,1644.4444444444443
-1.03,-0.85,1647.2222222222222
-1.0,-0.84,1650.0
-0.995,-0.79,1652.7777777777778
-1.0,-0.725,1655.5555555555557
-1.005,-0.715,1658.3333333333333
-0.995,-0.765,1661.111111111111
-0.97,-0.79,1663.888888888889
-0.95,-0.81,1666.6666666666667
-0.96,-0.765,1669.4444444444443
-1.005,-0.73,1672.2222222222222
-1.015,-0.735,1675.0
-1.02,-0.765,1677.7777777777778
-1.015,-0.84,1680.5555555555557
-1.01,-0.83,1683.3333333333333
-0.995,-0.77,1686.111111111111
-0.99,-0.715,1688.888888888889
-0.99,-0.675,1691.6666666666667
-1.0,-0.705,1694.4444444444443
-0.98,-0.745,1697.2222222222222
-0.97,-0.76,1700.0
-0.945,-0.725,1702.7777777777778
-0.965,-0.675,1705.5555555555557
-0.985,-0.67,1708.3333333333333
-0.98,-0.705,1711.111111111111
-0.98,-0.74,1713.888888888889
-0.975,-0.735,1716.6666666666667
-0.975,-0.68,1719.4444444444443
-0.96,-0.645,1722.2222222222222
-0.96,-0.615,1725.0
-0.94,-0.66,1727.7777777777778
-0.935,-0.675,1730.5555555555557
-0.94,-0.66,1733.3333333333333
-0.93,-0.63,1736.111111111111
-0.97,-0.605,1738.888888888889
-0.965,-0.65,1741.6666666666667
-0.97,-0.695,1744.4444444444443
-0.955,-0.695,1747.2222222222222
-0.945,-0.66,1750.0
-0.935,-0.585,1752.7777777777778
-0.94,-0.585,1755.5555555555557
-0.93,-0.62,1758.3333333333333
-0.9,-0.645,1761.111111111111
-0.88,-0.69,1763.888888888889
-0.88,-0.645,1766.6666666666667
-0.9,-0.595,1769.4444444444443
-0.905,-0.58,1772.2222222222222
-0.935,-0.585,1775.0
-0.94,-0.675,1777.7777777777778
-0.935,-0.735,1780.5555555555557
-0.94,-0.72,1783.3333333333333
-0.925,-0.66,1786.111111111111
-0.89,-0.605,1788.888888888889
-0.88,-0.585,1791.6666666666667
-0.865,-0.635,1794.4444444444443
-0.86,-0.695,1797.2222222222222
-0.855,-0.715,1800.0
-0.87,-0.685,1802.7777777777778
-0.895,-0.665,1805.5555555555557
-0.89,-0.665,1808.3333333333333
-0.895,-0.745,1811.111111111111
-0.89,-0.8,1813.888888888889
-0.885,-0.8,1816.6666666666667
-0.88,-0.74,1819.4444444444443
-0.885,-0.68,1822.2222222222222
-0.895,-0.68,1825.0
-0.9,-0.71,1827.7777777777778
-0.87,-0.785,1830.5555555555557
-0.85,-0.82,1833.3333333333333
-0.85,-0.81,1836.111111111111
-0.865,-0.765,1838.888888888889
-0.89,-0.72,1841.6666666666667
-0.875,-0.745,1844.4444444444443
-0.89,-0.805,1847.2222222222222
-0.885,-0.855,1850.0
-0.9,-0.835,1852.7777777777778
-0.87,-0.785,1855.5555555555557
-0.885,-0.74,1858.3333333333333
-0.88,-0.735,1861.111111111111
-0.895,-0.775,1863.888888888889
-0.88,-0.835,1866.6666666666667
-0.88,-0.825,1869.4444444444443
-0.905,-0.775,1872.2222222222222
-0.93,-0.775,1875.0
-0.935,-0.775,1877.7777777777778
-0.925,-0.825,1880.5555555555557
-0.92,-0.865,1883.3333333333333
-0.9,-0.865,1886.111111111111
-0.895,-0.785,1888.888888888889
-0.9,-0.73,1891.6666666666667
-0.91,-0.695,1894.4444444444443
-0.91,-0.755,1897.2222222222222
-0.915,-0.825,1900.0
-0.91,-0.86,1902.7777777777778
-0.925,-0.865,1905.5555555555557
-0.95,-0.805,1908.3333333333333
-0.955,-0.785,1911.111111111111
-0.965,-0.81,1913.888888888889
-0.97,-0.85,1916.6666666666667
-0.96,-0.86,1919.4444444444443
-0.94,-0.82,1922.2222222222222
-0.935,-0.765,1925.0
-0.935,-0.74,1927.7777777777778
-0.945,-0.775,1930.5555555555557
-0.94,-0.82,1933.3333333333333
-0.945,-0.835,1936.111111111111
-0.95,-0.8,1938.888888888889
-0.97,-0.765,1941.6666666666667
-0.995,-0.785,1944.4444444444443
-1.0,-0.845,1947.2222222222222
-1.01,-0.885,1950.0
-1.01,-0.865,1952.7777777777778
-1.01,-0.795,1955.5555555555557
-1.025,-0.74,1958.3333333333333
-1.0,-0.735,1961.111111111111
-1.0,-0.8,1963.888888888889
-0.995,-0.855,1966.6666666666667
-0.98,-0.865,1969.4444444444443
-0.99,-0.835,1972.2222222222222
-1.0,-0.78,1975.0
-1.02,-0.76,1977.7777777777778
-1.015,-0.785,1980.5555555555557
-1.025,-0.83,1983.3333333333333
-1.005,-0.87,1986.111111111111
-0.985,-0.855,1988.888888888889
-0.985,-0.795,1991.6666666666667
-0.985,-0.755,1994.4444444444443
-0.97,-0.755,1997.2222222222222
-0.975,-0.8,2000.0
-0.95,-0.845,2002.7777777777778
-0.955,-0.83,2005.5555555555557
-0.95,-0.795,2008.3333333333333
-0.955,-0.765,2011.111111111111
-0.955,-0.78,2013.888888888889
-0.95,-0.835,2016.6666666666667
-0.93,-0.85,2019.4444444444443
-0.905,-0.825,2022.2222222222222
-0.895,-0.745,2025.0
-0.875,-0.695,2027.7777777777778
-0.86,-0.735,2030.5555555555557
-0.845,-0.805,2033.3333333333333
-0.81,-0.825,2036.111111111111
-0.81,-0.825,2038.888888888889
-0.8,-0.785,2041.6666666666667
-0.805,-0.725,2044.4444444444443
-0.795,-0.705,2047.2222222222222
-0.79,-0.755,2050.0
-0.755,-0.79,2052.777777777778
-0.75,-0.775,2055.5555555555557
-0.74,-0.735,2058.3333333333335
-0.745,-0.67,2061.1111111111113
-0.77,-0.635,2063.8888888888887
-0.765,-0.66,2066.6666666666665
-0.77,-0.745,2069.4444444444443
-0.765,-0.765,2072.222222222222
-0.76,-0.775,2075.0
-0.79,-0.715,2077.777777777778
-0.81,-0.665,2080.5555555555557
-0.82,-0.675,2083.3333333333335
-0.805,-0.73,2086.1111111111113
-0.795,-0.78,2088.8888888888887
-0.785,-0.765,2091.6666666666665
-0.785,-0.73,2094.4444444444443
-0.795,-0.67,2097.222222222222
-0.835,-0.63,2100.0
-0.86,-0.72,2102.777777777778
-0.88,-0.79,2105.5555555555557
-0.9,-0.835,2108.3333333333335
-0.91,-0.855,2111.1111111111113
-0.915,-0.775,2113.8888888888887
-0.94,-0.735,2116.6666666666665
-0.975,-0.74,2119.4444444444443
-0.955,-0.745,2122.222222222222
-0.955,-0.815,2125.0
-0.94,-0.77,2127.777777777778
-0.925,-0.735,2130.5555555555557
-0.955,-0.715,2133.3333333333335
-0.975,-0.75,2136.1111111111113
-0.98,-0.795,2138.8888888888887
-1.01,-0.825,2141.6666666666665
-1.005,-0.81,2144.4444444444443
-1.0,-0.75,2147.222222222222
-1.005,-0.735,2150.0
-0.99,-0.755,2152.777777777778
-0.99,-0.79,2155.5555555555557
-0.99,-0.81,2158.3333333333335
-1.01,-0.765,2161.1111111111113
-1.045,-0.715,2163.8888888888887
-1.1,-0.725,2166.6666666666665
-1.175,-0.79,2169.4444444444443
-1.2,-0.855,2172.222222222222
-1.2,-0.865,2175.0
-1.17,-0.84,2177.777777777778
-1.11,-0.735,2180.5555555555557
-1.01,-0.635,2183.3333333333335
-0.865,-0.58,2186.1111111111113
-0.68,-0.575,2188.8888888888887
-0.465,-0.55,2191.6666666666665
-0.265,-0.475,2194.4444444444443
-0.09,-0.37,2197.222222222222
0.065,-0.305,2200.0
0.21,-0.265,2202.777777777778
0.35,-0.325,2205.5555555555557
0.5,-0.405,2208.3333333333335
0.605,-0.485,2211.1111111111113
0.665,-0.51,2213.8888888888887
0.7,-0.59,2216.6666666666665
0.695,-0.68,2219.4444444444443
0.66,-0.775,2222.222222222222
0.63,-0.785,2225.0
0.535,-0.71,2227.777777777778
0.405,-0.57,2230.5555555555557
0.15,-0.455,2233.3333333333335
-0.16,-0.44,2236.1111111111113
-0.47,-0.54,2238.8888888888887
-0.69,-0.675,2241.6666666666665
-0.84,-0.785,2244.4444444444443
-0.895,-0.83,2247.222222222222
-0.925,-0.78,2250.0
-0.9,-0.76,2252.777777777778
-0.86,-0.77,2255.5555555555557
-0.805,-0.79,2258.3333333333335
-0.8,-0.765,2261.1111111111113
-0.81,-0.73,2263.8888888888887
-0.875,-0.68,2266.6666666666665
-0.95,-0.67,2269.4444444444443
-1.0,-0.73,2272.222222222222
-1.02,-0.79,2275.0
-1.045,-0.835,2277.777777777778
-1.05,-0.79,2280.5555555555557
-1.065,-0.715,2283.3333333333335
-1.065,-0.695,2286.1111111111113
-1.06,-0.69,2288.8888888888887
-1.05,-0.73,2291.6666666666665
-1.015,-0.755,2294.4444444444443
-1.01,-0.73,2297.222222222222
-1.015,-0.68,2300.0
-1.055,-0.645,2302.777777777778
-1.045,-0.66,2305.5555555555557
-1.035,-0.705,2308.3333333333335
-1.035,-0.75,2311.1111111111113
-1.025,-0.74,2313.8888888888887
-1.03,-0.685,2316.6666666666665
-1.03,-0.64,2319.4444444444443
-1.03,-0.62,2322.222222222222
-1.02,-0.665,2325.0
-1.02,-0.695,2327.777777777778
-1.0,-0.68,2330.5555555555557
-1.025,-0.64,2333.3333333333335
-1.025,-0.625,2336.1111111111113
-1.045,-0.64,2338.8888888888887
-1.05,-0.705,2341.6666666666665
-1.045,-0.71,2344.4444444444443
-1.04,-0.685,2347.222222222222
-1.03,-0.615,2350.0
-1.03,-0.61,2352.777777777778
-1.015,-0.635,2355.5555555555557
-1.01,-0.655,2358.3333333333335
-1.0,-0.63,2361.1111111111113
-1.01,-0.585,2363.8888888888887
-1.035,-0.575,2366.6666666666665
-1.04,-0.605,2369.4444444444443
-1.025,-0.655,2372.222222222222
-1.0,-0.665,2375.0
-0.995,-0.615,2377.777777777778
-1.015,-0.56,2380.5555555555557
-1.025,-0.555,2383.3333333333335
-1.02,-0.57,2386.1111111111113
-1.005,-0.625,2388.8888888888887
-0.985,-0.635,2391.6666666666665
-0.97,-0.58,2394.4444444444443
-0.975,-0.52,2397.222222222222
-1.015,-0.48,2400.0
-1.02,-0.515,2402.777777777778
-1.015,-0.59,2405.5555555555557
-1.01,-0.625,2408.3333333333335
-0.985,-0.595,2411.1111111111113
-0.96,-0.55,2413.8888888888887
-0.965,-0.525,2416.6666666666665
-0.96,-0.54,2419.4444444444443
-0.97,-0.58,2422.222222222222
-0.95,-0.575,2425.0
-0.95,-0.53,2427.777777777778
-0.94,-0.505,2430.5555555555557
-0.965,-0.51,2433.3333333333335
-0.965,-0.565,2436.1111111111113
-0.935,-0.61,2438.8888888888887
-0.91,-0.61,2441.6666666666665
-0.925,-0.565,2444.4444444444443
-0.945,-0.53,2447.222222222222
-0.95,-0.51,2450.0
-0.95,-0.575,2452.777777777778
-0.95,-0.615,2455.5555555555557
-0.9,-0.64,2458.3333333333335
-0.9,-0.61,2461.1111111111113
-0.89,-0.55,2463.8888888888887
-0.89,-0.525,2466.6666666666665
-0.915,-0.56,2469.4444444444443
-0.89,-0.625,2472.222222222222
-0.89,-0.66,2475.0
-0.895,-0.665,2477.777777777778
-0.885,-0.615,2480.5555555555557
-0.91,-0.59,2483.3333333333335
-0.92,-0.59,2486.1111111111113
-0.905,-0.655,2488.8888888888887
-0.905,-0.67,2491.6666666666665
-0.885,-0.645,2494.4444444444443
-0.87,-0.59,2497.222222222222
-0.9,-0.56,2500.0
-0.925,-0.58,2502.777777777778
-0.915,-0.655,2505.5555555555557
-0.925,-0.705,2508.3333333333335
-0.935,-0.71,2511.1111111111113
-0.95,-0.645,2513.8888888888887
-0.965,-0.61,2516.6666666666665
-0.96,-0.63,2519.4444444444443
-0.95,-0.655,2522.222222222222
-0.925,-0.705,2525.0
-0.89,-0.68,2527.777777777778
-0.875,-0.615,2530.5555555555557
-0.895,-0.605,2533.3333333333335
-0.905,-0.635,2536.1111111111113
-0.92,-0.695,2538.8888888888887
-0.915,-0.71,2541.6666666666665
-0.935,-0.68,2544.4444444444443
-0.95,-0.64,2547.222222222222
-0.95,-0.66,2550.0
-0.95,-0.7,2552.777777777778
-0.935,-0.695,2555.5555555555557
-0.925,-0.645,2558.3333333333335
-0.95,-0.6,2561.1111111111113
-0.945,-0.6,2563.8888888888887
-0.925,-0.64,2566.6666666666665
-0.925,-0.7,2569.4444444444443
-0.925,-0.69,2572.222222222222
-0.935,-0.66,2575.0
-0.96,-0.625,2577.777777777778
-0.97,-0.635,2580.5555555555557
-0.975,-0.7,2583.3333333333335
-0.99,-0.73,2586.1111111111113
-0.97,-0.7,2588.8888888888887
-0.99,-0.66,2591.6666666666665
-0.99,-0.61,2594.4444444444443
-1.005,-0.625,2597.222222222222
-0.99,-0.68,2600.0
-0.97,-0.715,2602.777777777778
-0.975,-0.71,2605.5555555555557
-0.985,-0.685,2608.3333333333335
-1.015,-0.65,2611.1111111111113
-1.01,-0.7,2613.8888888888887
-1.015,-0.72,2616.6666666666665
-1.0,-0.73,2619.4444444444443
-1.0,-0.69,2622.222222222222
-0.985,-0.65,2625.0
-0.995,-0.63,2627.777777777778
-0.95,-0.67,2630.5555555555557
-0.935,-0.71,2633.3333333333335
-0.925,-0.695,2636.1111111111113
-0.925,-0.675,2638.8888888888887
-0.94,-0.62,2641.6666666666665
-0.945,-0.63,2644.4444444444443
-0.94,-0.66,2647.222222222222
-0.925,-0.705,2650.0
-0.86,-0.72,2652.777777777778
-0.83,-0.66,2655.5555555555557
-0.825,-0.58,2658.3333333333335
-0.835,-0.565,2661.1111111111113
-0.79,-0.59,2663.8888888888887
-0.765,-0.65,2666.6666666666665
-0.755,-0.66,2669.4444444444443
-0.75,-0.595,2672.222222222222
-0.76,-0.58,2675.0
-0.785,-0.54,2677.777777777778
-0.77,-0.585,2680.5555555555557
-0.77,-0.635,2683.3333333333335
-0.755,-0.635,2686.1111111111113
-0.745,-0.57,2688.8888888888887
-0.745,-0.52,2691.6666666666665
-0.775,-0.51,2694.4444444444443
-0.775,-0.545,2697.222222222222
-0.78,-0.63,2700.0
-0.775,-0.64,2702.777777777778
-0.785,-0.61,2705.5555555555557
-0.81,-0.56,2708.3333333333335
-0.83,-0.535,2711.1111111111113
-0.84,-0.56,2713.8888888888887
-0.84,-0.635,2716.6666666666665
-0.84,-0.665,2719.4444444444443
-0.85,-0.655,2722.222222222222
-0.865,-0.615,2725.0
-0.9,-0.59,2727.777777777778
-0.91,-0.625,2730.5555555555557
-0.92,-0.67,2733.3333333333335
-0.925,-0.69,2736.1111111111113
-0.93,-0.66,2738.8888888888887
-0.96,-0.62,2741.6666666666665
-0.99,-0.605,2744.4444444444443
-1.005,-0.66,2747.222222222222
-1.015,-0.7,2750.0
-1.01,-0.685,2752.777777777778
-1.005,-0.625,2755.5555555555557
-0.985,-0.605,2758.3333333333335
-0.98,-0.615,2761.1111111111113
-0.96,-0.65,2763.8888888888887
-0.95,-0.67,2766.6666666666665
-0.96,-0.625,2769.4444444444443
-0.98,-0.595,2772.222222222222
-1.06,-0.675,2775.0
-1.11,-0.74,2777.777777777778
-1.15,-0.745,2780.5555555555557
-1.19,-0.685,2783.3333333333335
-1.225,-0.615,2786.1111111111113
-1.18,-0.58,2788.8888888888887
-1.1,-0.595,2791.6666666666665
-0.965,-0.595,2794.4444444444443
-0.815,-0.535,2797.222222222222
-0.625,-0.42,2800.0
-0.435,-0.335,2802.777777777778
-0.25,-0.27,2805.5555555555557
-0.075,-0.265,2808.3333333333335
0.1,-0.3,2811.1111111111113
0.26,-0.29,2813.8888888888887
0.42,-0.28,2816.6666666666665
0.545,-0.285,2819.4444444444443
0.625,-0.35,2822.222222222222
0.68,-0.495,2825.0
0.695,-0.655,2827.777777777778
0.695,-0.745,2830.5555555555557
0.635,-0.725,2833.3333333333335
0.54,-0.66,2836.1111111111113
0.39,-0.57,2838.8888888888887
0.19,-0.555,2841.6666666666665
-0.065,-0.53,2844.4444444444443
-0.37,-0.555,2847.222222222222
-0.64,-0.54,2850.0
-0.84,-0.57,2852.777777777778
-0.96,-0.605,2855.5555555555557
-0.98,-0.68,2858.3333333333335
-0.94,-0.74,2861.1111111111113
-0.875,-0.75,2863.8888888888887
-0.825,-0.68,2866.6666666666665
-0.815,-0.615,2869.4444444444443
-0.845,-0.595,2872.222222222222
-0.885,-0.615,2875.0
-0.935,-0.68,2877.777777777778
-0.98,-0.705,2880.5555555555557
-1.02,-0.66,2883.3333333333335
-1.04,-0.615,2886.1111111111113
-1.06,-0.61,2888.8888888888887
-1.065,-0.625,2891.6666666666665
-1.02,-0.67,2894.4444444444443
-1.01,-0.635,2897.222222222222
-1.02,-0.61,2900.0
-1.035,-0.575,2902.777777777778
-1.06,-0.585,2905.5555555555557
-1.065,-0.64,2908.3333333333335
-1.06,-0.685,2911.1111111111113
-1.035,-0.675,2913.8888888888887
-1.02,-0.615,2916.6666666666665
-1.015,-0.55,2919.4444444444443
-1.01,-0.53,2922.222222222222
-0.995,-0.565,2925.0
-0.99,-0.615,2927.777777777778
-0.995,-0.61,2930.5555555555557
-1.005,-0.585,2933.3333333333335
-1.035,-0.55,2936.1111111111113
-1.03,-0.58,2938.8888888888887
-1.035,-0.615,2941.6666666666665
-1.035,-0.645,2944.4444444444443
-1.03,-0.595,2947.222222222222
-1.04,-0.535,2950.0
-1.04,-0.55,2952.777777777778
-1.015,-0.57,2955.5555555555557
-1.01,-0.565,2958.3333333333335
-0.995,-0.545,2961.1111111111113
-0.985,-0.5,2963.8888888888887
-1.0,-0.49,2966.6666666666665
-1.025,-0.535,2969.4444444444443
-1.03,-0.58,2972.222222222222
-1.025,-0.615,2975.0
-1.025,-0.56,2977.777777777778
-1.025,-0.505,2980.5555555555557
-1.025,-0.47,2983.3333333333335
-1.025,-0.485,2986.1111111111113
-1.005,-0.54,2988.8888888888887
-0.97,-0.525,2991.6666666666665
-0.96,-0.5,2994.4444444444443
-0.96,-0.44,2997.222222222222
-0.985,-0.415,3000.0
-1.0,-0.455,3002.777777777778
-1.025,-0.525,3005.5555555555557
-1.0,-0.53,3008.3333333333335
-0.99,-0.515,3011.1111111111113
-0.985,-0.455,3013.8888888888887
-0.98,-0.425,3016.6666666666665
-0.975,-0.43,3019.4444444444443
-0.955,-0.485,3022.222222222222
-0.93,-0.47,3025.0
-0.915,-0.435,3027.777777777778
-0.93,-0.405,3030.5555555555557
-0.945,-0.41,3033.3333333333335
-0.95,-0.47,3036.1111111111113
-0.955,-0.525,3038.8888888888887
-0.945,-0.53,3041.6666666666665
-0.945,-0.49,3044.4444444444443
-0.945,-0.44,3047.222222222222
-0.97,-0.425,3050.0
-0.96,-0.46,3052.777777777778
-0.935,-0.53,3055.5555555555557
-0.92,-0.53,3058.3333333333335
-0.905,-0.485,3061.1111111111113
-0.905,-0.435,3063.8888888888887
-0.915,-0.43,3066.6666666666665
-0.92,-0.49,3069.4444444444443
-0.915,-0.545,3072.222222222222
-0.905,-0.59,3075.0
-0.93,-0.55,3077.777777777778
-0.93,-0.51,3080.5555555555557
-0.945,-0.505,3083.3333333333335
-0.93,-0.555,3086.1111111111113
-0.905,-0.6,3088.8888888888887
-0.88,-0.61,3091.6666666666665
-0.865,-0.555,3094.4444444444443
-0.89,-0.49,3097.222222222222
-0.91,-0.485,3100.0
-0.93,-0.525,3102.777777777778
-0.915,-0.615,3105.5555555555557
-0.925,-0.66,3108.3333333333335
-0.915,-0.65,3111.1111111111113
-0.94,-0.59,3113.8888888888887
-0.94,-0.535,3116.6666666666665
-0.94,-0.56,3119.4444444444443
-0.94,-0.6,3122.222222222222
-0.905,-0.65,3125.0
-0.895,-0.635,3127.777777777778
-0.91,-0.58,3130.5555555555557
-0.91,-0.54,3133.3333333333335
-0.945,-0.565,3136.1111111111113
-0.955,-0.625,3138.8888888888887
-0.945,-0.665,3141.6666666666665
-0.94,-0.66,3144.4444444444443
-0.97,-0.6,3147.222222222222
-0.955,-0.575,3150.0
-0.945,-0.58,3152.777777777778
-0.93,-0.63,3155.5555555555557
-0.925,-0.62,3158.3333333333335
-0.92,-0.595,3161.1111111111113
-0.94,-0.555,3163.8888888888887
-0.93,-0.545,3166.6666666666665
-0.95,-0.59,3169.4444444444443
-0.95,-0.655,3172.222222222222
-0.96,-0.655,3175.0
-0.96,-0.625,3177.777777777778
-0.975,-0.58,3180.5555555555557
-0.985,-0.555,3183.3333333333335
-0.99,-0.61,3186.1111111111113
-0.975,-0.65,3188.8888888888887
-0.96,-0.635,3191.6666666666665
-0.96,-0.6,3194.4444444444443
-0.965,-0.555,3197.222222222222
-1.0,-0.55,3200.0
-1.02,-0.58,3202.777777777778
-1.005,-0.65,3205.5555555555557
-1.01,-0.67,3208.3333333333335
-1.015,-0.635,3211.1111111111113
-1.03,-0.585,3213.8888888888887
-1.045,-0.57,3216.6666666666665
-1.03,-0.6,3219.4444444444443
-1.015,-0.66,3222.222222222222
-1.0,-0.64,3225.0
-0.99,-0.595,3227.777777777778
-0.995,-0.535,3230.5555555555557
-1.0,-0.55,3233.3333333333335
-1.015,-0.595,3236.1111111111113
-1.02,-0.67,3238.8888888888887
-1.01,-0.68,3241.6666666666665
-1.0,-0.655,3244.4444444444443
-1.01,-0.58,3247.222222222222
-1.02,-0.565,3250.0
-1.015,-0.6,3252.777777777778
-1.015,-0.645,3255.5555555555557
-0.985,-0.65,3258.3333333333335
-0.975,-0.6,3261.1111111111113
-0.97,-0.55,3263.8888888888887
-0.985,-0.54,3266.6666666666665
-0.97,-0.57,3269.4444444444443
-0.98,-0.655,3272.222222222222
-0.965,-0.66,3275.0
-0.955,-0.625,3277.777777777778
-0.965,-0.575,3280.5555555555557
-0.965,-0.57,3283.3333333333335
-0.955,-0.59,3286.1111111111113
-0.935,-0.635,3288.8888888888887
-0.915,-0.63,3291.6666666666665
-0.92,-0.575,3294.4444444444443
-0.915,-0.545,3297.222222222222
-0.915,-0.54,3300.0
-0.895,-0.585,3302.777777777778
-0.87,-0.635,3305.5555555555557
-0.845,-0.645,3308.3333333333335
-0.835,-0.615,3311.1111111111113
-0.82,-0.565,3313.8888888888887
-0.82,-0.55,3316.6666666666665
-0.81,-0.56,3319.4444444444443
-0.77,-0.595,3322.222222222222
-0.75,-0.56,3325.0
-0.755,-0.49,3327.777777777778
-0.76,-0.46,3330.5555555555557
-0.76,-0.47,3333.3333333333335
-0.78,-0.545,3336.1111111111113
-0.78,-0.57,3338.8888888888887
-0.79,-0.56,3341.6666666666665
-0.83,-0.505,3344.4444444444443
-0.84,-0.505,3347.222222222222
-0.845,-0.535,3350.0
-0.855,-0.565,3352.777777777778
-0.815,-0.575,3355.5555555555557
-0.815,-0.52,3358.3333333333335
-0.825,-0.48,3361.1111111111113
-0.835,-0.495,3363.8888888888887
-0.855,-0.54,3366.6666666666665
-0.88,-0.61,3369.4444444444443
-0.9,-0.61,3372.222222222222
-0.93,-0.595,3375.0
-0.97,-0.59,3377.777777777778
-0.97,-0.635,3380.5555555555557
-0.975,-0.645,3383.3333333333335
-0.965,-0.655,3386.1111111111113
-0.97,-0.605,3388.8888888888887
-0.98,-0.525,3391.6666666666665
-0.99,-0.51,3394.4444444444443
-1.0,-0.56,3397.222222222222
-1.01,-0.61,3400.0
-1.005,-0.655,3402.777777777778
-1.005,-0.65,3405.5555555555557
-1.02,-0.58,3408.3333333333335
-1.03,-0.56,3411.1111111111113
-1.03,-0.59,3413.8888888888887
-1.005,-0.635,3416.6666666666665
-1.015,-0.645,3419.4444444444443
-1.0,-0.63,3422.222222222222
-1.01,-0.565,3425.0
-1.05,-0.535,3427.777777777778
-1.11,-0.59,3430.5555555555557
-1.165,-0.635,3433.3333333333335
-1.195,-0.655,3436.1111111111113
-1.215,-0.64,3438.8888888888887
-1.2,-0.575,3441.6666666666665
-1.16,-0.55,3444.4444444444443
-1.06,-0.54,3447.222222222222
-0.895,-0.52,3450.0
-0.69,-0.475,3452.777777777778
-0.465,-0.37,3455.5555555555557
-0.29,-0.27,3458.3333333333335
-0.115,-0.17,3461.1111111111113
0.05,-0.18,3463.8888888888887
0.225,-0.23,3466.6666666666665
0.365,-0.285,3469.4444444444443
0.495,-0.31,3472.222222222222
0.58,-0.315,3475.0
0.605,-0.375,3477.777777777778
0.63,-0.505,3480.5555555555557
0.615,-0.665,3483.3333333333335
0.605,-0.765,3486.1111111111113
0.575,-0.745,3488.8888888888887
0.52,-0.625,3491.6666666666665
0.415,-0.465,3494.4444444444443
0.235,-0.37,3497.222222222222
-0.055,-0.36,3500.0
-0.37,-0.44,3502.777777777778
-0.655,-0.54,3505.5555555555557
-0.865,-0.585,3508.3333333333335
-0.985,-0.61,3511.1111111111113
-1.035,-0.645,3513.8888888888887
-1.025,-0.7,3516.6666666666665
-0.93,-0.72,3519.4444444444443
-0.88,-0.705,3522.222222222222
-0.86,-0.63,3525.0
-0.885,-0.54,3527.777777777778
-0.905,-0.495,3530.5555555555557
-0.96,-0.545,3533.3333333333335
-1.0,-0.61,3536.1111111111113
-1.04,-0.665,3538.8888888888887
-1.065,-0.655,3541.6666666666665
-1.1,-0.61,3544.4444444444443
-1.11,-0.585,3547.222222222222
-1.095,-0.59,3550.0
-1.095,-0.6,3552.777777777778
-1.065,-0.595,3555.5555555555557
-1.045,-0.565,3558.3333333333335
-1.055,-0.505,3561.1111111111113
-1.06,-0.53,3563.8888888888887
-1.075,-0.575,3566.6666666666665
-1.07,-0.61,3569.4444444444443
-1.055,-0.585,3572.222222222222
-1.06,-0.555,3575.0
-1.075,-0.535,3577.777777777778
-1.09,-0.565,3580.5555555555557
-1.08,-0.605,3583.3333333333335
-1.065,-0.605,3586.1111111111113
-1.045,-0.565,3588.8888888888887
-1.045,-0.515,3591.6666666666665
-1.04,-0.45,3594.4444444444443
-1.045,-0.48,3597.222222222222
-1.055,-0.535,3600.0
-1.04,-0.595,3602.777777777778
-1.035,-0.585,3605.5555555555557
-1.055,-0.535,3608.3333333333335
-1.08,-0.485,3611.1111111111113
-1.085,-0.49,3613.8888888888887
-1.08,-0.525,3616.6666666666665
-1.05,-0.565,3619.4444444444443
-1.04,-0.525,3622.222222222222
-1.045,-0.465,3625.0
-1.04,-0.42,3627.777777777778
-1.045,-0.44,3630.5555555555557
-1.04,-0.485,3633.3333333333335
-1.025,-0.54,3636.1111111111113
-1.02,-0.505,3638.8888888888887
-1.02,-0.46,3641.6666666666665
-1.025,-0.42,3644.4444444444443
-1.025,-0.415,3647.222222222222
-1.02,-0.47,3650.0
-1.02,-0.5,3652.777777777778
-0.98,-0.49,3655.5555555555557
-0.98,-0.45,3658.3333333333335
-0.98,-0.38,3661.1111111111113
-0.99,-0.36,3663.8888888888887
-1.0,-0.405,3666.6666666666665
-0.99,-0.47,3669.4444444444443
-0.98,-0.495,3672.222222222222
-0.995,-0.465,3675.0
-0.995,-0.395,3677.777777777778
-1.01,-0.39,3680.5555555555557
-1.0,-0.435,3683.3333333333335
-0.99,-0.47,3686.1111111111113
-0.97,-0.47,3688.8888888888887
-0.965,-0.415,3691.6666666666665
-0.95,-0.36,3694.4444444444443
-0.955,-0.38,3697.222222222222
-0.965,-0.425,3700.0
-0.96,-0.485,3702.777777777778
-0.93,-0.5,3705.5555555555557
-0.945,-0.46,3708.3333333333335
-0.95,-0.405,3711.1111111111113
-0.97,-0.41,3713.8888888888887
-0.96,-0.44,3716.6666666666665
-0.94,-0.505,3719.4444444444443
-0.91,-0.505,3722.222222222222
-0.91,-0.485,3725.0
-0.91,-0.41,3727.777777777778
-0.92,-0.415,3730.5555555555557
-0.92,-0.48,3733.3333333333335
-0.905,-0.535,3736.1111111111113
-0.91,-0.55,3738.8888888888887
-0.92,-0.52,3741.6666666666665
-0.935,-0.5,3744.4444444444443
-0.965,-0.51,3747.222222222222
-0.955,-0.56,3750.0
-0.935,-0.57,3752.777777777778
-0.93,-0.57,3755.5555555555557
-0.925,-0.515,3758.3333333333335
-0.935,-0.495,3761.1111111111113
-0.935,-0.54,3763.8888888888887
-0.935,-0.595,3766.6666666666665
-0.935,-0.615,3769.4444444444443
-0.96,-0.575,3772.222222222222
-0.985,-0.535,3775.0
-0.98,-0.535,3777.777777777778
-0.97,-0.585,3780.5555555555557
-0.975,-0.635,3783.3333333333335
-0.94,-0.61,3786.1111111111113
-0.945,-0.565,3788.8888888888887
-0.94,-0.51,3791.6666666666665
-0.945,-0.505,3794.4444444444443
-0.945,-0.555,3797.222222222222
-0.95,-0.625,3800.0
-0.955,-0.635,3802.777777777778
-0.955,-0.63,3805.5555555555557
-0.965,-0.56,3808.3333333333335
-0.995,-0.54,3811.1111111111113
-1.01,-0.575,3813.8888888888887
-0.995,-0.625,3816.6666666666665
-0.965,-0.645,3819.4444444444443
-0.955,-0.605,3822.222222222222
-0.95,-0.53,3825.0
-0.97,-0.52,3827.777777777778
-0.98,-0.545,3830.5555555555557
-0.99,-0.595,3833.3333333333335
-0.97,-0.635,3836.1111111111113
-0.99,-0.62,3838.8888888888887
-1.015,-0.58,3841.6666666666665
-1.02,-0.56,3844.4444444444443
-1.04,-0.6,3847.222222222222
-1.03,-0.655,3850.0
-1.025,-0.655,3852.777777777778
-1.015,-0.61,3855.5555555555557
-1.015,-0.535,3858.3333333333335
-1.025,-0.515,3861.1111111111113
-1.02,-0.545,3863.8888888888887
-1.02,-0.595,3866.6666666666665
-1.025,-0.635,3869.4444444444443
-1.03,-0.635,3872.222222222222
-1.045,-0.58,3875.0
-1.08,-0.56,3877.777777777778
-1.085,-0.6,3880.5555555555557
-1.085,-0.655,3883.3333333333335
-1.065,-0.655,3886.1111111111113
-1.05,-0.63,3888.8888888888887
-1.035,-0.55,3891.6666666666665
-1.03,-0.525,3894.4444444444443
-1.035,-0.57,3897.222222222222
-1.025,-0.615,3900.0
-1.015,-0.65,3902.777777777778
-1.025,-0.625,3905.5555555555557
-1.045,-0.58,3908.3333333333335
-1.055,-0.55,3911.1111111111113
-1.065,-0.585,3913.8888888888887
-1.045,-0.63,3916.6666666666665
-1.04,-0.655,3919.4444444444443
-1.01,-0.615,3922.222222222222
-1.02,-0.55,3925.0
-0.995,-0.53,3927.777777777778
-0.98,-0.555,3930.5555555555557
-0.965,-0.615,3933.3333333333335
-0.95,-0.63,3936.1111111111113
-0.965,-0.61,3938.8888888888887
-0.955,-0.58,3941.6666666666665
-0.97,-0.56,3944.4444444444443
-0.955,-0.595,3947.222222222222
-0.925,-0.63,3950.0
-0.88,-0.615,3952.777777777778
-0.875,-0.575,3955.5555555555557
-0.855,-0.51,3958.3333333333335
-0.84,-0.515,3961.1111111111113
-0.8,-0.56,3963.8888888888887
-0.785,-0.585,3966.6666666666665
-0.765,-0.565,3969.4444444444443
-0.775,-0.505,3972.222222222222
-0.8,-0.47,3975.0
-0.805,-0.505,3977.777777777778
-0.79,-0.55,3980.5555555555557
-0.795,-0.565,3983.3333333333335
-0.79,-0.515,3986.1111111111113
-0.805,-0.475,3988.8888888888887
-0.805,-0.465,3991.6666666666665
-0.815,-0.495,3994.4444444444443
-0.805,-0.55,3997.222222222222
-0.805,-0.585,4000.0
-0.82,-0.55,4002.777777777778
-0.835,-0.485,4005.5555555555557
-0.87,-0.475,4008.3333333333335
-0.88,-0.515,4011.1111111111113
-0.88,-0.59,4013.8888888888887
-0.885,-0.635,4016.6666666666665
-0.895,-0.615,4019.4444444444443
-0.93,-0.565,4022.222222222222
-0.95,-0.52,4025.0
-0.975,-0.53,4027.777777777778
-0.96,-0.6,4030.5555555555557
-0.955,-0.625,4033.3333333333335
-0.97,-0.625,4036.1111111111113
-0.995,-0.585,4038.8888888888887
-1.01,-0.565,4041.6666666666665
-1.02,-0.57,4044.4444444444443
-1.035,-0.62,4047.222222222222
-1.03,-0.655,4050.0
-1.015,-0.63,4052.777777777778
-1.015,-0.575,4055.5555555555557
-1.02,-0.515,4058.3333333333335
-1.035,-0.515,4061.1111111111113
-1.025,-0.575,4063.8888888888887
-1.025,-0.645,4066.6666666666665
-1.0,-0.665,4069.4444444444443
-1.01,-0.63,4072.222222222222
-1.035,-0.58,4075.0
-1.07,-0.57,4077.777777777778
-1.085,-0.605,4080.5555555555557
-1.09,-0.665,4083.3333333333335
-1.125,-0.665,4086.1111111111113
-1.155,-0.62,4088.8888888888887
-1.205,-0.565,4091.6666666666665
-1.21,-0.52,4094.4444444444443
-1.18,-0.535,4097.222222222223
-1.07,-0.555,4100.0
-0.92,-0.515,4102.777777777777
-0.745,-0.405,4105.555555555556
-0.55,-0.32,4108.333333333333
-0.355,-0.27,4111.111111111111
-0.17,-0.29,4113.888888888889
0.025,-0.29,4116.666666666667
0.21,-0.255,4119.444444444444
0.38,-0.175,4122.222222222223
0.51,-0.16,4125.0
0.6,-0.195,4127.777777777777
0.65,-0.335,4130.555555555556
0.685,-0.51,4133.333333333333
0.67,-0.645,4136.111111111111
0.625,-0.685,4138.888888888889
0.55,-0.625,4141.666666666667
0.465,-0.55,4144.444444444444
0.355,-0.49,4147.222222222223
0.17,-0.455,4150.0
-0.12,-0.415,4152.777777777777
-0.42,-0.42,4155.555555555556
-0.715,-0.425,4158.333333333333
-0.905,-0.505,4161.111111111111
-1.0,-0.62,4163.888888888889
-1.005,-0.695,4166.666666666667
-0.96,-0.71,4169.444444444444
-0.915,-0.65,4172.222222222223
-0.89,-0.58,4175.0
-0.91,-0.55,4177.777777777777
-0.935,-0.585,4180.555555555556
-0.975,-0.635,4183.333333333333
-1.025,-0.62,4186.111111111111
-1.05,-0.57,4188.888888888889
-1.075,-0.525,4191.666666666667
-1.09,-0.52,4194.444444444444
-1.09,-0.57,4197.222222222223
-1.07,-0.6,4200.0
-1.06,-0.615,4202.777777777777
-1.065,-0.575,4205.555555555556
-1.09,-0.52,4208.333333333333
-1.095,-0.51,4211.111111111111
-1.1,-0.53,4213.888888888889
-1.08,-0.585,4216.666666666667
-1.07,-0.605,4219.444444444444
-1.065,-0.56,4222.222222222223
-1.065,-0.49,4225.0
-1.05,-0.45,4227.777777777777
-1.075,-0.48,4230.555555555556
-1.065,-0.53,4233.333333333333
-1.04,-0.57,4236.111111111111
-1.035,-0.55,4238.888888888889
-1.04,-0.515,4241.666666666667
-1.065,-0.485,4244.444444444444
-1.075,-0.505,4247.222222222223
-1.075,-0.545,4250.0
-1.05,-0.565,4252.777777777777
-1.04,-0.515,4255.555555555556
-1.035,-0.44,4258.333333333333
-1.055,-0.4,4261.111111111111
-1.075,-0.43,4263.888888888889
-1.045,-0.47,4266.666666666667
-1.04,-0.53,4269.444444444444
-1.045,-0.545,4272.222222222223
-1.04,-0.5,4275.0
-1.06,-0.45,4277.777777777777
-1.07,-0.445,4280.555555555556
-1.06,-0.49,4283.333333333333
-1.045,-0.515,4286.111111111111
-1.0,-0.5,4288.888888888889
-1.0,-0.42,4291.666666666667
-1.035,-0.38,4294.444444444444
-1.035,-0.39,4297.222222222223
-1.025,-0.42,4300.0
-1.015,-0.465,4302.777777777777
-1.005,-0.47,4305.555555555556
-1.01,-0.415,4308.333333333333
-1.03,-0.38,4311.111111111111
-1.04,-0.38,4313.888888888889
-1.04,-0.425,4316.666666666667
-1.02,-0.47,4319.444444444444
-0.985,-0.455,4322.222222222223
-0.975,-0.4,4325.0
-0.965,-0.32,4327.777777777777
-0.97,-0.315,4330.555555555556
-0.98,-0.345,4333.333333333333
-0.98,-0.39,4336.111111111111
-0.96,-0.45,4338.888888888889
-0.97,-0.45,4341.666666666667
-0.97,-0.39,4344.444444444444
-0.965,-0.35,4347.222222222223
-0.965,-0.365,4350.0
-0.965,-0.41,4352.777777777777
-0.95,-0.435,4355.555555555556
-0.935,-0.395,4358.333333333333
-0.915,-0.335,4361.111111111111
-0.935,-0.345,4363.888888888889
-0.925,-0.385,4366.666666666667
-0.92,-0.44,4369.444444444444
-0.93,-0.465,4372.222222222223
-0.925,-0.445,4375.0
-0.94,-0.4,4377.777777777777
-0.95,-0.43,4380.555555555556
-0.935,-0.47,4383.333333333333
-0.92,-0.505,4386.111111111111
-0.905,-0.495,4388.888888888889
-0.885,-0.45,4391.666666666667
-0.9,-0.405,4394.444444444444
-0.905,-0.43,4397.222222222223
-0.91,-0.48,4400.0
-0.91,-0.535,4402.777777777777
-0.885,-0.555,4405.555555555556
-0.905,-0.525,4408.333333333333
-0.925,-0.485,4411.111111111111
-0.93,-0.49,4413.888888888889
-0.945,-0.53,4416.666666666667
-0.94,-0.58,4419.444444444444
-0.91,-0.595,4422.222222222223
-0.89,-0.54,4425.0
-0.92,-0.485,4427.777777777777
-0.92,-0.46,4430.555555555556
-0.925,-0.495,4433.333333333333
-0.92,-0.57,4436.111111111111
-0.925,-0.6,4438.888888888889
-0.93,-0.605,4441.666666666667
-0.935,-0.565,4444.444444444444
-0.95,-0.52,4447.222222222223
-0.965,-0.535,4450.0
-0.975,-0.59,4452.777777777777
-0.945,-0.61,4455.555555555556
-0.925,-0.595,4458.333333333333
-0.925,-0.505,4461.111111111111
-0.945,-0.475,4463.888888888889
-0.94,-0.5,4466.666666666667
-0.94,-0.555,4469.444444444444
-0.945,-0.62,4472.222222222223
-0.94,-0.62,4475.0
-0.95,-0.59,4477.777777777777
-0.975,-0.54,4480.555555555556
-0.985,-0.515,4483.333333333333
-1.0,-0.535,4486.111111111111
-0.97,-0.585,4488.888888888889
-0.96,-0.595,4491.666666666667
-0.95,-0.54,4494.444444444444
-0.94,-0.495,4497.222222222223
-0.965,-0.49,4500.0
-0.97,-0.54,4502.777777777777
-0.97,-0.59,4505.555555555556
-0.98,-0.63,4508.333333333333
-0.98,-0.6,4511.111111111111
-1.015,-0.54,4513.888888888889
-1.03,-0.49,4516.666666666667
-1.035,-0.52,4519.444444444444
-1.025,-0.575,4522.222222222223
-1.0,-0.605,4525.0
-0.995,-0.595,4527.777777777777
-0.99,-0.545,4530.555555555556
-1.0,-0.49,4533.333333333333
-1.035,-0.49,4536.111111111111
-1.04,-0.57,4538.888888888889
-1.035,-0.605,4541.666666666667
-1.02,-0.63,4544.444444444444
-1.04,-0.6,4547.222222222223
-1.02,-0.515,4550.0
-1.04,-0.495,4552.777777777777
-1.04,-0.52,4555.555555555556
-1.035,-0.575,4558.333333333333
-1.005,-0.59,4561.111111111111
-0.99,-0.56,4563.888888888889
-1.005,-0.51,4566.666666666667
-1.025,-0.495,4569.444444444444
-1.025,-0.525,4572.222222222223
-1.015,-0.59,4575.0
-1.0,-0.615,4577.777777777777
-1.0,-0.59,4580.555555555556
-1.0,-0.545,4583.333333333333
-1.01,-0.49,4586.111111111111
-0.995,-0.525,4588.888888888889
-0.97,-0.565,4591.666666666667
-0.935,-0.57,4594.444444444444
-0.925,-0.54,4597.222222222223
-0.93,-0.49,4600.0
-0.94,-0.48,4602.777777777777
-0.945,-0.535,4605.555555555556
-0.94,-0.6,4608.333333333333
-0.925,-0.63,4611.111111111111
-0.92,-0.595,4613.888888888889
-0.905,-0.525,4616.666666666667
-0.905,-0.46,4619.444444444444
-0.885,-0.455,4622.222222222223
-0.845,-0.52,4625.0
-0.805,-0.545,4627.777777777777
-0.775,-0.55,4630.555555555556
-0.765,-0.485,4633.333333333333
-0.765,-0.43,4636.111111111111
-0.77,-0.425,4638.888888888889
-0.775,-0.46,4641.666666666667
-0.77,-0.515,4644.444444444444
-0.76,-0.515,4647.222222222223
-0.745,-0.45,4650.0
-0.76,-0.41,4652.777777777777
-0.79,-0.425,4655.555555555556
-0.775,-0.45,4658.333333333333
-0.77,-0.49,4661.111111111111
-0.76,-0.485,4663.888888888889
-0.765,-0.455,4666.666666666667
-0.795,-0.405,4669.444444444444
-0.83,-0.4,4672.222222222223
-0.845,-0.475,4675.0
-0.84,-0.535,4677.777777777777
-0.825,-0.55,4680.555555555556
-0.83,-0.515,4683.333333333333
-0.84,-0.445,4686.111111111111
-0.87,-0.43,4688.888888888889
-0.895,-0.44,4691.666666666667
-0.9,-0.545,4694.444444444444
-0.905,-0.6,4697.222222222223
-0.905,-0.59,4700.0
-0.925,-0.535,4702.777777777777
-0.95,-0.49,4705.555555555556
-0.98,-0.485,4708.333333333333
-1.01,-0.535,4711.111111111111
-1.0,-0.605,4713.888888888889
-0.995,-0.61,4716.666666666667
-0.985,-0.545,4719.444444444444
-0.995,-0.475,4722.222222222223
-1.02,-0.45,4725.0
-1.02,-0.485,4727.777777777777
-1.015,-0.535,4730.555555555556
-1.0,-0.59,4733.333333333333
-0.98,-0.58,4736.111111111111
-0.97,-0.515,4738.888888888889
-0.995,-0.48,4741.666666666667
-1.015,-0.475,4744.444444444444
-1.025,-0.53,4747.222222222223
-1.03,-0.59,4750.0
-1.015,-0.6,4752.777777777777
-1.035,-0.56,4755.555555555556
-1.075,-0.47,4758.333333333333
-1.12,-0.455,4761.111111111111
-1.165,-0.49,4763.888888888889
-1.18,-0.56,4766.666666666667
-1.165,-0.56,4769.444444444444
-1.1,-0.5,4772.222222222223
-1.01,-0.42,4775.0
-0.85,-0.345,4777.777777777777
-0.65,-0.315,4780.555555555556
-0.43,-0.29,4783.333333333333
-0.2,-0.23,4786.111111111111
0.0,-0.14,4788.888888888889
0.2,-0.065,4791.666666666667
0.405,-0.065,4794.444444444444
0.545,-0.15,4797.222222222223
0.65,-0.235,4800.0
0.705,-0.32,4802.777777777777
0.725,-0.39,4805.555555555556
0.68,-0.46,4808.333333333333
0.635,-0.535,4811.111111111111
0.57,-0.605,4813.888888888889
0.505,-0.585,4816.666666666667
0.415,-0.495,4819.444444444444
0.265,-0.345,4822.222222222223
0.025,-0.23,4825.0
-0.275,-0.19,4827.777777777777
-0.55,-0.315,4830.555555555556
-0.75,-0.48,4833.333333333333
-0.865,-0.605,4836.111111111111
-0.925,-0.625,4838.888888888889
-0.94,-0.6,4841.666666666667
-0.92,-0.55,4844.444444444444
-0.885,-0.525,4847.222222222223
-0.86,-0.575,4850.0
-0.875,-0.56,4852.777777777777
-0.875,-0.52,4855.555555555556
-0.935,-0.465,4858.333333333333
-0.98,-0.445,4861.111111111111
-1.01,-0.47,4863.888888888889
-1.03,-0.545,4866.666666666667
-1.03,-0.565,4869.444444444444
-1.035,-0.54,4872.222222222223
-1.045,-0.5,4875.0
-1.055,-0.455,4877.777777777777
-1.07,-0.45,4880.555555555556
-1.065,-0.525,4883.333333333333
-1.06,-0.54,4886.111111111111
-1.045,-0.545,4888.888888888889
-1.05,-0.485,4891.666666666667
-1.04,-0.43,4894.444444444444
-1.03,-0.375,4897.222222222223
-1.035,-0.42,4900.0
-1.025,-0.48,4902.777777777777
-1.025,-0.525,4905.555555555556
-1.025,-0.48,4908.333333333333
-1.035,-0.455,4911.111111111111
-1.05,-0.445,4913.888888888889
-1.055,-0.46,4916.666666666667
-1.035,-0.49,4919.444444444444
-1.01,-0.485,4922.222222222223
-1.025,-0.44,4925.0
-1.015,-0.375,4927.777777777777
-1.02,-0.365,4930.555555555556
-1.025,-0.405,4933.333333333333
-1.015,-0.47,4936.111111111111
-1.005,-0.48,4938.888888888889
-1.005,-0.445,4941.666666666667
-1.015,-0.405,4944.444444444444
-1.02,-0.35,4947.222222222223
-1.04,-0.405,4950.0
-1.02,-0.435,4952.777777777777
-1.015,-0.46,4955.555555555556
-0.99,-0.395,4958.333333333333
-0.98,-0.34,4961.111111111111
-0.98,-0.315,4963.888888888889
-0.985,-0.335,4966.666666666667
-0.98,-0.385,4969.444444444444
-0.97,-0.415,4972.222222222223
-0.97,-0.38,4975.0
-0.99,-0.355,4977.777777777777
-0.99,-0.34,4980.555555555556
-0.985,-0.365,4983.333333333333
-0.96,-0.385,4986.111111111111
-0.945,-0.355,4988.888888888889
-0.945,-0.32,4991.666666666667
-0.94,-0.29,4994.444444444444
-0.925,-0.325,4997.222222222223
-0.925,-0.35,5000.0
-0.92,-0.355,5002.777777777777
-0.92,-0.36,5005.555555555556
-0.93,-0.315,5008.333333333333
-0.945,-0.32,5011.111111111111
-0.94,-0.365,5013.888888888889
-0.935,-0.4,5016.666666666667
-0.925,-0.38,5019.444444444444
-0.915,-0.345,5022.222222222223
-0.91,-0.3,5025.0
-0.905,-0.285,5027.777777777777
-0.9,-0.35,5030.555555555556
-0.885,-0.395,5033.333333333333
-0.885,-0.4,5036.111111111111
-0.9,-0.355,5038.888888888889
-0.9,-0.34,5041.666666666667
-0.92,-0.35,5044.444444444444
-0.9,-0.415,5047.222222222223
-0.89,-0.445,5050.0
-0.865,-0.435,5052.777777777777
-0.86,-0.385,5055.555555555556
-0.855,-0.345,5058.333333333333
-0.88,-0.365,5061.111111111111
-0.85,-0.42,5063.888888888889
-0.825,-0.47,5066.666666666667
-0.83,-0.48,5069.444444444444
-0.835,-0.43,5072.222222222223
-0.875,-0.395,5075.0
-0.885,-0.415,5077.777777777777
-0.885,-0.48,5080.555555555556
-0.87,-0.52,5083.333333333333
-0.865,-0.54,5086.111111111111
-0.865,-0.49,5088.888888888889
-0.855,-0.41,5091.666666666667
-0.87,-0.395,5094.444444444444
-0.85,-0.415,5097.222222222223
-0.86,-0.49,5100.0
-0.855,-0.535,5102.777777777777
-0.85,-0.525,5105.555555555556
-0.875,-0.46,5108.333333333333
-0.885,-0.425,5111.111111111111
-0.905,-0.445,5113.888888888889
-0.91,-0.535,5116.666666666667
-0.895,-0.545,5119.444444444444
-0.87,-0.525,5122.222222222223
-0.87,-0.46,5125.0
-0.875,-0.39,5127.777777777777
-0.885,-0.405,5130.555555555556
-0.885,-0.5,5133.333333333333
-0.89,-0.54,5136.111111111111
-0.875,-0.56,5138.888888888889
-0.87,-0.535,5141.666666666667
-0.9,-0.46,5144.444444444444
-0.92,-0.445,5147.222222222223
-0.935,-0.48,5150.0
-0.915,-0.52,5152.777777777777
-0.905,-0.55,5155.555555555556
-0.88,-0.54,5158.333333333333
-0.88,-0.47,5161.111111111111
-0.91,-0.415,5163.888888888889
-0.915,-0.43,5166.666666666667
-0.92,-0.49,5169.444444444444
-0.915,-0.545,5172.222222222223
-0.925,-0.555,5175.0
-0.955,-0.51,5177.777777777777
-0.945,-0.475,5180.555555555556
-0.96,-0.495,5183.333333333333
-0.965,-0.515,5186.111111111111
-0.96,-0.545,5188.888888888889
-0.935,-0.51,5191.666666666667
-0.955,-0.465,5194.444444444444
-0.965,-0.445,5197.222222222223
-0.99,-0.5,5200.0
-0.985,-0.545,5202.777777777777
-0.98,-0.56,5205.555555555556
-0.99,-0.515,5208.333333333333
-1.005,-0.5,5211.111111111111
-1.0,-0.515,5213.888888888889
-1.01,-0.55,5216.666666666667
-1.005,-0.57,5219.444444444444
-0.995,-0.53,5222.222222222223
-0.99,-0.48,5225.0
-0.98,-0.445,5227.777777777777
-0.99,-0.49,5230.555555555556
-0.985,-0.545,5233.333333333333
-0.965,-0.565,5236.111111111111
-0.965,-0.535,5238.888888888889
-0.975,-0.5,5241.666666666667
-1.0,-0.47,5244.444444444444
-0.985,-0.51,5247.222222222223
-0.98,-0.565,5250.0
-0.965,-0.57,5252.777777777777
-0.95,-0.54,5255.555555555556
-0.945,-0.485,5258.333333333333
-0.93,-0.45,5261.111111111111
-0.91,-0.475,5263.888888888889
-0.905,-0.52,5266.666666666667
-0.88,-0.545,5269.444444444444
-0.885,-0.525,5272.222222222223
-0.895,-0.495,5275.0
-0.91,-0.47,5277.777777777777
-0.905,-0.535,5280.555555555556
-0.885,-0.55,5283.333333333333
-0.845,-0.555,5286.111111111111
-0.81,-0.48,5288.888888888889
-0.8,-0.425,5291.666666666667
-0.795,-0.41,5294.444444444444
-0.76,-0.455,5297.222222222223
-0.75,-0.505,5300.0
-0.72,-0.51,5302.777777777777
-0.71,-0.47,5305.555555555556
-0.7,-0.405,5308.333333333333
-0.71,-0.405,5311.111111111111
-0.715,-0.435,5313.888888888889
-0.705,-0.485,5316.666666666667
-0.71,-0.485,5319.444444444444
-0.715,-0.43,5322.222222222223
-0.72,-0.375,5325.0
-0.735,-0.37,5327.777777777777
-0.75,-0.4,5330.555555555556
-0.75,-0.45,5333.333333333333
-0.745,-0.49,5336.111111111111
-0.755,-0.46,5338.888888888889
-0.77,-0.41,5341.666666666667
-0.795,-0.425,5344.444444444444
-0.795,-0.455,5347.222222222223
-0.8,-0.51,5350.0
-0.815,-0.505,5352.777777777777
-0.805,-0.49,5355.555555555556
-0.84,-0.45,5358.333333333333
-0.85,-0.44,5361.111111111111
-0.875,-0.485,5363.888888888889
-0.895,-0.545,5366.666666666667
-0.885,-0.56,5369.444444444444
-0.9,-0.535,5372.222222222223
-0.915,-0.49,5375.0
-0.935,-0.475,5377.777777777777
-0.935,-0.515,5380.555555555556
-0.94,-0.535,5383.333333333333
-0.93,-0.54,5386.111111111111
-0.945,-0.495,5388.888888888889
-0.94,-0.465,5391.666666666667
-0.935,-0.49,5394.444444444444
-0.925,-0.525,5397.222222222223
-0.925,-0.515,5400.0
-0.94,-0.495,5402.777777777777
-0.955,-0.485,5405.555555555556
-0.965,-0.485,5408.333333333333
-0.985,-0.56,5411.111111111111
-1.015,-0.59,5413.888888888889
-1.075,-0.575,5416.666666666667
-1.11,-0.515,5419.444444444444
-1.16,-0.48,5422.222222222223
-1.15,-0.47,5425.0
-1.07,-0.49,5427.777777777777
-0.96,-0.5,5430.555555555556
-0.825,-0.395,5433.333333333333
-0.645,-0.3,5436.111111111111
-0.445,-0.21,5438.888888888889
-0.25,-0.195,5441.666666666667
-0.06,-0.205,5444.444444444444
0.12,-0.205,5447.222222222223
0.29,-0.145,5450.0
0.47,-0.1,5452.777777777777
0.605,-0.095,5455.555555555556
0.71,-0.165,5458.333333333333
0.765,-0.305,5461.111111111111
0.77,-0.455,5463.888888888889
0.725,-0.53,5466.666666666667
0.665,-0.51,5469.444444444444
0.58,-0.47,5472.222222222223
0.485,-0.46,5475.0
0.33,-0.42,5477.777777777777
0.075,-0.38,5480.555555555556
-0.205,-0.325,5483.333333333333
-0.5,-0.315,5486.111111111111
-0.715,-0.38,5488.888888888889
-0.83,-0.47,5491.666666666667
-0.885,-0.585,5494.444444444444
-0.85,-0.64,5497.222222222223
-0.81,-0.6,5500.0
-0.78,-0.52,5502.777777777777
-0.77,-0.46,5505.555555555556
-0.8,-0.43,5508.333333333333
-0.84,-0.5,5511.111111111111
-0.88,-0.56,5513.888888888889
-0.925,-0.575,5516.666666666667
-0.955,-0.525,5519.444444444444
-0.98,-0.475,5522.222222222223
-0.995,-0.455,5525.0
-1.015,-0.475,5527.777777777777
-1.005,-0.52,5530.555555555556
-0.985,-0.53,5533.333333333333
-0.99,-0.495,5536.111111111111
-0.985,-0.45,5538.888888888889
-1.0,-0.43,5541.666666666667
-1.01,-0.47,5544.444444444444
-1.015,-0.53,5547.222222222223
-1.01,-0.56,5550.0
-0.99,-0.54,5552.777777777777
-0.97,-0.465,5555.555555555556
-0.99,-0.4,5558.333333333333
-0.975,-0.375,5561.111111111111
-0.965,-0.415,5563.888888888889
-0.95,-0.485,5566.666666666667
-0.95,-0.48,5569.444444444444
-0.96,-0.46,5572.222222222223
-0.975,-0.41,5575.0
-0.99,-0.405,5577.777777777777
-0.99,-0.465,5580.555555555556
-0.98,-0.47,5583.333333333333
-0.97,-0.46,5586.111111111111
-0.975,-0.43,5588.888888888889
-0.985,-0.39,5591.666666666667
-0.985,-0.4,5594.444444444444
-0.945,-0.435,5597.222222222223
-0.95,-0.44,5600.0
-0.95,-0.39,5602.777777777777
-0.96,-0.365,5605.555555555556
-0.97,-0.385,5608.333333333333
-0.975,-0.42,5611.111111111111
-0.965,-0.465,5613.888888888889
-0.94,-0.45,5616.666666666667
-0.95,-0.385,5619.444444444444
-0.945,-0.315,5622.222222222223
-0.96,-0.305,5625.0
-0.94,-0.35,5627.777777777777
-0.915,-0.395,5630.555555555556
-0.9,-0.4,5633.333333333333
-0.915,-0.345,5636.111111111111
-0.92,-0.31,5638.888888888889
-0.94,-0.31,5641.666666666667
-0.93,-0.35,5644.444444444444
-0.945,-0.395,5647.222222222223
-0.94,-0.405,5650.0
-0.93,-0.35,5652.777777777777
-0.925,-0.295,5655.555555555556
-0.91,-0.28,5658.333333333333
-0.915,-0.295,5661.111111111111
-0.91,-0.34,5663.888888888889
-0.88,-0.37,5666.666666666667
-0.87,-0.325,5669.444444444444
-0.88,-0.295,5672.222222222223
-0.895,-0.28,5675.0
-0.895,-0.34,5677.777777777777
-0.885,-0.39,5680.555555555556
-0.875,-0.41,5683.333333333333
-0.875,-0.385,5686.111111111111
-0.865,-0.3,5688.888888888889
-0.865,-0.27,5691.666666666667
-0.85,-0.28,5694.444444444444
-0.83,-0.35,5697.222222222223
-0.82,-0.395,5700.0
-0.83,-0.375,5702.777777777777
-0.835,-0.345,5705.555555555556
-0.845,-0.33,5708.333333333333
-0.85,-0.37,5711.111111111111
-0.84,-0.425,5713.888888888889
-0.83,-0.455,5716.666666666667
-0.815,-0.42,5719.444444444444
-0.835,-0.38,5722.222222222223
-0.84,-0.325,5725.0
-0.845,-0.37,5727.777777777777
-0.825,-0.42,5730.555555555556
-0.81,-0.465,5733.333333333333
-0.81,-0.46,5736.111111111111
-0.815,-0.415,5738.888888888889
-0.85,-0.395,5741.666666666667
-0.86,-0.42,5744.444444444444
-0.87,-0.495,5747.222222222223
-0.87,-0.535,5750.0
-0.845,-0.525,5752.777777777777
-0.845,-0.485,5755.555555555556
-0.83,-0.42,5758.333333333333
-0.86,-0.395,5761.111111111111
-0.855,-0.43,5763.888888888889
-0.84,-0.5,5766.666666666667
-0.84,-0.53,5769.444444444444
-0.85,-0.515,5772.222222222223
-0.87,-0.465,5775.0
-0.885,-0.46,5777.777777777777
-0.875,-0.5,5780.555555555556
-0.875,-0.545,5783.333333333333
-0.885,-0.525,5786.111111111111
-0.875,-0.495,5788.888888888889
-0.86,-0.44,5791.666666666667
-0.865,-0.45,5794.444444444444
-0.86,-0.48,5797.222222222223
-0.865,-0.525,5800.0
-0.85,-0.52,5802.777777777777
-0.865,-0.495,5805.555555555556
-0.88,-0.475,5808.333333333333
-0.885,-0.49,5811.111111111111
-0.895,-0.55,5813.888888888889
-0.885,-0.55,5816.666666666667
-0.885,-0.525,5819.444444444444
-0.895,-0.475,5822.222222222223
-0.915,-0.45,5825.0
-0.895,-0.475,5827.777777777777
-0.89,-0.52,5830.555555555556
-0.88,-0.55,5833.333333333333
-0.89,-0.53,5836.111111111111
-0.93,-0.485,5838.888888888889
-0.94,-0.45,5841.666666666667
-0.96,-0.475,5844.444444444444
-0.96,-0.55,5847.222222222223
-0.975,-0.57,5850.0
-0.95,-0.57,5852.777777777777
-0.96,-0.505,5855.555555555556
-0.97,-0.45,5858.333333333333
-0.975,-0.45,5861.111111111111
-0.975,-0.485,5863.888888888889
-0.97,-0.55,5866.666666666667
-0.955,-0.545,5869.444444444444
-0.955,-0.53,5872.222222222223
-0.965,-0.5,5875.0
-0.99,-0.505,5877.777777777777
-0.98,-0.56,5880.555555555556
-0.975,-0.59,5883.333333333333
-0.96,-0.575,5886.111111111111
-0.95,-0.52,5888.888888888889
-0.95,-0.47,5891.666666666667
-0.96,-0.455,5894.444444444444
-0.945,-0.505,5897.222222222223
-0.955,-0.57,5900.0
-0.94,-0.58,5902.777777777777
-0.925,-0.555,5905.555555555556
-0.925,-0.505,5908.333333333333
-0.945,-0.47,5911.111111111111
-0.975,-0.505,5913.888888888889
-0.955,-0.55,5916.666666666667
-0.945,-0.58,5919.444444444444
-0.915,-0.54,5922.222222222223
-0.895,-0.48,5925.0
-0.885,-0.425,5927.777777777777
-0.88,-0.415,5930.555555555556
-0.86,-0.48,5933.333333333333
-0.855,-0.53,5936.111111111111
-0.845,-0.54,5938.888888888889
-0.86,-0.5,5941.666666666667
-0.89,-0.47,5944.444444444444
-0.885,-0.46,5947.222222222223
-0.885,-0.505,5950.0
-0.84,-0.54,5952.777777777777
-0.805,-0.525,5955.555555555556
-0.77,-0.485,5958.333333333333
-0.745,-0.44,5961.111111111111
-0.745,-0.395,5963.888888888889
-0.725,-0.44,5966.666666666667
-0.705,-0.48,5969.444444444444
-0.69,-0.5,5972.222222222223
-0.705,-0.46,5975.0
-0.715,-0.4,5977.777777777777
-0.725,-0.39,5980.555555555556
-0.725,-0.415,5983.333333333333
-0.715,-0.47,5986.111111111111
-0.705,-0.49,5988.888888888889
-0.7,-0.44,5991.666666666667
-0.715,-0.385,5994.444444444444
-0.715,-0.385,5997.222222222223
-0.735,-0.425,6000.0
-0.74,-0.465,6002.777777777777
-0.74,-0.46,6005.555555555556
-0.77,-0.44,6008.333333333333
-0.78,-0.43,6011.111111111111
-0.795,-0.46,6013.888888888889
-0.81,-0.515,6016.666666666667
-0.825,-0.52,6019.444444444444
-0.83,-0.485,6022.222222222223
-0.85,-0.45,6025.0
-0.885,-0.45,6027.777777777777
-0.885,-0.51,6030.555555555556
-0.885,-0.56,6033.333333333333
-0.88,-0.565,6036.111111111111
-0.89,-0.51,6038.888888888889
-0.94,-0.47,6041.666666666667
-0.97,-0.465,6044.444444444444
-0.96,-0.505,6047.222222222223
-0.95,-0.575,6050.0
-0.945,-0.58,6052.777777777777
-0.935,-0.535,6055.555555555556
-0.925,-0.46,6058.333333333333
-0.95,-0.42,6061.111111111111
-0.935,-0.47,6063.888888888889
-0.94,-0.52,6066.666666666667
-0.92,-0.555,6069.444444444444
-0.925,-0.54,6072.222222222223
-0.97,-0.5,6075.0
-0.99,-0.505,6077.777777777777
-1.015,-0.54,6080.555555555556
-1.035,-0.575,6083.333333333333
-1.075,-0.58,6086.111111111111
-1.12,-0.54,6088.888888888889
-1.12,-0.485,6091.666666666667
-1.105,-0.43,6094.444444444444
-1.025,-0.435,6097.222222222223
-0.92,-0.425,6100.0
-0.755,-0.41,6102.777777777777
-0.585,-0.33,6105.555555555556
-0.415,-0.23,6108.333333333333
-0.26,-0.155,6111.111111111111
-0.105,-0.11,6113.888888888889
0.04,-0.14,6116.666666666667
0.205,-0.155,6119.444444444444
0.39,-0.135,6122.222222222223
0.53,-0.105,6125.0
0.645,-0.07,6127.777777777777
0.71,-0.115,6130.555555555556
0.735,-0.275,6133.333333333333
0.735,-0.445,6136.111111111111
0.705,-0.575,6138.888888888889
0.635,-0.565,6141.666666666667
0.555,-0.485,6144.444444444444
0.46,-0.405,6147.222222222223
0.325,-0.345,6150.0
0.125,-0.32,6152.777777777777
-0.1,-0.335,6155.555555555556
-0.37,-0.35,6158.333333333333
-0.6,-0.385,6161.111111111111
-0.765,-0.405,6163.888888888889
-0.86,-0.475,6166.666666666667
-0.865,-0.57,6169.444444444444
-0.84,-0.635,6172.222222222223
-0.8,-0.615,6175.0
-0.775,-0.55,6177.777777777777
-0.785,-0.48,6180.555555555556
-0.82,-0.445,6183.333333333333
-0.88,-0.465,6186.111111111111
-0.92,-0.53,6188.888888888889
-0.93,-0.545,6191.666666666667
-0.96,-0.515,6194.444444444444
-0.99,-0.465,6197.222222222223
-0.99,-0.465,6200.0
-1.015,-0.47,6202.777777777777
-1.0,-0.52,6205.555555555556
-0.99,-0.53,6208.333333333333
-1.005,-0.525,6211.111111111111
-1.01,-0.475,6213.888888888889
-1.01,-0.485,6216.666666666667
-1.015,-0.515,6219.444444444444
-1.0,-0.545,6222.222222222223
-0.96,-0.52,6225.0
-0.95,-0.455,6227.777777777777
-0.955,-0.405,6230.555555555556
-0.95,-0.435,6233.333333333333
-0.96,-0.485,6236.111111111111
-0.96,-0.54,6238.888888888889
-0.97,-0.54,6241.666666666667
-1.0,-0.49,6244.444444444444
-1.005,-0.44,6247.222222222223
-1.01,-0.44,6250.0
-0.995,-0.485,6252.777777777777
-0.98,-0.51,6255.555555555556
-0.94,-0.485,6258.333333333333
-0.955,-0.43,6261.111111111111
-0.95,-0.38,6263.888888888889
-0.97,-0.38,6266.666666666667
-0.98,-0.405,6269.444444444444
-0.96,-0.49,6272.222222222223
-0.96,-0.51,6275.0
-0.94,-0.45,6277.777777777777
-0.95,-0.415,6280.555555555556
-0.975,-0.385,6283.333333333333
-0.97,-0.42,6286.111111111111
-0.955,-0.455,6288.888888888889
-0.925,-0.46,6291.666666666667
-0.925,-0.41,6294.444444444444
-0.92,-0.335,6297.222222222223
-0.935,-0.295,6300.0
-0.935,-0.33,6302.777777777777
-0.94,-0.415,6305.555555555556
-0.925,-0.46,6308.333333333333
-0.935,-0.44,6311.111111111111
-0.945,-0.385,6313.888888888889
-0.95,-0.315,6316.666666666667
-0.94,-0.305,6319.444444444444
-0.93,-0.355,6322.222222222223
-0.915,-0.385,6325.0
-0.885,-0.375,6327.777777777777
-0.875,-0.315,6330.555555555556
-0.885,-0.275,6333.333333333333
-0.875,-0.27,6336.111111111111
-0.89,-0.35,6338.888888888889
-0.895,-0.39,6341.666666666667
-0.89,-0.41,6344.444444444444
-0.9,-0.37,6347.222222222223
-0.91,-0.31,6350.0
-0.91,-0.29,6352.777777777777
-0.895,-0.345,6355.555555555556
-0.885,-0.38,6358.333333333333
-0.845,-0.395,6361.111111111111
-0.83,-0.34,6363.888888888889
-0.845,-0.28,6366.666666666667
-0.85,-0.275,6369.444444444444
-0.85,-0.34,6372.222222222223
-0.855,-0.405,6375.0
-0.835,-0.455,6377.777777777777
-0.83,-0.415,6380.555555555556
-0.84,-0.355,6383.333333333333
-0.855,-0.325,6386.111111111111
-0.865,-0.335,6388.888888888889
-0.835,-0.39,6391.666666666667
-0.82,-0.425,6394.444444444444
-0.795,-0.415,6397.222222222223
-0.81,-0.365,6400.0
-0.825,-0.365,6402.777777777777
-0.83,-0.425,6405.555555555556
-0.82,-0.48,6408.333333333333
-0.805,-0.47,6411.111111111111
-0.84,-0.45,6413.888888888889
-0.85,-0.425,6416.666666666667
-0.85,-0.43,6419.444444444444
-0.84,-0.485,6422.222222222223
-0.82,-0.5,6425.0
-0.81,-0.46,6427.777777777777
-0.825,-0.41,6430.555555555556
-0.835,-0.415,6433.333333333333
-0.84,-0.45,6436.111111111111
-0.85,-0.51,6438.888888888889
-0.86,-0.535,6441.666666666667
-0.855,-0.5,6444.444444444444
-0.875,-0.465,6447.222222222223
-0.88,-0.46,6450.0
-0.88,-0.48,6452.777777777777
-0.86,-0.54,6455.555555555556
-0.845,-0.53,6458.333333333333
-0.845,-0.475,6461.111111111111
-0.855,-0.415,6463.888888888889
-0.865,-0.415,6466.666666666667
-0.865,-0.48,6469.444444444444
-0.865,-0.545,6472.222222222223
-0.86,-0.555,6475.0
-0.87,-0.525,6477.777777777777
-0.89,-0.48,6480.555555555556
-0.91,-0.46,6483.333333333333
-0.895,-0.51,6486.111111111111
-0.89,-0.545,6488.888888888889
-0.87,-0.515,6491.666666666667
-0.88,-0.47,6494.444444444444
-0.89,-0.435,6497.222222222223
-0.895,-0.47,6500.0
-0.915,-0.51,6502.777777777777
-0.9,-0.55,6505.555555555556
-0.925,-0.535,6508.333333333333
-0.935,-0.495,6511.111111111111
-0.95,-0.485,6513.888888888889
-0.96,-0.51,6516.666666666667
-0.95,-0.56,6519.444444444444
-0.96,-0.585,6522.222222222223
-0.94,-0.52,6525.0
-0.94,-0.47,6527.777777777777
-0.94,-0.45,6530.555555555556
-0.945,-0.475,6533.333333333333
-0.945,-0.54,6536.111111111111
-0.95,-0.57,6538.888888888889
-0.945,-0.56,6541.666666666667
-0.96,-0.505,6544.444444444444
-0.99,-0.49,6547.222222222223
-0.98,-0.51,6550.0
-0.97,-0.56,6552.777777777777
-0.95,-0.58,6555.555555555556
-0.935,-0.55,6558.333333333333
-0.935,-0.47,6561.111111111111
-0.935,-0.45,6563.888888888889
-0.955,-0.46,6566.666666666667
-0.955,-0.525,6569.444444444444
-0.95,-0.575,6572.222222222223
-0.935,-0.565,6575.0
-0.94,-0.51,6577.777777777777
-0.935,-0.475,6580.555555555556
-0.94,-0.5,6583.333333333333
-0.945,-0.535,6586.111111111111
-0.905,-0.555,6588.888888888889
-0.9,-0.525,6591.666666666667
-0.9,-0.475,6594.444444444444
-0.89,-0.465,6597.222222222223
-0.875,-0.495,6600.0
-0.87,-0.54,6602.777777777777
-0.85,-0.545,6605.555555555556
-0.85,-0.52,6608.333333333333
-0.85,-0.505,6611.111111111111
-0.855,-0.52,6613.888888888889
-0.855,-0.545,6616.666666666667
-0.83,-0.54,6619.444444444444
-0.8,-0.475,6622.222222222223
-0.775,-0.435,6625.0
-0.75,-0.455,6627.777777777777
-0.73,-0.485,6630.555555555556
-0.675,-0.505,6633.333333333333
-0.67,-0.455,6636.111111111111
-0.67,-0.4,6638.888888888889
-0.695,-0.38,6641.666666666667
-0.685,-0.435,6644.444444444444
-0.7,-0.47,6647.222222222223
-0.68,-0.515,6650.0
-0.67,-0.455,6652.777777777777
-0.68,-0.39,6655.555555555556
-0.7,-0.36,6658.333333333333
-0.69,-0.385,6661.111111111111
-0.705,-0.44,6663.888888888889
-0.705,-0.475,6666.666666666667
-0.71,-0.435,6669.444444444444
-0.72,-0.405,6672.222222222223
-0.745,-0.405,6675.0
-0.755,-0.455,6677.777777777777
-0.755,-0.51,6680.555555555556
-0.755,-0.52,6683.333333333333
-0.78,-0.49,6686.111111111111
-0.81,-0.45,6688.888888888889
-0.835,-0.47,6691.666666666667
-0.84,-0.51,6694.444444444444
-0.835,-0.55,6697.222222222223
-0.835,-0.565,6700.0
-0.845,-0.505,6702.777777777777
-0.86,-0.445,6705.555555555556
-0.89,-0.44,6708.333333333333
-0.905,-0.495,6711.111111111111
-0.915,-0.565,6713.888888888889
-0.91,-0.6,6716.666666666667
-0.905,-0.545,6719.444444444444
-0.92,-0.49,6722.222222222223
-0.92,-0.43,6725.0
-0.9,-0.455,6727.777777777777
-0.895,-0.51,6730.555555555556
-0.89,-0.55,6733.333333333333
-0.875,-0.535,6736.111111111111
-0.895,-0.485,6738.888888888889
-0.92,-0.47,6741.666666666667
-0.945,-0.495,6744.444444444444
-0.965,-0.555,6747.222222222223
-0.985,-0.585,6750.0
-1.005,-0.565,6752.777777777777
-1.055,-0.505,6755.555555555556
-1.1,-0.465,6758.333333333333
-1.105,-0.475,6761.111111111111
-1.06,-0.515,6763.888888888889
-0.985,-0.495,6766.666666666667
-0.84,-0.41,6769.444444444444
-0.69,-0.285,6772.222222222223
-0.5,-0.21,6775.0
-0.3,-0.19,6777.777777777777
-0.105,-0.185,6780.555555555556
0.105,-0.175,6783.333333333333
0.295,-0.12,6786.111111111111
0.455,-0.045,6788.888888888889
0.62,-0.055,6791.666666666667
0.705,-0.125,6794.444444444444
0.775,-0.28,6797.222222222223
0.795,-0.4,6800.0
0.75,-0.475,6802.777777777777
0.685,-0.475,6805.555555555556
0.575,-0.465,6808.333333333333
0.455,-0.44,6811.111111111111
0.275,-0.39,6813.888888888889
0.005,-0.32,6816.666666666667
-0.31,-0.29,6819.444444444444
-0.58,-0.34,6822.222222222223
-0.775,-0.475,6825.0
-0.865,-0.585,6827.777777777777
-0.845,-0.615,6830.555555555556
-0.815,-0.6,6833.333333333333
-0.79,-0.52,6836.111111111111
-0.77,-0.475,6838.888888888889
-0.78,-0.505,6841.666666666667
-0.8,-0.545,6844.444444444444
-0.845,-0.59,6847.222222222223
-0.885,-0.555,6850.0
-0.935,-0.515,6852.777777777777
-0.975,-0.475,6855.555555555556
-0.975,-0.505,6858.333333333333
-0.97,-0.54,6861.111111111111
-0.945,-0.55,6863.888888888889
-0.96,-0.51,6866.666666666667
-0.965,-0.455,6869.444444444444
-0.97,-0.445,6872.222222222223
-0.985,-0.485,6875.0
-0.98,-0.55,6877.777777777777
-0.985,-0.57,6880.555555555556
-0.975,-0.535,6883.333333333333
-0.965,-0.47,6886.111111111111
-0.96,-0.425,6888.888888888889
-0.96,-0.44,6891.666666666667
-0.94,-0.485,6894.444444444444
-0.93,-0.495,6897.222222222223
-0.92,-0.475,6900.0
-0.92,-0.425,6902.777777777777
-0.945,-0.395,6905.555555555556
-0.955,-0.45,6908.333333333333
-0.965,-0.51,6911.111111111111
-0.95,-0.52,6913.888888888889
-0.95,-0.495,6916.666666666667
-0.955,-0.45,6919.444444444444
-0.945,-0.39,6922.222222222223
-0.95,-0.42,6925.0
-0.92,-0.455,6927.777777777777
-0.905,-0.475,6930.555555555556
-0.895,-0.445,6933.333333333333
-0.9,-0.405,6936.111111111111
-0.92,-0.4,6938.888888888889
-0.94,-0.415,6941.666666666667
-0.945,-0.47,6944.444444444444
-0.935,-0.485,6947.222222222223
-0.92,-0.435,6950.0
-0.92,-0.375,6952.777777777777
-0.93,-0.35,6955.555555555556
-0.935,-0.355,6958.333333333333
-0.925,-0.395,6961.111111111111
-0.9,-0.42,6963.888888888889
-0.89,-0.375,6966.666666666667
-0.89,-0.325,6969.444444444444
-0.895,-0.3,6972.222222222223
-0.915,-0.345,6975.0
-0.9,-0.4,6977.777777777777
-0.895,-0.415,6980.555555555556
-0.89,-0.39,6983.333333333333
-0.9,-0.335,6986.111111111111
-0.905,-0.3,6988.888888888889
-0.89,-0.33,6991.666666666667
-0.87,-0.365,6994.444444444444
-0.85,-0.36,6997.222222222223
-0.845,-0.33,7000.0
-0.86,-0.295,7002.777777777777
-0.87,-0.295,7005.555555555556
-0.885,-0.335,7008.333333333333
-0.85,-0.4,7011.111111111111
-0.855,-0.405,7013.888888888889
-0.86,-0.355,7016.666666666667
-0.85,-0.335,7019.444444444444
-0.86,-0.33,7022.222222222223
-0.85,-0.38,7025.0
-0.85,-0.4,7027.777777777777
-0.815,-0.38,7030.555555555556
-0.825,-0.33,7033.333333333333
-0.83,-0.34,7036.111111111111
-0.835,-0.375,7038.888888888889
-0.84,-0.445,7041.666666666667
-0.825,-0.455,7044.444444444444
-0.815,-0.425,7047.222222222223
-0.835,-0.395,7050.0
-0.825,-0.38,7052.777777777777
-0.84,-0.395,7055.555555555556
-0.815,-0.465,7058.333333333333
-0.8,-0.495,7061.111111111111
-0.775,-0.47,7063.888888888889
-0.79,-0.41,7066.666666666667
-0.81,-0.375,7069.444444444444
-0.83,-0.41,7072.222222222223
-0.86,-0.485,7075.0
-0.84,-0.565,7077.777777777777
-0.815,-0.58,7080.555555555556
-0.82,-0.51,7083.333333333333
-0.86,-0.445,7086.111111111111
-0.855,-0.41,7088.888888888889
-0.85,-0.45,7091.666666666667
-0.84,-0.515,7094.444444444444
-0.81,-0.51,7097.222222222223
-0.795,-0.49,7100.0
-0.825,-0.44,7102.777777777777
-0.845,-0.43,7105.555555555556
-0.865,-0.475,7108.333333333333
-0.86,-0.545,7111.111111111111
-0.84,-0.59,7113.888888888889
-0.85,-0.57,7116.666666666667
-0.845,-0.5,7119.444444444444
-0.86,-0.455,7122.222222222223
-0.865,-0.445,7125.0
-0.85,-0.505,7127.777777777777
-0.83,-0.545,7130.555555555556
-0.815,-0.535,7133.333333333333
-0.825,-0.495,7136.111111111111
-0.855,-0.455,7138.888888888889
-0.875,-0.46,7141.666666666667
-0.885,-0.535,7144.444444444444
-0.885,-0.565,7147.222222222223
-0.88,-0.595,7150.0
-0.88,-0.54,7152.777777777777
-0.87,-0.475,7155.555555555556
-0.885,-0.45,7158.333333333333
-0.885,-0.49,7161.111111111111
-0.875,-0.53,7163.888888888889
-0.865,-0.555,7166.666666666667
-0.87,-0.52,7169.444444444444
-0.885,-0.48,7172.222222222223
-0.91,-0.465,7175.0
-0.925,-0.49,7177.777777777777
-0.935,-0.555,7180.555555555556
-0.945,-0.61,7183.333333333333
-0.94,-0.575,7186.111111111111
-0.96,-0.515,7188.888888888889
-0.955,-0.46,7191.666666666667
-0.95,-0.465,7194.444444444444
-0.935,-0.515,7197.222222222223
-0.935,-0.565,7200.0
-0.93,-0.575,7202.777777777777
-0.94,-0.535,7205.555555555556
-0.975,-0.495,7208.333333333333
-0.995,-0.505,7211.111111111111
-0.98,-0.555,7213.888888888889
-0.975,-0.6,7216.666666666667
-0.96,-0.575,7219.444444444444
-0.945,-0.52,7222.222222222223
-0.955,-0.485,7225.0
-0.945,-0.49,7227.777777777777
-0.94,-0.52,7230.555555555556
-0.93,-0.565,7233.333333333333
-0.905,-0.545,7236.111111111111
-0.915,-0.49,7238.888888888889
-0.94,-0.47,7241.666666666667
-0.935,-0.52,7244.444444444444
-0.94,-0.57,7247.222222222223
-0.925,-0.59,7250.0
-0.92,-0.57,7252.777777777777
-0.91,-0.505,7255.555555555556
-0.915,-0.44,7258.333333333333
-0.935,-0.455,7261.111111111111
-0.92,-0.51,7263.888888888889
-0.9,-0.575,7266.666666666667
-0.875,-0.575,7269.444444444444
-0.88,-0.54,7272.222222222223
-0.865,-0.485,7275.0
-0.885,-0.485,7277.777777777777
-0.885,-0.555,7280.555555555556
-0.88,-0.58,7283.333333333333
-0.875,-0.595,7286.111111111111
-0.86,-0.54,7288.888888888889
-0.845,-0.475,7291.666666666667
-0.83,-0.485,7294.444444444444
-0.815,-0.51,7297.222222222223
-0.78,-0.54,7300.0
-0.755,-0.54,7302.777777777777
-0.71,-0.49,7305.555555555556
-0.72,-0.465,7308.333333333333
-0.735,-0.44,7311.111111111111
-0.73,-0.495,7313.888888888889
-0.73,-0.545,7316.666666666667
-0.695,-0.515,7319.444444444444
-0.68,-0.46,7322.222222222223
-0.69,-0.39,7325.0
-0.7,-0.375,7327.777777777777
-0.69,-0.415,7330.555555555556
-0.665,-0.48,7333.333333333333
-0.67,-0.495,7336.111111111111
-0.7,-0.47,7338.888888888889
-0.725,-0.435,7341.666666666667
-0.77,-0.44,7344.444444444444
-0.77,-0.46,7347.222222222223
-0.76,-0.52,7350.0
-0.755,-0.525,7352.777777777777
-0.765,-0.47,7355.555555555556
-0.75,-0.425,7358.333333333333
-0.775,-0.445,7361.111111111111
-0.8,-0.49,7363.888888888889
-0.825,-0.555,7366.666666666667
-0.845,-0.565,7369.444444444444
-0.86,-0.535,7372.222222222223
-0.88,-0.505,7375.0
-0.91,-0.5,7377.777777777777
-0.91,-0.54,7380.555555555556
-0.915,-0.6,7383.333333333333
-0.905,-0.615,7386.111111111111
-0.905,-0.55,7388.888888888889
-0.91,-0.49,7391.666666666667
-0.94,-0.455,7394.444444444444
-0.94,-0.5,7397.222222222223
-0.925,-0.575,7400.0
-0.915,-0.605,7402.777777777777
-0.925,-0.58,7405.555555555556
-0.925,-0.54,7408.333333333333
-0.94,-0.535,7411.111111111111
-0.94,-0.58,7413.888888888889
-0.95,-0.61,7416.666666666667
-0.945,-0.62,7419.444444444444
-0.945,-0.57,7422.222222222223
-0.98,-0.53,7425.0
-1.015,-0.53,7427.777777777777
-1.04,-0.56,7430.555555555556
-1.08,-0.61,7433.333333333333
-1.095,-0.595,7436.111111111111
-1.08,-0.535,7438.888888888889
-1.02,-0.465,7441.666666666667
-0.92,-0.425,7444.444444444444
-0.765,-0.425,7447.222222222223
-0.56,-0.405,7450.0
-0.35,-0.35,7452.777777777777
-0.175,-0.245,7455.555555555556
0.015,-0.135,7458.333333333333
0.175,-0.085,7461.111111111111
0.315,-0.105,7463.888888888889
0.475,-0.14,7466.666666666667
0.605,-0.195,7469.444444444444
0.7,-0.225,7472.222222222223
0.76,-0.27,7475.0
0.75,-0.335,7477.777777777777
0.725,-0.47,7480.555555555556
0.675,-0.6,7483.333333333333
0.645,-0.62,7486.111111111111
0.565,-0.56,7488.888888888889
0.47,-0.425,7491.666666666667
0.27,-0.3,7494.444444444444
-0.005,-0.275,7497.222222222223
-0.31,-0.37,7500.0
-0.555,-0.48,7502.777777777777
-0.73,-0.55,7505.555555555556
-0.85,-0.57,7508.333333333333
-0.905,-0.565,7511.111111111111
-0.865,-0.605,7513.888888888889
-0.83,-0.63,7516.666666666667
-0.78,-0.63,7519.444444444444
-0.765,-0.585,7522.222222222223
-0.77,-0.505,7525.0
-0.83,-0.465,7527.777777777777
-0.905,-0.45,7530.555555555556
-0.925,-0.52,7533.333333333333
-0.95,-0.595,7536.111111111111
-0.955,-0.605,7538.888888888889
-0.975,-0.56,7541.666666666667
-1.01,-0.525,7544.444444444444
-1.02,-0.51,7547.222222222223
-1.03,-0.54,7550.0
-1.015,-0.595,7552.777777777777
-1.005,-0.59,7555.555555555556
-1.0,-0.53,7558.333333333333
-0.985,-0.47,7561.111111111111
-0.99,-0.435,7563.888888888889
-0.99,-0.475,7566.666666666667
-0.98,-0.545,7569.444444444444
-0.97,-0.575,7572.222222222223
-0.98,-0.53,7575.0
-0.985,-0.465,7577.777777777777
-0.99,-0.445,7580.555555555556
-1.005,-0.495,7583.333333333333
-0.985,-0.56,7586.111111111111
-0.98,-0.575,7588.888888888889
-0.965,-0.53,7591.666666666667
-0.945,-0.445,7594.444444444444
-0.97,-0.42,7597.222222222223
-0.97,-0.44,7600.0
-0.96,-0.495,7602.777777777777
-0.945,-0.525,7605.555555555556
-0.965,-0.495,7608.333333333333
-0.96,-0.455,7611.111111111111
-0.985,-0.425,7613.888888888889
-0.995,-0.48,7616.666666666667
-0.975,-0.535,7619.444444444444
-0.96,-0.5,7622.222222222223
-0.94,-0.465,7625.0
-0.945,-0.395,7627.777777777777
-0.935,-0.39,7630.555555555556
-0.935,-0.425,7633.333333333333
-0.925,-0.465,7636.111111111111
-0.905,-0.445,7638.888888888889
-0.94,-0.415,7641.666666666667
-0.95,-0.38,7644.444444444444
-0.96,-0.43,7647.222222222223
-0.975,-0.46,7650.0
-0.95,-0.465,7652.777777777777
-0.935,-0.43,7655.555555555556
-0.93,-0.365,7658.333333333333
-0.92,-0.34,7661.111111111111
-0.92,-0.345,7663.888888888889
-0.91,-0.4,7666.666666666667
-0.88,-0.44,7669.444444444444
-0.87,-0.405,7672.222222222223
-0.865,-0.365,7675.0
-0.905,-0.34,7677.777777777777
-0.915,-0.355,7680.555555555556
-0.925,-0.43,7683.333333333333
-0.92,-0.465,7686.111111111111
-0.89,-0.445,7688.888888888889
-0.885,-0.395,7691.666666666667
-0.875,-0.345,7694.444444444444
-0.885,-0.345,7697.222222222223
-0.87,-0.395,7700.0
-0.855,-0.445,7702.777777777777
-0.845,-0.42,7705.555555555556
-0.865,-0.39,7708.333333333333
-0.89,-0.375,7711.111111111111
-0.89,-0.41,7713.888888888889
-0.88,-0.44,7716.666666666667
-0.865,-0.495,7719.444444444444
-0.86,-0.47,7722.222222222223
-0.855,-0.395,7725.0
-0.85,-0.36,7727.777777777777
-0.84,-0.39,7730.555555555556
-0.83,-0.455,7733.333333333333
-0.83,-0.515,7736.111111111111
-0.815,-0.505,7738.888888888889
-0.82,-0.48,7741.666666666667
-0.84,-0.435,7744.444444444444
-0.86,-0.45,7747.222222222223
-0.865,-0.52,7750.0
-0.865,-0.57,7752.777777777777
-0.84,-0.57,7755.555555555556
-0.825,-0.52,7758.333333333333
-0.825,-0.455,7761.111111111111
-0.83,-0.445,7763.888888888889
-0.84,-0.5,7766.666666666667
-0.85,-0.56,7769.444444444444
-0.84,-0.56,7772.222222222223
-0.85,-0.54,7775.0
-0.865,-0.5,7777.777777777777
-0.88,-0.5,7780.555555555556
-0.885,-0.55,7783.333333333333
-0.88,-0.61,7786.111111111111
-0.865,-0.595,7788.888888888889
-0.875,-0.545,7791.666666666667
-0.88,-0.495,7794.444444444444
-0.89,-0.485,7797.222222222223
-0.87,-0.555,7800.0
-0.87,-0.59,7802.777777777777
-0.855,-0.6,7805.555555555556
-0.865,-0.545,7808.333333333333
-0.885,-0.505,7811.111111111111
-0.9,-0.53,7813.888888888889
-0.91,-0.58,7816.666666666667
-0.9,-0.63,7819.444444444444
-0.88,-0.605,7822.222222222223
-0.905,-0.54,7825.0
-0.905,-0.495,7827.777777777777
-0.915,-0.53,7830.555555555556
-0.9,-0.57,7833.333333333333
-0.89,-0.6,7836.111111111111
-0.91,-0.575,7838.888888888889
-0.925,-0.55,7841.666666666667
-0.94,-0.55,7844.444444444444
-0.955,-0.595,7847.222222222223
-0.95,-0.64,7850.0
-0.96,-0.635,7852.777777777777
-0.94,-0.575,7855.555555555556
-0.96,-0.52,7858.333333333333
-0.965,-0.51,7861.111111111111
-0.985,-0.55,7863.888888888889
-0.95,-0.61,7866.666666666667
-0.95,-0.6,7869.444444444444
-0.955,-0.59,7872.222222222223
-0.975,-0.535,7875.0
-0.985,-0.535,7877.777777777777
-1.0,-0.58,7880.555555555556
-1.0,-0.64,7883.333333333333
-0.985,-0.675,7886.111111111111
-0.985,-0.62,7888.888888888889
-0.97,-0.55,7891.666666666667
-0.985,-0.515,7894.444444444444
-0.99,-0.55,7897.222222222223
-0.975,-0.6,7900.0
-0.97,-0.62,7902.777777777777
-0.96,-0.6,7905.555555555556
-0.965,-0.555,7908.333333333333
-0.98,-0.545,7911.111111111111
-1.0,-0.585,7913.888888888889
-1.01,-0.63,7916.666666666667
-0.98,-0.665,7919.444444444444
-0.975,-0.625,7922.222222222223
-0.965,-0.565,7925.0
-0.955,-0.51,7927.777777777777
-0.965,-0.525,7930.555555555556
-0.95,-0.58,7933.333333333333
-0.925,-0.635,7936.111111111111
-0.92,-0.625,7938.888888888889
-0.925,-0.565,7941.666666666667
-0.94,-0.53,7944.444444444444
-0.955,-0.55,7947.222222222223
-0.94,-0.615,7950.0
-0.915,-0.63,7952.777777777777
-0.895,-0.61,7955.555555555556
-0.88,-0.55,7958.333333333333
-0.875,-0.51,7961.111111111111
-0.865,-0.53,7963.888888888889
-0.885,-0.585,7966.666666666667
-0.855,-0.605,7969.444444444444
-0.84,-0.58,7972.222222222223
-0.825,-0.54,7975.0
-0.83,-0.52,7977.777777777777
-0.825,-0.555,7980.555555555556
-0.8,-0.605,7983.333333333333
-0.765,-0.615,7986.111111111111
-0.74,-0.58,7988.888888888889
-0.72,-0.5,7991.666666666667
-0.7,-0.45,7994.444444444444
-0.7,-0.455,7997.222222222223
-0.695,-0.505,8000.0
-0.68,-0.525,8002.777777777777
-0.675,-0.505,8005.555555555556
-0.71,-0.46,8008.333333333333
-0.74,-0.47,8011.111111111111
-0.77,-0.52,8013.888888888889
-0.78,-0.555,8016.666666666667
-0.75,-0.56,8019.444444444444
-0.745,-0.505,8022.222222222223
-0.755,-0.48,8025.0
-0.77,-0.49,8027.777777777777
-0.75,-0.53,8030.555555555556
-0.745,-0.53,8033.333333333333
-0.77,-0.515,8036.111111111111
-0.81,-0.495,8038.888888888889
-0.85,-0.515,8041.666666666667
-0.875,-0.6,8044.444444444444
-0.88,-0.65,8047.222222222223
-0.89,-0.635,8050.0
-0.91,-0.585,8052.777777777777
-0.925,-0.535,8055.555555555556
-0.93,-0.535,8058.333333333333
-0.905,-0.575,8061.111111111111
-0.905,-0.605,8063.888888888889
-0.89,-0.595,8066.666666666667
-0.91,-0.54,8069.444444444444
-0.92,-0.515,8072.222222222223
-0.95,-0.535,8075.0
-0.96,-0.595,8077.777777777777
-0.95,-0.64,8080.555555555556
-0.94,-0.635,8083.333333333333
-0.94,-0.6,8086.111111111111
-0.96,-0.54,8088.888888888889
-0.97,-0.55,8091.666666666667
-0.96,-0.585,8094.444444444444
-0.945,-0.62,8097.222222222223
-0.96,-0.61,8100.0
-0.995,-0.565,8102.777777777777
-1.045,-0.55,8105.555555555556
-1.1,-0.555,8108.333333333333
-1.155,-0.615,8111.111111111111
-1.145,-0.645,8113.888888888889
-1.1,-0.61,8116.666666666667
-1.025,-0.515,8119.444444444444
-0.895,-0.41,8122.222222222223
-0.745,-0.32,8125.0
-0.565,-0.31,8127.777777777777
-0.34,-0.315,8130.555555555556
-0.14,-0.275,8133.333333333333
0.055,-0.175,8136.111111111111
0.22,-0.095,8138.888888888889
0.36,-0.085,8141.666666666667
0.485,-0.125,8144.444444444444
0.615,-0.235,8147.222222222223
0.715,-0.335,8150.0
0.76,-0.39,8152.777777777777
0.75,-0.435,8155.555555555556
0.71,-0.51,8158.333333333333
0.665,-0.565,8161.111111111111
0.605,-0.585,8163.888888888889
0.535,-0.535,8166.666666666667
0.39,-0.405,8169.444444444444
0.15,-0.29,8172.222222222223
-0.15,-0.28,8175.0
-0.45,-0.395,8177.777777777777
-0.68,-0.555,8180.555555555556
-0.83,-0.67,8183.333333333333
-0.875,-0.695,8186.111111111111
-0.87,-0.635,8188.888888888889
-0.83,-0.545,8191.666666666667
-0.795,-0.53,8194.444444444445
-0.765,-0.55,8197.222222222223
-0.75,-0.585,8200.0
-0.785,-0.605,8202.777777777777
-0.835,-0.57,8205.555555555555
-0.905,-0.535,8208.333333333334
-0.96,-0.54,8211.111111111111
-0.99,-0.595,8213.888888888889
-1.01,-0.63,8216.666666666666
-1.01,-0.64,8219.444444444445
-1.01,-0.585,8222.222222222223
-1.005,-0.52,8225.0
-1.02,-0.52,8227.777777777777
-1.01,-0.56,8230.555555555555
-0.995,-0.59,8233.333333333334
-0.985,-0.555,8236.111111111111
-0.98,-0.515,8238.888888888889
-0.99,-0.485,8241.666666666666
-0.99,-0.515,8244.444444444445
-1.005,-0.59,8247.222222222223
-1.0,-0.635,8250.0
-1.005,-0.615,8252.777777777777
-1.005,-0.55,8255.555555555555
-1.0,-0.485,8258.333333333334
-1.01,-0.5,8261.111111111111
-1.01,-0.54,8263.888888888889
-0.99,-0.58,8266.666666666666
-0.97,-0.57,8269.444444444445
-0.965,-0.515,8272.222222222223
-0.98,-0.48,8275.0
-1.0,-0.48,8277.777777777777
-1.0,-0.53,8280.555555555555
-0.985,-0.585,8283.333333333334
-0.985,-0.595,8286.111111111111
-0.965,-0.535,8288.888888888889
-0.96,-0.465,8291.666666666666
-0.975,-0.43,8294.444444444445
-0.97,-0.47,8297.222222222223
-0.965,-0.505,8300.0
-0.955,-0.545,8302.777777777777
-0.945,-0.52,8305.555555555555
-0.955,-0.45,8308.333333333334
-0.975,-0.41,8311.111111111111
-0.975,-0.45,8313.888888888889
-0.97,-0.495,8316.666666666666
-0.96,-0.535,8319.444444444445
-0.95,-0.515,8322.222222222223
-0.94,-0.43,8325.0
-0.95,-0.375,8327.777777777777
-0.95,-0.36,8330.555555555555
-0.935,-0.41,8333.333333333334
-0.905,-0.48,8336.111111111111
-0.905,-0.465,8338.888888888889
-0.905,-0.41,8341.666666666666
-0.92,-0.38,8344.444444444445
-0.94,-0.375,8347.222222222223
-0.925,-0.42,8350.0
-0.925,-0.475,8352.777777777777
-0.9,-0.45,8355.555555555555
-0.905,-0.385,8358.333333333334
-0.91,-0.335,8361.111111111111
-0.9,-0.34,8363.888888888889
-0.895,-0.4,8366.666666666666
-0.88,-0.43,8369.444444444445
-0.885,-0.44,8372.222222222223
-0.89,-0.4,8375.0
-0.91,-0.385,8377.777777777777
-0.92,-0.41,8380.555555555555
-0.895,-0.47,8383.333333333334
-0.9,-0.5,8386.111111111111
-0.87,-0.48,8388.888888888889
-0.865,-0.4,8391.666666666666
-0.87,-0.37,8394.444444444445
-0.885,-0.38,8397.222222222223
-0.855,-0.43,8400.0
-0.84,-0.495,8402.777777777777
-0.84,-0.51,8405.555555555555
-0.845,-0.45,8408.333333333334
-0.855,-0.425,8411.111111111111
-0.89,-0.45,8413.888888888889
-0.885,-0.51,8416.666666666666
-0.875,-0.545,8419.444444444445
-0.875,-0.54,8422.222222222223
-0.86,-0.49,8425.0
-0.86,-0.435,8427.777777777777
-0.86,-0.435,8430.555555555555
-0.845,-0.495,8433.333333333334
-0.85,-0.56,8436.111111111111
-0.855,-0.535,8438.888888888889
-0.85,-0.52,8441.666666666666
-0.88,-0.485,8444.444444444445
-0.89,-0.5,8447.222222222223
-0.905,-0.565,8450.0
-0.89,-0.595,8452.777777777777
-0.89,-0.575,8455.555555555555
-0.875,-0.535,8458.333333333334
-0.885,-0.5,8461.111111111111
-0.895,-0.5,8463.888888888889
-0.89,-0.56,8466.666666666666
-0.865,-0.59,8469.444444444445
-0.89,-0.58,8472.222222222223
-0.9,-0.545,8475.0
-0.9,-0.495,8477.777777777777
-0.915,-0.52,8480.555555555555
-0.91,-0.585,8483.333333333334
-0.91,-0.635,8486.111111111111
-0.905,-0.635,8488.888888888889
-0.88,-0.555,8491.666666666666
-0.895,-0.505,8494.444444444445
-0.925,-0.475,8497.222222222223
-0.93,-0.515,8500.0
-0.925,-0.575,8502.777777777777
-0.915,-0.62,8505.555555555555
-0.9,-0.605,8508.333333333334
-0.915,-0.555,8511.111111111111
-0.935,-0.555,8513.888888888889
-0.93,-0.58,8516.666666666666
-0.94,-0.63,8519.444444444445
-0.93,-0.625,8522.222222222223
-0.93,-0.58,8525.0
-0.93,-0.525,8527.777777777777
-0.945,-0.485,8530.555555555555
-0.95,-0.535,8533.333333333334
-0.955,-0.605,8536.111111111111
-0.95,-0.64,8538.888888888889
-0.955,-0.615,8541.666666666666
-0.975,-0.57,8544.444444444445
-0.995,-0.555,8547.222222222223
-1.005,-0.6,8550.0
-1.0,-0.64,8552.777777777777
-0.99,-0.66,8555.555555555555
-0.98,-0.625,8558.333333333334
-0.99,-0.55,8561.111111111111
-0.99,-0.53,8563.888888888889
-0.975,-0.575,8566.666666666666
-0.985,-0.625,8569.444444444445
-0.995,-0.64,8572.222222222223
-0.975,-0.61,8575.0
-1.0,-0.57,8577.777777777777
-1.015,-0.565,8580.555555555555
-1.015,-0.63,8583.333333333334
-1.0,-0.665,8586.111111111111
-0.97,-0.645,8588.888888888889
-0.955,-0.6,8591.666666666666
-0.955,-0.565,8594.444444444445
-0.965,-0.545,8597.222222222223
-0.96,-0.595,8600.0
-0.95,-0.66,8602.777777777777
-0.935,-0.66,8605.555555555555
-0.93,-0.63,8608.333333333334
-0.965,-0.585,8611.111111111111
-0.975,-0.57,8613.888888888889
-0.975,-0.62,8616.666666666666
-0.97,-0.67,8619.444444444445
-0.965,-0.67,8622.222222222223
-0.955,-0.595,8625.0
-0.95,-0.56,8627.777777777777
-0.945,-0.555,8630.555555555555
-0.93,-0.58,8633.333333333334
-0.92,-0.62,8636.111111111111
-0.895,-0.62,8638.888888888889
-0.905,-0.59,8641.666666666666
-0.915,-0.565,8644.444444444445
-0.915,-0.595,8647.222222222223
-0.91,-0.635,8650.0
-0.905,-0.655,8652.777777777777
-0.895,-0.615,8655.555555555555
-0.85,-0.54,8658.333333333334
-0.83,-0.52,8661.111111111111
-0.805,-0.545,8663.888888888889
-0.775,-0.575,8666.666666666666
-0.74,-0.62,8669.444444444445
-0.72,-0.58,8672.222222222223
-0.73,-0.515,8675.0
-0.74,-0.46,8677.777777777777
-0.73,-0.49,8680.555555555555
-0.745,-0.545,8683.333333333334
-0.725,-0.575,8686.111111111111
-0.71,-0.57,8688.888888888889
-0.69,-0.505,8691.666666666666
-0.695,-0.46,8694.444444444445
-0.725,-0.43,8697.222222222223
-0.72,-0.475,8700.0
-0.72,-0.545,8702.777777777777
-0.725,-0.575,8705.555555555555
-0.735,-0.535,8708.333333333334
-0.76,-0.475,8711.111111111111
-0.79,-0.48,8713.888888888889
-0.8,-0.515,8716.666666666666
-0.79,-0.58,8719.444444444445
-0.79,-0.63,8722.222222222223
-0.78,-0.585,8725.0
-0.795,-0.515,8727.777777777777
-0.835,-0.47,8730.555555555555
-0.845,-0.495,8733.333333333334
-0.865,-0.57,8736.111111111111
-0.875,-0.66,8738.888888888889
-0.87,-0.67,8741.666666666666
-0.885,-0.625,8744.444444444445
-0.915,-0.56,8747.222222222223
-0.94,-0.55,8750.0
-0.95,-0.585,8752.777777777777
-0.94,-0.645,8755.555555555555
-0.92,-0.63,8758.333333333334
-0.915,-0.585,8761.111111111111
-0.93,-0.545,8763.888888888889
-0.945,-0.525,8766.666666666666
-0.94,-0.585,8769.444444444445
-0.945,-0.635,8772.222222222223
-0.94,-0.64,8775.0
-0.94,-0.62,8777.777777777777
-0.96,-0.58,8780.555555555555
-0.96,-0.565,8783.333333333334
-1.0,-0.625,8786.111111111111
-0.995,-0.665,8788.888888888889
-1.0,-0.66,8791.666666666666
-1.005,-0.59,8794.444444444445
-1.035,-0.54,8797.222222222223
-1.09,-0.515,8800.0
-1.145,-0.56,8802.777777777777
-1.175,-0.635,8805.555555555555
-1.15,-0.66,8808.333333333334
-1.07,-0.61,8811.111111111111
-0.965,-0.5,8813.888888888889
-0.835,-0.395,8816.666666666666
-0.665,-0.345,8819.444444444445
-0.46,-0.33,8822.222222222223
-0.22,-0.31,8825.0
-0.025,-0.235,8827.777777777777
0.165,-0.125,8830.555555555555
0.31,-0.09,8833.333333333334
0.465,-0.12,8836.111111111111
0.59,-0.22,8838.888888888889
0.69,-0.33,8841.666666666666
0.73,-0.42,8844.444444444445
0.725,-0.495,8847.222222222223
0.685,-0.545,8850.0
0.605,-0.59,8852.777777777777
0.53,-0.595,8855.555555555555
0.425,-0.5,8858.333333333334
0.24,-0.385,8861.111111111111
-0.04,-0.285,8863.888888888889
-0.335,-0.33,8866.666666666666
-0.59,-0.47,8869.444444444445
-0.785,-0.605,8872.222222222223
-0.87,-0.68,8875.0
-0.895,-0.68,8877.777777777777
-0.875,-0.635,8880.555555555555
-0.835,-0.595,8883.333333333334
-0.82,-0.61,8886.111111111111
-0.825,-0.64,8888.888888888889
-0.85,-0.63,8891.666666666666
-0.885,-0.565,8894.444444444445
-0.93,-0.54,8897.222222222223
-0.97,-0.535,8900.0
-0.99,-0.59,8902.777777777777
-1.01,-0.645,8905.555555555555
-1.005,-0.645,8908.333333333334
-1.01,-0.615,8911.111111111111
-1.02,-0.565,8913.888888888889
-1.05,-0.565,8916.666666666666
-1.04,-0.615,8919.444444444445
-1.03,-0.655,8922.222222222223
-1.02,-0.645,8925.0
-0.995,-0.575,8927.777777777777
-1.0,-0.5,8930.555555555555
-1.0,-0.485,8933.333333333334
-1.01,-0.53,8936.111111111111
-1.01,-0.6,8938.888888888889
-1.0,-0.64,8941.666666666666
-0.995,-0.615,8944.444444444445
-1.025,-0.575,8947.222222222223
-1.04,-0.535,8950.0
-1.035,-0.55,8952.777777777777
-1.03,-0.6,8955.555555555555
-1.0,-0.62,8958.333333333334
-0.985,-0.585,8961.111111111111
-0.99,-0.515,8963.888888888889
-0.995,-0.48,8966.666666666666
-1.01,-0.49,8969.444444444445
-0.995,-0.56,8972.222222222223
-0.99,-0.59,8975.0
-0.985,-0.575,8977.777777777777
-1.0,-0.53,8980.555555555555
-1.01,-0.5,8983.333333333334
-1.015,-0.515,8986.111111111111
-1.02,-0.54,8988.888888888889
-1.005,-0.56,8991.666666666666
-0.98,-0.525,8994.444444444445
-0.965,-0.445,8997.222222222223
-0.965,-0.42,9000.0
-0.97,-0.44,9002.777777777777
-0.975,-0.49,9005.555555555555
-0.965,-0.535,9008.333333333334
-0.975,-0.53,9011.111111111111
-0.98,-0.48,9013.888888888889
-0.98,-0.43,9016.666666666666
-0.995,-0.45,9019.444444444445
-0.98,-0.485,9022.222222222223
-0.97,-0.505,9025.0
-0.94,-0.475,9027.777777777777
-0.94,-0.41,9030.555555555555
-0.935,-0.375,9033.333333333334
-0.965,-0.395,9036.111111111111
-0.96,-0.46,9038.888888888889
-0.94,-0.49,9041.666666666666
-0.935,-0.455,9044.444444444445
-0.93,-0.41,9047.222222222223
-0.95,-0.405,9050.0
-0.95,-0.43,9052.777777777777
-0.955,-0.49,9055.555555555555
-0.93,-0.485,9058.333333333334
-0.9,-0.45,9061.111111111111
-0.905,-0.37,9063.888888888889
-0.905,-0.36,9066.666666666666
-0.91,-0.4,9069.444444444445
-0.915,-0.47,9072.222222222223
-0.91,-0.51,9075.0
-0.9,-0.49,9077.777777777777
-0.89,-0.46,9080.555555555555
-0.905,-0.43,9083.333333333334
-0.925,-0.45,9086.111111111111
-0.92,-0.525,9088.888888888889
-0.89,-0.55,9091.666666666666
-0.89,-0.515,9094.444444444445
-0.87,-0.45,9097.222222222223
-0.865,-0.41,9100.0
-0.875,-0.42,9102.777777777777
-0.89,-0.485,9105.555555555555
-0.885,-0.555,9108.333333333334
-0.88,-0.6,9111.111111111111
-0.885,-0.57,9113.888888888889
-0.885,-0.535,9116.666666666666
-0.895,-0.515,9119.444444444445
-0.91,-0.535,9122.222222222223
-0.905,-0.6,9125.0
-0.89,-0.61,9127.777777777777
-0.88,-0.6,9130.555555555555
-0.885,-0.54,9133.333333333334
-0.895,-0.495,9136.111111111111
-0.91,-0.53,9138.888888888889
-0.91,-0.61,9141.666666666666
-0.91,-0.665,9144.444444444445
-0.925,-0.67,9147.222222222223
-0.92,-0.625,9150.0
-0.925,-0.575,9152.777777777777
-0.96,-0.56,9155.555555555555
-0.94,-0.6,9158.333333333334
-0.92,-0.665,9161.111111111111
-0.9,-0.66,9163.888888888889
-0.89,-0.61,9166.666666666666
-0.925,-0.555,9169.444444444445
-0.925,-0.54,9172.222222222223
-0.935,-0.595,9175.0
-0.94,-0.66,9177.777777777777
-0.93,-0.695,9180.555555555555
-0.925,-0.665,9183.333333333334
-0.94,-0.6,9186.111111111111
-0.955,-0.575,9188.888888888889
-0.965,-0.59,9191.666666666666
-0.945,-0.63,9194.444444444445
-0.915,-0.66,9197.222222222223
-0.92,-0.615,9200.0
-0.915,-0.56,9202.777777777777
-0.94,-0.535,9205.555555555555
-0.95,-0.57,9208.333333333334
-0.96,-0.64,9211.111111111111
-0.96,-0.695,9213.888888888889
-0.95,-0.695,9216.666666666666
-0.975,-0.635,9219.444444444445
-1.0,-0.565,9222.222222222223
-1.02,-0.55,9225.0
-0.995,-0.62,9227.777777777777
-0.975,-0.645,9230.555555555555
-0.955,-0.665,9233.333333333334
-0.955,-0.625,9236.111111111111
-0.985,-0.56,9238.888888888889
-1.005,-0.58,9241.666666666666
-1.01,-0.645,9244.444444444445
-1.02,-0.69,9247.222222222223
-1.01,-0.71,9250.0
-1.025,-0.64,9252.777777777777
-1.025,-0.605,9255.555555555555
-1.025,-0.595,9258.333333333334
-1.035,-0.635,9261.111111111111
-1.005,-0.665,9263.888888888889
-0.99,-0.645,9266.666666666666
-1.0,-0.605,9269.444444444445
-1.01,-0.585,9272.222222222223
-1.015,-0.59,9275.0
-1.03,-0.65,9277.777777777777
-1.02,-0.71,9280.555555555555
-1.005,-0.695,9283.333333333334
-1.0,-0.625,9286.111111111111
-1.01,-0.585,9288.888888888889
-1.025,-0.57,9291.666666666666
-1.015,-0.61,9294.444444444445
-0.99,-0.655,9297.222222222223
-0.965,-0.68,9300.0
-0.965,-0.64,9302.777777777777
-0.965,-0.565,9305.555555555555
-1.005,-0.545,9308.333333333334
-1.0,-0.585,9311.111111111111
-1.0,-0.65,9313.888888888889
-0.99,-0.7,9316.666666666666
-1.005,-0.69,9319.444444444445
-0.98,-0.625,9322.222222222223
-0.99,-0.585,9325.0
-0.99,-0.6,9327.777777777777
-0.96,-0.62,9330.555555555555
-0.93,-0.645,9333.333333333334
-0.915,-0.61,9336.111111111111
-0.92,-0.58,9338.888888888889
-0.95,-0.555,9341.666666666666
-0.935,-0.605,9344.444444444445
-0.93,-0.675,9347.222222222223
-0.925,-0.715,9350.0
-0.91,-0.7,9352.777777777777
-0.9,-0.62,9355.555555555555
-0.89,-0.545,9358.333333333334
-0.865,-0.545,9361.111111111111
-0.825,-0.585,9363.888888888889
-0.79,-0.63,9366.666666666666
-0.775,-0.62,9369.444444444445
-0.755,-0.58,9372.222222222223
-0.755,-0.535,9375.0
-0.75,-0.53,9377.777777777777
-0.755,-0.585,9380.555555555555
-0.75,-0.61,9383.333333333334
-0.75,-0.575,9386.111111111111
-0.765,-0.525,9388.888888888889
-0.77,-0.49,9391.666666666666
-0.76,-0.51,9394.444444444445
-0.75,-0.565,9397.222222222223
-0.755,-0.6,9400.0
-0.76,-0.58,9402.777777777777
-0.78,-0.525,9405.555555555555
-0.795,-0.485,9408.333333333334
-0.81,-0.51,9411.111111111111
-0.835,-0.59,9413.888888888889
-0.825,-0.64,9416.666666666666
-0.82,-0.65,9419.444444444445
-0.825,-0.595,9422.222222222223
-0.85,-0.545,9425.0
-0.88,-0.545,9427.777777777777
-0.89,-0.61,9430.555555555555
-0.9,-0.645,9433.333333333334
-0.895,-0.665,9436.111111111111
-0.93,-0.605,9438.888888888889
-0.945,-0.585,9441.666666666666
-0.98,-0.6,9444.444444444445
-0.98,-0.645,9447.222222222223
-0.99,-0.69,9450.0
-0.98,-0.67,9452.777777777777
-0.98,-0.615,9455.555555555555
-1.005,-0.575,9458.333333333334
-0.995,-0.6,9461.111111111111
-0.985,-0.66,9463.888888888889
-0.96,-0.655,9466.666666666666
-0.93,-0.645,9469.444444444445
-0.955,-0.58,9472.222222222223
-0.975,-0.58,9475.0
-0.995,-0.61,9477.777777777777
-0.995,-0.695,9480.555555555555
-1.0,-0.725,9483.333333333334
-1.01,-0.7,9486.111111111111
-1.065,-0.63,9488.888888888889
-1.1,-0.575,9491.666666666666
-1.15,-0.59,9494.444444444445
-1.175,-0.635,9497.222222222223
-1.185,-0.69,9500.0
-1.165,-0.685,9502.777777777777
-1.11,-0.615,9505.555555555555
-1.04,-0.52,9508.333333333334
-0.925,-0.435,9511.111111111111
-0.78,-0.435,9513.888888888889
-0.575,-0.44,9516.666666666666
-0.38,-0.405,9519.444444444445
-0.185,-0.32,9522.222222222223
-0.005,-0.22,9525.0
0.145,-0.14,9527.777777777777
0.31,-0.165,9530.555555555555
0.48,-0.215,9533.333333333334
0.595,-0.305,9536.111111111111
0.685,-0.36,9538.888888888889
0.695,-0.41,9541.666666666666
0.695,-0.495,9544.444444444445
0.655,-0.59,9547.222222222223
0.585,-0.66,9550.0
0.53,-0.67,9552.777777777777
0.445,-0.595,9555.555555555555
0.29,-0.45,9558.333333333334
0.06,-0.345,9561.111111111111
-0.24,-0.35,9563.888888888889
-0.515,-0.46,9566.666666666666
-0.725,-0.585,9569.444444444445
-0.855,-0.68,9572.222222222223
-0.915,-0.695,9575.0
-0.915,-0.675,9577.777777777777
-0.905,-0.675,9580.555555555555
-0.865,-0.705,9583.333333333334
-0.84,-0.7,9586.111111111111
-0.845,-0.665,9588.888888888889
-0.89,-0.61,9591.666666666666
-0.94,-0.575,9594.444444444445
-0.995,-0.595,9597.222222222223
-1.02,-0.65,9600.0
-1.035,-0.685,9602.777777777777
-1.035,-0.67,9605.555555555555
-1.045,-0.595,9608.333333333334
-1.065,-0.585,9611.111111111111
-1.085,-0.63,9613.888888888889
-1.085,-0.675,9616.666666666666
-1.07,-0.73,9619.444444444445
-1.065,-0.695,9622.222222222223
-1.05,-0.63,9625.0
-1.055,-0.565,9627.777777777777
-1.06,-0.575,9630.555555555555
-1.03,-0.62,9633.333333333334
-1.025,-0.635,9636.111111111111
-1.025,-0.605,9638.888888888889
-1.035,-0.57,9641.666666666666
-1.06,-0.575,9644.444444444445
-1.07,-0.64,9647.222222222223
-1.055,-0.67,9650.0
-1.055,-0.67,9652.777777777777
-1.055,-0.61,9655.555555555555
-1.055,-0.56,9658.333333333334
-1.05,-0.56,9661.111111111111
-1.04,-0.595,9663.888888888889
-1.02,-0.625,9666.666666666666
-1.02,-0.6,9669.444444444445
-1.01,-0.55,9672.222222222223
-1.02,-0.545,9675.0
-1.03,-0.565,9677.777777777777
-1.025,-0.62,9680.555555555555
-1.025,-0.635,9683.333333333334
-1.025,-0.6,9686.111111111111
-1.03,-0.54,9688.888888888889
-1.025,-0.495,9691.666666666666
-1.01,-0.51,9694.444444444445
-1.0,-0.53,9697.222222222223
-0.975,-0.56,9700.0
-0.97,-0.535,9702.777777777777
-0.985,-0.48,9705.555555555555
-1.005,-0.455,9708.333333333334
-1.025,-0.5,9711.111111111111
-1.005,-0.55,9713.888888888889
-1.01,-0.575,9716.666666666666
-0.995,-0.555,9719.444444444445
-0.995,-0.485,9722.222222222223
-1.0,-0.435,9725.0
-0.985,-0.46,9727.777777777777
-0.965,-0.505,9730.555555555555
-0.955,-0.52,9733.333333333334
-0.95,-0.51,9736.111111111111
-0.95,-0.435,9738.888888888889
-0.96,-0.41,9741.666666666666
-0.97,-0.45,9744.444444444445
-0.98,-0.515,9747.222222222223
-0.97,-0.555,9750.0
-0.97,-0.545,9752.777777777777
-0.975,-0.5,9755.555555555555
-0.97,-0.425,9758.333333333334
-0.96,-0.425,9761.111111111111
-0.95,-0.45,9763.888888888889
-0.935,-0.51,9766.666666666666
-0.905,-0.535,9769.444444444445
-0.905,-0.51,9772.222222222223
-0.91,-0.46,9775.0
-0.935,-0.465,9777.777777777777
-0.935,-0.515,9780.555555555555
-0.96,-0.565,9783.333333333334
-0.94,-0.58,9786.111111111111
-0.93,-0.55,9788.888888888889
-0.925,-0.485,9791.666666666666
-0.92,-0.465,9794.444444444445
-0.93,-0.505,9797.222222222223
-0.89,-0.565,9800.0
-0.88,-0.6,9802.777777777777
-0.88,-0.58,9805.555555555555
-0.895,-0.52,9808.333333333334
-0.91,-0.53,9811.111111111111
-0.915,-0.57,9813.888888888889
-0.94,-0.635,9816.666666666666
-0.935,-0.685,9819.444444444445
-0.92,-0.665,9822.222222222223
-0.905,-0.595,9825.0
-0.92,-0.545,9827.777777777777
-0.93,-0.535,9830.555555555555
-0.925,-0.57,9833.333333333334
-0.915,-0.66,9836.111111111111
-0.92,-0.66,9838.888888888889
-0.92,-0.62,9841.666666666666
-0.935,-0.575,9844.444444444445
-0.95,-0.595,9847.222222222223
-0.985,-0.65,9850.0
-0.965,-0.705,9852.777777777777
-0.94,-0.695,9855.555555555555
-0.94,-0.64,9858.333333333334
-0.93,-0.585,9861.111111111111
-0.94,-0.57,9863.888888888889
-0.925,-0.62,9866.666666666666
-0.925,-0.67,9869.444444444445
-0.92,-0.675,9872.222222222223
-0.925,-0.645,9875.0
-0.94,-0.61,9877.777777777777
-0.955,-0.63,9880.555555555555
-0.965,-0.675,9883.333333333334
-0.945,-0.695,9886.111111111111
-0.95,-0.695,9888.888888888889
-0.955,-0.615,9891.666666666666
-0.965,-0.585,9894.444444444445
-0.975,-0.595,9897.222222222223
-0.975,-0.63,9900.0
-0.955,-0.69,9902.777777777777
-0.945,-0.695,9905.555555555555
-0.945,-0.635,9908.333333333334
-0.985,-0.61,9911.111111111111
-1.005,-0.605,9913.888888888889
-1.02,-0.645,9916.666666666666
-1.01,-0.73,9919.444444444445
-1.015,-0.725,9922.222222222223
-1.0,-0.685,9925.0
-1.01,-0.615,9927.777777777777
-1.025,-0.59,9930.555555555555
-1.025,-0.65,9933.333333333334
-1.02,-0.705,9936.111111111111
-1.02,-0.73,9938.888888888889
-1.025,-0.7,9941.666666666666
-1.045,-0.67,9944.444444444445
-1.06,-0.665,9947.222222222223
-1.075,-0.7,9950.0
-1.055,-0.765,9952.777777777777
-1.035,-0.765,9955.555555555555
-1.035,-0.7,9958.333333333334
-1.04,-0.62,9961.111111111111
-1.045,-0.61,9963.888888888889
-1.04,-0.635,9966.666666666666
-1.025,-0.695,9969.444444444445
-1.02,-0.73,9972.222222222223
-1.02,-0.705,9975.0
-1.03,-0.65,9977.777777777777
-1.045,-0.63,9980.555555555555
-1.06,-0.655,9983.333333333334
-1.045,-0.715,9986.111111111111
-1.035,-0.725,9988.888888888889
-1.005,-0.685,9991.666666666666
-1.0,-0.625,9994.444444444445
-1.01,-0.59,9997.222222222223
-0.995,-0.625,10000.0
-0.985,-0.685,10002.777777777777
-0.985,-0.705,10005.555555555555
-0.99,-0.67,10008.333333333334
-1.0,-0.635,10011.111111111111
-1.02,-0.625,10013.888888888889
-1.035,-0.665,10016.666666666666
-1.03,-0.72,10019.444444444445
-1.01,-0.75,10022.222222222223
-0.965,-0.715,10025.0
-0.96,-0.625,10027.777777777777
-0.97,-0.59,10030.555555555555
-0.95,-0.6,10033.333333333334
-0.93,-0.67,10036.111111111111
-0.91,-0.725,10038.888888888889
-0.9,-0.685,10041.666666666666
-0.915,-0.65,10044.444444444445
-0.915,-0.61,10047.222222222223
-0.915,-0.63,10050.0
-0.89,-0.695,10052.777777777777
-0.855,-0.705,10055.555555555555
-0.82,-0.67,10058.333333333334
-0.8,-0.6,10061.111111111111
-0.78,-0.58,10063.888888888889
-0.78,-0.59,10066.666666666666
-0.775,-0.63,10069.444444444445
-0.735,-0.625,10072.222222222223
-0.73,-0.575,10075.0
-0.75,-0.525,10077.777777777777
-0.765,-0.54,10080.555555555555
-0.785,-0.605,10083.333333333334
-0.79,-0.645,10086.111111111111
-0.79,-0.655,10088.888888888889
-0.79,-0.585,10091.666666666666
-0.81,-0.535,10094.444444444445
-0.815,-0.51,10097.222222222223
-0.82,-0.555,10100.0
-0.81,-0.625,10102.777777777777
-0.795,-0.65,10105.555555555555
-0.8,-0.625,10108.333333333334
-0.825,-0.575,10111.111111111111
-0.865,-0.565,10113.888888888889
-0.89,-0.61,10116.666666666666
-0.905,-0.69,10119.444444444445
-0.92,-0.735,10122.222222222223
-0.925,-0.71,10125.0
-0.945,-0.645,10127.777777777777
-0.955,-0.61,10130.555555555555
-0.955,-0.605,10133.333333333334
-0.975,-0.65,10136.111111111111
-0.96,-0.705,10138.888888888889
-0.975,-0.68,10141.666666666666
-1.0,-0.65,10144.444444444445
-1.01,-0.635,10147.222222222223
-1.025,-0.625,10150.0
-1.035,-0.695,10152.777777777777
-1.03,-0.745,10155.555555555555
-1.01,-0.72,10158.333333333334
-0.99,-0.67,10161.111111111111
-0.99,-0.595,10163.888888888889
-1.005,-0.57,10166.666666666666
-1.005,-0.63,10169.444444444445
-0.99,-0.71,10172.222222222223
-0.99,-0.74,10175.0
-1.005,-0.69,10177.777777777777
-1.04,-0.64,10180.555555555555
-1.075,-0.63,10183.333333333334
-1.125,-0.66,10186.111111111111
-1.155,-0.715,10188.888888888889
-1.17,-0.74,10191.666666666666
-1.185,-0.7,10194.444444444445
-1.185,-0.61,10197.222222222223
-1.15,-0.56,10200.0
-1.085,-0.535,10202.777777777777
-0.945,-0.535,10205.555555555555
-0.775,-0.525,10208.333333333334
-0.59,-0.475,10211.111111111111
-0.395,-0.365,10213.888888888889
-0.23,-0.27,10216.666666666666
-0.075,-0.245,10219.444444444445
0.085,-0.245,10222.222222222223
0.22,-0.295,10225.0
0.405,-0.295,10227.777777777777
0.535,-0.27,10230.555555555555
0.615,-0.26,10233.333333333334
0.665,-0.34,10236.111111111111
0.675,-0.48,10238.888888888889
0.67,-0.645,10241.666666666666
0.61,-0.72,10244.444444444445
0.54,-0.705,10247.222222222223
0.465,-0.575,10250.0
0.315,-0.465,10252.777777777777
0.105,-0.42,10255.555555555555
-0.175,-0.465,10258.333333333334
-0.445,-0.525,10261.111111111111
-0.68,-0.575,10263.888888888889
-0.85,-0.61,10266.666666666666
-0.94,-0.665,10269.444444444445
-0.94,-0.725,10272.222222222223
-0.89,-0.755,10275.0
-0.86,-0.74,10277.777777777777
-0.83,-0.655,10280.555555555555
-0.85,-0.615,10283.333333333334
-0.9,-0.61,10286.111111111111
-0.95,-0.645,10288.888888888889
-0.995,-0.715,10291.666666666666
-1.005,-0.74,10294.444444444445
-1.015,-0.685,10297.222222222223
-1.035,-0.615,10300.0
-1.065,-0.585,10302.777777777777
-1.065,-0.625,10305.555555555555
-1.07,-0.675,10308.333333333334
-1.075,-0.745,10311.111111111111
-1.065,-0.735,10313.888888888889
-1.075,-0.685,10316.666666666666
-1.08,-0.62,10319.444444444445
-1.085,-0.595,10322.222222222223
-1.1,-0.65,10325.0
-1.05,-0.695,10327.777777777777
-1.045,-0.705,10330.555555555555
-1.02,-0.655,10333.333333333334
-1.025,-0.59,10336.111111111111
-1.035,-0.555,10338.888888888889
-1.055,-0.6,10341.666666666666
-1.075,-0.675,10344.444444444445
-1.08,-0.72,10347.222222222223
-1.055,-0.7,10350.0
-1.06,-0.64,10352.777777777777
-1.07,-0.585,10355.555555555555
-1.075,-0.59,10358.333333333334
-1.06,-0.62,10361.111111111111
-1.04,-0.665,10363.888888888889
-1.02,-0.64,10366.666666666666
-1.035,-0.58,10369.444444444445
-1.03,-0.54,10372.222222222223
-1.05,-0.545,10375.0
-1.06,-0.58,10377.777777777777
-1.065,-0.645,10380.555555555555
-1.04,-0.665,10383.333333333334
-1.03,-0.605,10386.111111111111
-1.04,-0.545,10388.888888888889
-1.045,-0.49,10391.666666666666
-1.03,-0.51,10394.444444444445
-1.045,-0.56,10397.222222222223
-1.01,-0.58,10400.0
-0.99,-0.575,10402.777777777777
-0.985,-0.505,10405.555555555555
-1.005,-0.46,10408.333333333334
-1.025,-0.47,10411.111111111111
-1.035,-0.535,10413.888888888889
-1.035,-0.6,10416.666666666666
-1.03,-0.6,10419.444444444445
-1.015,-0.535,10422.222222222223
-1.01,-0.46,10425.0
-1.015,-0.425,10427.777777777777
-1.01,-0.435,10430.555555555555
-0.975,-0.49,10433.333333333334
-0.975,-0.54,10436.111111111111
-0.955,-0.535,10438.888888888889
-0.97,-0.47,10441.666666666666
-0.98,-0.43,10444.444444444445
-0.985,-0.435,10447.222222222223
-0.98,-0.485,10450.0
-0.96,-0.53,10452.777777777777
-0.965,-0.51,10455.555555555555
-0.955,-0.475,10458.333333333334
-0.98,-0.435,10461.111111111111
-0.965,-0.455,10463.888888888889
-0.945,-0.5,10466.666666666666
-0.93,-0.51,10469.444444444445
-0.92,-0.485,10472.222222222223
-0.94,-0.45,10475.0
-0.955,-0.465,10477.777777777777
-0.955,-0.52,10480.555555555555
-0.95,-0.57,10483.333333333334
-0.94,-0.565,10486.111111111111
-0.93,-0.535,10488.888888888889
-0.925,-0.465,10491.666666666666
-0.925,-0.475,10494.444444444445
-0.92,-0.53,10497.222222222223
-0.895,-0.575,10500.0
-0.885,-0.555,10502.777777777777
-0.91,-0.53,10505.555555555555
-0.91,-0.51,10508.333333333334
-0.92,-0.535,10511.111111111111
-0.95,-0.605,10513.888888888889
-0.925,-0.655,10516.666666666666
-0.93,-0.645,10519.444444444445
-0.91,-0.6,10522.222222222223
-0.93,-0.535,10525.0
-0.945,-0.545,10527.777777777777
-0.93,-0.605,10530.555555555555
-0.91,-0.635,10533.333333333334
-0.9,-0.645,10536.111111111111
-0.905,-0.59,10538.888888888889
-0.935,-0.565,10541.666666666666
-0.935,-0.575,10544.444444444445
-0.955,-0.635,10547.222222222223
-0.975,-0.7,10550.0
-0.955,-0.695,10552.777777777777
-0.955,-0.65,10555.555555555555
-0.96,-0.585,10558.333333333334
-0.965,-0.57,10561.111111111111
-0.965,-0.62,10563.888888888889
-0.94,-0.66,10566.666666666666
-0.915,-0.67,10569.444444444445
-0.925,-0.62,10572.222222222223
-0.94,-0.59,10575.0
-0.96,-0.58,10577.777777777777
-0.975,-0.635,10580.555555555555
-0.98,-0.695,10583.333333333334
-0.96,-0.705,10586.111111111111
-0.955,-0.695,10588.888888888889
-0.97,-0.61,10591.666666666666
-0.975,-0.575,10594.444444444445
-0.98,-0.6,10597.222222222223
-0.96,-0.655,10600.0
-0.945,-0.685,10602.777777777777
-0.95,-0.665,10605.555555555555
-0.95,-0.605,10608.333333333334
-0.98,-0.59,10611.111111111111
-0.99,-0.625,10613.888888888889
-1.0,-0.7,10616.666666666666
-1.01,-0.74,10619.444444444445
-1.015,-0.695,10622.222222222223
-1.015,-0.635,10625.0
-1.025,-0.605,10627.777777777777
-1.03,-0.63,10630.555555555555
-1.025,-0.685,10633.333333333334
-1.015,-0.7,10636.111111111111
-1.015,-0.685,10638.888888888889
-1.01,-0.63,10641.666666666666
-1.04,-0.62,10644.444444444445
-1.06,-0.65,10647.222222222223
-1.06,-0.7,10650.0
-1.055,-0.74,10652.777777777777
-1.035,-0.7,10655.555555555555
-1.055,-0.655,10658.333333333334
-1.055,-0.615,10661.111111111111
-1.06,-0.635,10663.888888888889
-1.045,-0.67,10666.666666666666
-1.025,-0.69,10669.444444444445
-1.025,-0.66,10672.222222222223
-1.035,-0.635,10675.0
-1.055,-0.64,10677.777777777777
-1.055,-0.7,10680.555555555555
-1.045,-0.72,10683.333333333334
-1.045,-0.69,10686.111111111111
-1.045,-0.665,10688.888888888889
-1.035,-0.655,10691.666666666666
-1.04,-0.675,10694.444444444445
-1.005,-0.705,10697.222222222223
-1.0,-0.675,10700.0
-1.0,-0.635,10702.777777777777
-0.995,-0.605,10705.555555555555
-1.02,-0.62,10708.333333333334
-1.01,-0.705,10711.111111111111
-1.0,-0.74,10713.888888888889
-0.985,-0.745,10716.666666666666
-0.985,-0.69,10719.444444444445
-0.99,-0.63,10722.222222222223
-0.995,-0.625,10725.0
-1.0,-0.66,10727.777777777777
-0.97,-0.7,10730.555555555555
-0.94,-0.695,10733.333333333334
-0.925,-0.66,10736.111111111111
-0.945,-0.61,10738.888888888889
-0.945,-0.6,10741.666666666666
-0.94,-0.635,10744.444444444445
-0.935,-0.7,10747.222222222223
-0.895,-0.72,10750.0
-0.87,-0.67,10752.777777777777
-0.865,-0.615,10755.555555555555
-0.845,-0.615,10758.333333333334
-0.83,-0.615,10761.111111111111
-0.79,-0.65,10763.888888888889
-0.77,-0.635,10766.666666666666
-0.75,-0.57,10769.444444444445
-0.75,-0.51,10772.222222222223
-0.77,-0.51,10775.0
-0.78,-0.565,10777.777777777777
-0.785,-0.64,10780.555555555555
-0.78,-0.655,10783.333333333334
-0.785,-0.625,10786.111111111111
-0.8,-0.56,10788.888888888889
-0.815,-0.535,10791.666666666666
-0.825,-0.565,10794.444444444445
-0.815,-0.605,10797.222222222223
-0.8,-0.62,10800.0
-0.79,-0.605,10802.777777777777
-0.81,-0.55,10805.555555555555
-0.825,-0.545,10808.333333333334
-0.88,-0.615,10811.111111111111
-0.89,-0.67,10813.888888888889
-0.895,-0.725,10816.666666666666
-0.91,-0.705,10819.444444444445
-0.95,-0.665,10822.222222222223
-0.965,-0.625,10825.0
-0.975,-0.67,10827.777777777777
-0.965,-0.715,10830.555555555555
-0.965,-0.735,10833.333333333334
-0.955,-0.705,10836.111111111111
-0.965,-0.64,10838.888888888889
-0.985,-0.585,10841.666666666666
-1.005,-0.585,10844.444444444445
-1.01,-0.65,10847.222222222223
-1.02,-0.715,10850.0
-1.015,-0.725,10852.777777777777
-1.02,-0.685,10855.555555555555
-1.015,-0.62,10858.333333333334
-1.03,-0.6,10861.111111111111
-1.01,-0.625,10863.888888888889
-0.995,-0.68,10866.666666666666
-0.99,-0.68,10869.444444444445
-0.99,-0.645,10872.222222222223
-1.015,-0.625,10875.0
-1.05,-0.645,10877.777777777777
-1.095,-0.715,10880.555555555555
-1.125,-0.735,10883.333333333334
-1.16,-0.72,10886.111111111111
-1.21,-0.64,10888.888888888889
-1.21,-0.625,10891.666666666666
-1.15,-0.62,10894.444444444445
-1.045,-0.585,10897.222222222223
-0.865,-0.525,10900.0
-0.665,-0.415,10902.777777777777
-0.465,-0.305,10905.555555555555
-0.28,-0.255,10908.333333333334
-0.08,-0.28,10911.111111111111
0.1,-0.3,10913.888888888889
0.27,-0.3,10916.666666666666
0.41,-0.255,10919.444444444445
0.52,-0.22,10922.222222222223
0.6,-0.275,10925.0
0.655,-0.405,10927.777777777777
0.695,-0.565,10930.555555555555
0.69,-0.64,10933.333333333334
0.64,-0.64,10936.111111111111
0.57,-0.565,10938.888888888889
0.455,-0.495,10941.666666666666
0.285,-0.48,10944.444444444445
0.04,-0.48,10947.222222222223
-0.245,-0.505,10950.0
-0.53,-0.53,10952.777777777777
-0.77,-0.585,10955.555555555555
-0.925,-0.66,10958.333333333334
-0.965,-0.73,10961.111111111111
-0.955,-0.77,10963.888888888889
-0.89,-0.73,10966.666666666666
-0.845,-0.645,10969.444444444445
-0.845,-0.59,10972.222222222223
-0.86,-0.575,10975.0
-0.94,-0.635,10977.777777777777
-0.975,-0.705,10980.555555555555
-1.015,-0.695,10983.333333333334
-1.045,-0.665,10986.111111111111
-1.1,-0.635,10988.888888888889
-1.105,-0.625,10991.666666666666
-1.105,-0.67,10994.444444444445
-1.085,-0.7,10997.222222222223
-1.055,-0.665,11000.0
-1.065,-0.6,11002.777777777777
-1.07,-0.575,11005.555555555555
-1.095,-0.605,11008.333333333334
-1.09,-0.645,11011.111111111111
-1.08,-0.685,11013.888888888889
-1.075,-0.65,11016.666666666666
-1.08,-0.61,11019.444444444445
-1.09,-0.57,11022.222222222223
-1.1,-0.6,11025.0
-1.08,-0.63,11027.777777777777
-1.055,-0.65,11030.555555555555
-1.06,-0.61,11033.333333333334
-1.055,-0.55,11036.111111111111
-1.075,-0.52,11038.888888888889
-1.085,-0.54,11041.666666666666
-1.085,-0.625,11044.444444444445
-1.075,-0.645,11047.222222222223
-1.065,-0.64,11050.0
-1.08,-0.58,11052.777777777777
-1.09,-0.56,11055.555555555555
-1.095,-0.56,11058.333333333334
-1.075,-0.605,11061.111111111111
-1.06,-0.615,11063.888888888889
-1.035,-0.575,11066.666666666666
-1.03,-0.5,11069.444444444445
-1.045,-0.485,11072.222222222223
-1.045,-0.525,11075.0
-1.045,-0.575,11077.777777777777
-1.035,-0.59,11080.555555555555
-1.03,-0.535,11083.333333333334
-1.02,-0.5,11086.111111111111
-1.07,-0.505,11088.888888888889
-1.05,-0.56,11091.666666666666
-1.035,-0.55,11094.444444444445
-1.015,-0.525,11097.222222222223
-1.01,-0.46,11100.0
-1.02,-0.425,11102.777777777777
-1.03,-0.44,11105.555555555555
-1.015,-0.49,11108.333333333334
-1.02,-0.55,11111.111111111111
-1.0,-0.545,11113.888888888889
-0.995,-0.49,11116.666666666666
-1.005,-0.435,11119.444444444445
-1.03,-0.43,11122.222222222223
-1.02,-0.465,11125.0
-1.005,-0.515,11127.777777777777
-0.96,-0.53,11130.555555555555
-0.97,-0.47,11133.333333333334
-0.955,-0.41,11136.111111111111
-0.97,-0.41,11138.888888888889
