MLII,V5,time_ms
-0.805,-0.455,0.0
-0.805,-0.455,2.7777777777777777
-0.805,-0.455,5.555555555555555
-0.805,-0.455,8.333333333333334
-0.805,-0.455,11.11111111111111
-0.805,-0.455,13.88888888888889
-0.805,-0.455,16.666666666666668
-0.82,-0.455,19.444444444444443
-0.835,-0.455,22.22222222222222
-0.84,-0.43,25.0
-0.835,-0.435,27.77777777777778
-0.845,-0.415,30.555555555555557
-0.84,-0.42,33.333333333333336
-0.84,-0.405,36.111111111111114
-0.855,-0.4,38.888888888888886
-0.88,-0.415,41.666666666666664
-0.905,-0.42,44.44444444444444
-0.94,-0.44,47.22222222222222
-0.95,-0.475,50.0
-0.985,-0.485,52.77777777777778
-0.98,-0.495,55.55555555555556
-1.02,-0.49,58.333333333333336
-1.015,-0.495,61.111111111111114
-1.02,-0.49,63.888888888888886
-1.015,-0.49,66.66666666666667
-1.01,-0.475,69.44444444444444
-0.99,-0.465,72.22222222222223
-0.995,-0.47,75.0
-0.995,-0.485,77.77777777777777
-1.01,-0.49,80.55555555555556
-1.02,-0.505,83.33333333333333
-1.03,-0.515,86.11111111111111
-1.04,-0.515,88.88888888888889
-1.035,-0.505,91.66666666666667
-1.035,-0.515,94.44444444444444
-1.04,-0.49,97.22222222222223
-1.025,-0.495,100.0
-1.025,-0.47,102.77777777777777
-1.005,-0.455,105.55555555555556
-1.01,-0.47,108.33333333333333
-1.005,-0.455,111.11111111111111
-1.01,-0.47,113.88888888888889
-1.01,-0.485,116.66666666666667
-1.025,-0.48,119.44444444444444
-1.03,-0.505,122.22222222222223
-1.045,-0.49,125.0
-1.035,-0.495,127.77777777777777
-1.035,-0.48,130.55555555555554
-1.02,-0.48,133.33333333333334
-1.01,-0.47,136.11111111111111
-0.995,-0.455,138.88888888888889
-0.995,-0.465,141.66666666666666
-0.98,-0.455,144.44444444444446
-0.965,-0.47,147.22222222222223
-0.98,-0.465,150.0
-0.985,-0.495,152.77777777777777
-0.98,-0.495,155.55555555555554
-0.97,-0.475,158.33333333333334
-0.96,-0.48,161.11111111111111
-0.935,-0.445,163.88888888888889
-0.91,-0.41,166.66666666666666
-0.86,-0.335,169.44444444444446
-0.745,-0.265,172.22222222222223
-0.58,-0.13,175.0
-0.36,0.03,177.77777777777777
-0.095,0.185,180.55555555555554
0.165,0.305,183.33333333333334
0.435,0.385,186.11111111111111
0.71,0.405,188.88888888888889
0.975,0.445,191.66666666666666
1.16,0.46,194.44444444444446
1.2,0.46,197.22222222222223
1.07,0.415,200.0
0.735,0.305,202.77777777777777
0.255,0.14,205.55555555555554
-0.31,-0.135,208.33333333333334
-0.91,-0.455,211.11111111111111
-1.395,-0.815,213.88888888888889
-1.66,-1.085,216.66666666666666
-1.7,-1.22,219.44444444444446
-1.59,-1.17,222.22222222222223
-1.395,-1.02,225.0
-1.23,-0.845,227.77777777777777
-1.105,-0.72,230.55555555555554
-1.065,-0.595,233.33333333333334
-1.03,-0.545,236.11111111111111
-1.05,-0.545,238.88888888888889
-1.05,-0.54,241.66666666666666
-1.035,-0.545,244.44444444444446
-1.02,-0.54,247.22222222222223
-1.02,-0.53,250.0
-0.995,-0.51,252.77777777777777
-0.995,-0.505,255.55555555555554
-1.0,-0.505,258.3333333333333
-1.01,-0.475,261.1111111111111
-1.02,-0.49,263.8888888888889
-1.005,-0.45,266.6666666666667
-1.01,-0.46,269.44444444444446
-1.0,-0.44,272.22222222222223
-0.99,-0.455,275.0
-0.985,-0.45,277.77777777777777
-1.0,-0.475,280.55555555555554
-1.0,-0.455,283.3333333333333
-0.995,-0.465,286.1111111111111
-1.01,-0.475,288.8888888888889
-1.01,-0.47,291.6666666666667
-1.02,-0.475,294.44444444444446
-1.02,-0.455,297.22222222222223
-0.99,-0.44,300.0
-0.99,-0.44,302.77777777777777
-0.98,-0.435,305.55555555555554
-0.97,-0.43,308.3333333333333
-0.97,-0.44,311.1111111111111
-0.975,-0.44,313.8888888888889
-0.99,-0.455,316.6666666666667
-0.99,-0.45,319.44444444444446
-0.99,-0.46,322.22222222222223
-1.01,-0.46,325.0
-1.015,-0.45,327.77777777777777
-1.02,-0.425,330.55555555555554
-1.005,-0.42,333.3333333333333
-1.0,-0.435,336.1111111111111
-0.975,-0.415,338.8888888888889
-0.98,-0.425,341.6666666666667
-0.98,-0.415,344.44444444444446
-0.975,-0.42,347.22222222222223
-0.99,-0.43,350.0
-0.99,-0.435,352.77777777777777
-1.005,-0.43,355.55555555555554
-1.0,-0.425,358.3333333333333
-1.005,-0.435,361.1111111111111
-0.995,-0.41,363.8888888888889
-1.0,-0.42,366.6666666666667
-0.975,-0.41,369.44444444444446
-0.965,-0.41,372.22222222222223
-0.96,-0.41,375.0
-0.965,-0.415,377.77777777777777
-0.96,-0.42,380.55555555555554
-0.96,-0.42,383.3333333333333
-0.96,-0.425,386.1111111111111
-0.98,-0.415,388.8888888888889
-0.975,-0.41,391.6666666666667
-0.97,-0.4,394.44444444444446
-0.96,-0.385,397.22222222222223
-0.945,-0.38,400.0
-0.93,-0.365,402.77777777777777
-0.91,-0.345,405.55555555555554
-0.91,-0.335,408.3333333333333
-0.925,-0.345,411.1111111111111
-0.905,-0.33,413.8888888888889
-0.91,-0.33,416.6666666666667
-0.9,-0.355,419.44444444444446
-0.915,-0.36,422.22222222222223
-0.91,-0.34,425.0
-0.895,-0.305,427.77777777777777
-0.885,-0.315,430.55555555555554
-0.865,-0.305,433.3333333333333
-0.845,-0.28,436.1111111111111
-0.83,-0.265,438.8888888888889
-0.81,-0.26,441.6666666666667
-0.79,-0.265,444.44444444444446
-0.785,-0.265,447.22222222222223
-0.77,-0.26,450.0
-0.77,-0.27,452.77777777777777
-0.77,-0.28,455.55555555555554
-0.76,-0.255,458.3333333333333
-0.73,-0.24,461.1111111111111
-0.715,-0.215,463.8888888888889
-0.69,-0.18,466.6666666666667
-0.675,-0.17,469.44444444444446
-0.64,-0.15,472.22222222222223
-0.625,-0.15,475.0
-0.61,-0.135,477.77777777777777
-0.595,-0.135,480.55555555555554
-0.585,-0.14,483.3333333333333
-0.58,-0.135,486.1111111111111
-0.575,-0.13,488.8888888888889
-0.565,-0.13,491.6666666666667
-0.57,-0.105,494.44444444444446
-0.55,-0.11,497.22222222222223
-0.54,-0.085,500.0
-0.52,-0.075,502.77777777777777
-0.5,-0.07,505.55555555555554
-0.495,-0.09,508.3333333333333
-0.5,-0.095,511.1111111111111
-0.51,-0.095,513.8888888888889
-0.545,-0.135,516.6666666666666
-0.575,-0.16,519.4444444444445
-0.595,-0.165,522.2222222222222
-0.62,-0.17,525.0
-0.645,-0.195,527.7777777777778
-0.655,-0.21,530.5555555555555
-0.67,-0.205,533.3333333333334
-0.67,-0.21,536.1111111111111
-0.72,-0.225,538.8888888888889
-0.725,-0.235,541.6666666666666
-0.75,-0.23,544.4444444444445
-0.765,-0.275,547.2222222222222
-0.785,-0.28,550.0
-0.815,-0.32,552.7777777777778
-0.83,-0.35,555.5555555555555
-0.87,-0.345,558.3333333333334
-0.885,-0.375,561.1111111111111
-0.905,-0.37,563.8888888888889
-0.91,-0.365,566.6666666666666
-0.905,-0.365,569.4444444444445
-0.925,-0.37,572.2222222222222
-0.91,-0.38,575.0
-0.91,-0.39,577.7777777777778
-0.92,-0.415,580.5555555555555
-0.94,-0.415,583.3333333333334
-0.945,-0.43,586.1111111111111
-0.975,-0.445,588.8888888888889
-0.98,-0.445,591.6666666666666
-0.985,-0.43,594.4444444444445
-0.985,-0.44,597.2222222222222
-0.965,-0.45,600.0
-0.955,-0.42,602.7777777777778
-0.945,-0.43,605.5555555555555
-0.94,-0.435,608.3333333333334
-0.94,-0.44,611.1111111111111
-0.95,-0.42,613.8888888888889
-0.96,-0.43,616.6666666666666
-0.97,-0.435,619.4444444444445
-0.975,-0.45,622.2222222222222
-0.97,-0.445,625.0
-0.985,-0.44,627.7777777777778
-0.99,-0.435,630.5555555555555
-0.99,-0.43,633.3333333333334
-0.975,-0.415,636.1111111111111
-0.97,-0.4,638.8888888888889
-0.945,-0.405,641.6666666666666
-0.95,-0.41,644.4444444444445
-0.965,-0.415,647.2222222222222
-0.965,-0.425,650.0
-0.975,-0.44,652.7777777777778
-0.985,-0.445,655.5555555555555
-0.985,-0.44,658.3333333333334
-0.98,-0.445,661.1111111111111
-0.96,-0.435,663.8888888888889
-0.96,-0.43,666.6666666666666
-0.945,-0.415,669.4444444444445
-0.95,-0.39,672.2222222222222
-0.935,-0.425,675.0
-0.94,-0.42,677.7777777777778
-0.95,-0.41,680.5555555555555
-0.955,-0.41,683.3333333333334
-0.945,-0.435,686.1111111111111
-0.96,-0.435,688.8888888888889
-0.965,-0.41,691.6666666666666
-0.97,-0.41,694.4444444444445
-0.98,-0.415,697.2222222222222
-0.965,-0.415,700.0
-0.96,-0.385,702.7777777777778
-0.955,-0.38,705.5555555555555
-0.93,-0.385,708.3333333333334
-0.95,-0.39,711.1111111111111
-0.94,-0.4,713.8888888888889
-0.95,-0.4,716.6666666666666
-0.96,-0.41,719.4444444444445
-0.985,-0.415,722.2222222222222
-0.99,-0.405,725.0
-0.985,-0.415,727.7777777777778
-0.97,-0.41,730.5555555555555
-0.96,-0.395,733.3333333333334
-0.96,-0.385,736.1111111111111
-0.94,-0.395,738.8888888888889
-0.94,-0.395,741.6666666666666
-0.945,-0.4,744.4444444444445
-0.955,-0.42,747.2222222222222
-0.965,-0.43,750.0
-0.975,-0.445,752.7777777777778
-0.985,-0.445,755.5555555555555
-0.99,-0.43,758.3333333333334
-0.99,-0.425,761.1111111111111
-1.0,-0.415,763.8888888888889
-0.995,-0.4,766.6666666666666
-0.965,-0.405,769.4444444444445
-0.97,-0.39,772.2222222222222
-0.955,-0.395,775.0
-0.96,-0.39,777.7777777777778
-0.97,-0.4,780.5555555555555
-0.985,-0.42,783.3333333333334
-0.99,-0.425,786.1111111111111
-0.995,-0.435,788.8888888888889
-1.01,-0.44,791.6666666666666
-1.025,-0.44,794.4444444444445
-1.0,-0.42,797.2222222222222
-0.99,-0.425,800.0
-0.98,-0.425,802.7777777777778
-0.97,-0.395,805.5555555555555
-0.98,-0.405,808.3333333333334
-0.98,-0.41,811.1111111111111
-0.985,-0.45,813.8888888888889
-1.015,-0.43,816.6666666666666
-1.025,-0.46,819.4444444444445
-1.04,-0.465,822.2222222222222
-1.035,-0.475,825.0
-1.025,-0.465,827.7777777777778
-1.015,-0.455,830.5555555555555
-1.02,-0.44,833.3333333333334
-1.01,-0.42,836.1111111111111
-0.985,-0.405,838.8888888888889
-0.98,-0.425,841.6666666666666
-0.99,-0.4,844.4444444444445
-0.995,-0.42,847.2222222222222
-1.015,-0.44,850.0
-1.03,-0.435,852.7777777777778
-1.045,-0.46,855.5555555555555
-1.045,-0.46,858.3333333333334
-1.05,-0.465,861.1111111111111
-1.055,-0.445,863.8888888888889
-1.04,-0.445,866.6666666666666
-1.005,-0.43,869.4444444444445
-0.995,-0.415,872.2222222222222
-1.01,-0.4,875.0
-1.015,-0.41,877.7777777777778
-1.025,-0.43,880.5555555555555
-1.035,-0.44,883.3333333333334
-1.03,-0.455,886.1111111111111
-1.035,-0.455,888.8888888888889
-1.025,-0.475,891.6666666666666
-1.035,-0.47,894.4444444444445
-1.025,-0.45,897.2222222222222
-1.03,-0.44,900.0
-1.035,-0.44,902.7777777777778
-1.025,-0.43,905.5555555555555
-1.005,-0.44,908.3333333333334
-1.015,-0.43,911.1111111111111
-1.0,-0.43,913.8888888888889
-1.015,-0.435,916.6666666666666
-1.025,-0.45,919.4444444444445
-1.015,-0.44,922.2222222222222
-1.02,-0.45,925.0
-1.04,-0.44,927.7777777777778
-1.035,-0.44,930.5555555555555
-1.025,-0.435,933.3333333333334
-1.015,-0.42,936.1111111111111
-1.01,-0.425,938.8888888888889
-1.0,-0.415,941.6666666666666
-1.02,-0.41,944.4444444444445
-1.0,-0.42,947.2222222222222
-1.02,-0.42,950.0
-1.02,-0.435,952.7777777777778
-1.01,-0.44,955.5555555555555
-1.03,-0.455,958.3333333333334
-1.02,-0.445,961.1111111111111
-1.045,-0.445,963.8888888888889
-1.045,-0.425,966.6666666666666
-1.035,-0.435,969.4444444444445
-1.015,-0.425,972.2222222222222
-1.015,-0.425,975.0
-1.015,-0.43,977.7777777777778
-1.01,-0.435,980.5555555555555
-1.0,-0.465,983.3333333333334
-1.02,-0.455,986.1111111111111
-1.035,-0.485,988.8888888888889
-1.04,-0.465,991.6666666666666
-1.035,-0.45,994.4444444444445
-1.02,-0.445,997.2222222222222
-1.01,-0.43,1000.0
-1.01,-0.415,1002.7777777777778
-1.01,-0.41,1005.5555555555555
-1.005,-0.405,1008.3333333333334
-1.01,-0.4,1011.1111111111111
-1.005,-0.42,1013.8888888888889
-1.015,-0.44,1016.6666666666666
-1.03,-0.455,1019.4444444444445
-1.025,-0.435,1022.2222222222222
-1.04,-0.445,1025.0
-1.035,-0.45,1027.7777777777778
-1.025,-0.435,1030.5555555555557
-1.025,-0.42,1033.3333333333333
-1.02,-0.415,1036.111111111111
-0.995,-0.4,1038.888888888889
-0.985,-0.42,1041.6666666666667
-0.99,-0.425,1044.4444444444443
-0.985,-0.42,1047.2222222222222
-1.005,-0.425,1050.0
-1.02,-0.43,1052.7777777777778
-1.025,-0.45,1055.5555555555557
-1.03,-0.455,1058.3333333333333
-1.03,-0.465,1061.111111111111
-1.04,-0.45,1063.888888888889
-1.015,-0.42,1066.6666666666667
-1.005,-0.43,1069.4444444444443
-1.0,-0.405,1072.2222222222222
-0.98,-0.41,1075.0
-0.995,-0.42,1077.7777777777778
-1.01,-0.42,1080.5555555555557
-1.03,-0.43,1083.3333333333333
-1.02,-0.44,1086.111111111111
-1.035,-0.43,1088.888888888889
-1.05,-0.435,1091.6666666666667
-1.06,-0.43,1094.4444444444443
-1.03,-0.425,1097.2222222222222
-1.025,-0.41,1100.0
-1.015,-0.415,1102.7777777777778
-1.015,-0.415,1105.5555555555557
-1.015,-0.4,1108.3333333333333
-1.015,-0.41,1111.111111111111
-1.02,-0.42,1113.888888888889
-1.02,-0.425,1116.6666666666667
-1.03,-0.42,1119.4444444444443
-1.03,-0.445,1122.2222222222222
-1.035,-0.46,1125.0
-1.04,-0.43,1127.7777777777778
-1.025,-0.425,1130.5555555555557
-1.025,-0.415,1133.3333333333333
-1.02,-0.41,1136.111111111111
-0.99,-0.4,1138.888888888889
-1.005,-0.415,1141.6666666666667
-0.99,-0.41,1144.4444444444443
-0.995,-0.405,1147.2222222222222
-1.01,-0.41,1150.0
-1.02,-0.42,1152.7777777777778
-1.025,-0.43,1155.5555555555557
-1.025,-0.43,1158.3333333333333
-1.03,-0.435,1161.111111111111
-1.03,-0.42,1163.888888888889
-1.03,-0.41,1166.6666666666667
-1.015,-0.41,1169.4444444444443
-1.0,-0.375,1172.2222222222222
-0.995,-0.385,1175.0
-1.0,-0.385,1177.7777777777778
-0.99,-0.4,1180.5555555555557
-0.995,-0.4,1183.3333333333333
-1.01,-0.415,1186.111111111111
-1.005,-0.415,1188.888888888889
-1.005,-0.415,1191.6666666666667
-1.01,-0.42,1194.4444444444443
-1.01,-0.42,1197.2222222222222
-1.01,-0.41,1200.0
-1.0,-0.405,1202.7777777777778
-0.98,-0.405,1205.5555555555557
-0.965,-0.405,1208.3333333333333
-0.99,-0.395,1211.111111111111
-0.99,-0.405,1213.888888888889
-0.99,-0.415,1216.6666666666667
-0.995,-0.425,1219.4444444444443
-1.015,-0.43,1222.2222222222222
-1.01,-0.43,1225.0
-1.01,-0.42,1227.7777777777778
-1.02,-0.405,1230.5555555555557
-1.005,-0.395,1233.3333333333333
-0.98,-0.38,1236.111111111111
-0.99,-0.375,1238.888888888889
-0.97,-0.37,1241.6666666666667
-0.97,-0.365,1244.4444444444443
-0.985,-0.38,1247.2222222222222
-1.005,-0.4,1250.0
-0.995,-0.4,1252.7777777777778
-1.02,-0.395,1255.5555555555557
-1.03,-0.415,1258.3333333333333
-1.025,-0.42,1261.111111111111
-1.015,-0.41,1263.888888888889
-1.01,-0.425,1266.6666666666667
-0.985,-0.395,1269.4444444444443
-0.985,-0.385,1272.2222222222222
-0.97,-0.38,1275.0
-0.96,-0.39,1277.7777777777778
-0.945,-0.395,1280.5555555555557
-0.96,-0.4,1283.3333333333333
-0.96,-0.405,1286.111111111111
-0.96,-0.405,1288.888888888889
-0.945,-0.41,1291.6666666666667
-0.945,-0.41,1294.4444444444443
-0.915,-0.41,1297.2222222222222
-0.9,-0.385,1300.0
-0.885,-0.365,1302.7777777777778
-0.895,-0.35,1305.5555555555557
-0.885,-0.335,1308.3333333333333
-0.895,-0.365,1311.111111111111
-0.87,-0.365,1313.888888888889
-0.845,-0.385,1316.6666666666667
-0.825,-0.385,1319.4444444444443
-0.81,-0.385,1322.2222222222222
-0.785,-0.375,1325.0
-0.785,-0.36,1327.7777777777778
-0.77,-0.345,1330.5555555555557
-0.78,-0.32,1333.3333333333333
-0.78,-0.305,1336.111111111111
-0.78,-0.31,1338.888888888889
-0.805,-0.32,1341.6666666666667
-0.82,-0.31,1344.4444444444443
-0.82,-0.305,1347.2222222222222
-0.83,-0.33,1350.0
-0.835,-0.34,1352.7777777777778
-0.84,-0.345,1355.5555555555557
-0.86,-0.355,1358.3333333333333
-0.86,-0.365,1361.111111111111
-0.88,-0.335,1363.888888888889
-0.91,-0.345,1366.6666666666667
-0.925,-0.34,1369.4444444444443
-0.95,-0.33,1372.2222222222222
-0.955,-0.345,1375.0
-0.985,-0.355,1377.7777777777778
-0.985,-0.38,1380.5555555555557
-0.995,-0.39,1383.3333333333333
-1.02,-0.39,1386.111111111111
-1.03,-0.415,1388.888888888889
-1.055,-0.405,1391.6666666666667
-1.06,-0.4,1394.4444444444443
-1.06,-0.4,1397.2222222222222
-1.045,-0.395,1400.0
-1.035,-0.37,1402.7777777777778
-1.04,-0.37,1405.5555555555557
-1.025,-0.365,1408.3333333333333
-1.025,-0.37,1411.111111111111
-1.02,-0.385,1413.888888888889
-1.035,-0.38,1416.6666666666667
-1.04,-0.4,1419.4444444444443
-1.07,-0.415,1422.2222222222222
-1.065,-0.4,1425.0
-1.07,-0.39,1427.7777777777778
-1.07,-0.385,1430.5555555555557
-1.06,-0.39,1433.3333333333333
-1.045,-0.385,1436.111111111111
-1.035,-0.375,1438.888888888889
-1.04,-0.38,1441.6666666666667
-1.05,-0.39,1444.4444444444443
-1.02,-0.39,1447.2222222222222
-1.02,-0.39,1450.0
-1.045,-0.405,1452.7777777777778
-1.02,-0.4,1455.5555555555557
-1.05,-0.4,1458.3333333333333
-1.035,-0.395,1461.111111111111
-1.045,-0.385,1463.888888888889
-1.02,-0.39,1466.6666666666667
-1.005,-0.37,1469.4444444444443
-1.005,-0.365,1472.2222222222222
-0.975,-0.355,1475.0
-0.985,-0.37,1477.7777777777778
-0.98,-0.37,1480.5555555555557
-0.98,-0.37,1483.3333333333333
-0.99,-0.375,1486.111111111111
-0.99,-0.365,1488.888888888889
-0.995,-0.345,1491.6666666666667
-0.995,-0.35,1494.4444444444443
-0.99,-0.315,1497.2222222222222
-0.975,-0.29,1500.0
-0.92,-0.24,1502.7777777777778
-0.82,-0.165,1505.5555555555557
-0.665,-0.06,1508.3333333333333
-0.43,0.095,1511.111111111111
-0.16,0.265,1513.888888888889
0.1,0.415,1516.6666666666667
0.37,0.525,1519.4444444444443
0.65,0.59,1522.2222222222222
0.895,0.605,1525.0
1.1,0.595,1527.7777777777778
1.13,0.56,1530.5555555555557
0.97,0.465,1533.3333333333333
0.63,0.315,1536.111111111111
0.155,0.11,1538.888888888889
-0.415,-0.185,1541.6666666666667
-1.005,-0.52,1544.4444444444443
-1.455,-0.85,1547.2222222222222
-1.73,-1.08,1550.0
-1.805,-1.205,1552.7777777777778
-1.74,-1.205,1555.5555555555557
-1.585,-1.085,1558.3333333333333
-1.43,-0.925,1561.111111111111
-1.315,-0.76,1563.888888888889
-1.235,-0.64,1566.6666666666667
-1.19,-0.555,1569.4444444444443
-1.145,-0.495,1572.2222222222222
-1.1,-0.465,1575.0
-1.07,-0.45,1577.7777777777778
-1.035,-0.45,1580.5555555555557
-0.985,-0.445,1583.3333333333333
-0.985,-0.455,1586.111111111111
-1.01,-0.425,1588.888888888889
-1.025,-0.425,1591.6666666666667
-1.025,-0.41,1594.4444444444443
-1.035,-0.405,1597.2222222222222
-1.035,-0.38,1600.0
-1.02,-0.37,1602.7777777777778
-1.01,-0.36,1605.5555555555557
-0.985,-0.335,1608.3333333333333
-0.985,-0.345,1611.111111111111
-0.985,-0.335,1613.888888888889
-0.99,-0.36,1616.6666666666667
-0.995,-0.365,1619.4444444444443
-1.005,-0.37,1622.2222222222222
-1.03,-0.37,1625.0
-1.02,-0.355,1627.7777777777778
-1.02,-0.355,1630.5555555555557
-1.015,-0.34,1633.3333333333333
-1.005,-0.33,1636.111111111111
-1.005,-0.31,1638.888888888889
-1.005,-0.31,1641.6666666666667
-0.995,-0.31,1644.4444444444443
-0.995,-0.32,1647.2222222222222
-1.005,-0.325,1650.0
-1.02,-0.335,1652.7777777777778
-1.025,-0.355,1655.5555555555557
-1.03,-0.36,1658.3333333333333
-1.03,-0.36,1661.111111111111
-1.015,-0.355,1663.888888888889
-1.0,-0.345,1666.6666666666667
-0.98,-0.335,1669.4444444444443
-0.99,-0.32,1672.2222222222222
-0.985,-0.305,1675.0
-0.995,-0.315,1677.7777777777778
-0.985,-0.32,1680.5555555555557
-0.985,-0.31,1683.3333333333333
-1.005,-0.33,1686.111111111111
-1.005,-0.32,1688.888888888889
-1.02,-0.33,1691.6666666666667
-1.025,-0.325,1694.4444444444443
-1.015,-0.32,1697.2222222222222
-1.015,-0.305,1700.0
-1.0,-0.29,1702.7777777777778
-1.0,-0.285,1705.5555555555557
-1.0,-0.28,1708.3333333333333
-0.985,-0.29,1711.111111111111
-0.965,-0.3,1713.888888888889
-0.985,-0.31,1716.6666666666667
-0.995,-0.325,1719.4444444444443
-0.995,-0.31,1722.2222222222222
-0.985,-0.32,1725.0
-0.985,-0.305,1727.7777777777778
-0.985,-0.3,1730.5555555555557
-0.975,-0.295,1733.3333333333333
-0.96,-0.27,1736.111111111111
-0.95,-0.27,1738.888888888889
-0.94,-0.27,1741.6666666666667
-0.94,-0.29,1744.4444444444443
-0.935,-0.265,1747.2222222222222
-0.94,-0.275,1750.0
-0.93,-0.275,1752.7777777777778
-0.935,-0.275,1755.5555555555557
-0.93,-0.27,1758.3333333333333
-0.92,-0.25,1761.111111111111
-0.915,-0.24,1763.888888888889
-0.885,-0.225,1766.6666666666667
-0.895,-0.22,1769.4444444444443
-0.88,-0.205,1772.2222222222222
-0.865,-0.19,1775.0
-0.87,-0.19,1777.7777777777778
-0.835,-0.185,1780.5555555555557
-0.82,-0.195,1783.3333333333333
-0.82,-0.22,1786.111111111111
-0.83,-0.205,1788.888888888889
-0.815,-0.2,1791.6666666666667
-0.84,-0.19,1794.4444444444443
-0.805,-0.17,1797.2222222222222
-0.795,-0.16,1800.0
-0.755,-0.15,1802.7777777777778
-0.725,-0.135,1805.5555555555557
-0.71,-0.115,1808.3333333333333
-0.695,-0.13,1811.111111111111
-0.675,-0.125,1813.888888888889
-0.675,-0.12,1816.6666666666667
-0.68,-0.125,1819.4444444444443
-0.675,-0.13,1822.2222222222222
-0.68,-0.135,1825.0
-0.655,-0.11,1827.7777777777778
-0.64,-0.1,1830.5555555555557
-0.63,-0.07,1833.3333333333333
-0.61,-0.065,1836.111111111111
-0.59,-0.055,1838.888888888889
-0.575,-0.05,1841.6666666666667
-0.57,-0.06,1844.4444444444443
-0.57,-0.065,1847.2222222222222
-0.585,-0.08,1850.0
-0.595,-0.095,1852.7777777777778
-0.605,-0.11,1855.5555555555557
-0.635,-0.12,1858.3333333333333
-0.645,-0.115,1861.111111111111
-0.65,-0.15,1863.888888888889
-0.65,-0.135,1866.6666666666667
-0.65,-0.14,1869.4444444444443
-0.67,-0.13,1872.2222222222222
-0.68,-0.15,1875.0
-0.71,-0.19,1877.7777777777778
-0.705,-0.19,1880.5555555555557
-0.735,-0.215,1883.3333333333333
-0.765,-0.25,1886.111111111111
-0.795,-0.27,1888.888888888889
-0.82,-0.29,1891.6666666666667
-0.825,-0.29,1894.4444444444443
-0.845,-0.295,1897.2222222222222
-0.85,-0.31,1900.0
-0.86,-0.295,1902.7777777777778
-0.87,-0.295,1905.5555555555557
-0.88,-0.295,1908.3333333333333
-0.875,-0.32,1911.111111111111
-0.88,-0.31,1913.888888888889
-0.915,-0.33,1916.6666666666667
-0.925,-0.335,1919.4444444444443
-0.945,-0.355,1922.2222222222222
-0.945,-0.365,1925.0
-0.975,-0.38,1927.7777777777778
-0.97,-0.37,1930.5555555555557
-0.98,-0.365,1933.3333333333333
-0.965,-0.36,1936.111111111111
-0.935,-0.35,1938.888888888889
-0.93,-0.355,1941.6666666666667
-0.935,-0.375,1944.4444444444443
-0.94,-0.365,1947.2222222222222
-0.945,-0.38,1950.0
-0.945,-0.385,1952.7777777777778
-0.965,-0.4,1955.5555555555557
-0.985,-0.405,1958.3333333333333
-0.99,-0.385,1961.111111111111
-0.98,-0.395,1963.888888888889
-0.975,-0.4,1966.6666666666667
-0.96,-0.39,1969.4444444444443
-0.96,-0.385,1972.2222222222222
-0.945,-0.38,1975.0
-0.945,-0.39,1977.7777777777778
-0.945,-0.395,1980.5555555555557
-0.945,-0.405,1983.3333333333333
-0.96,-0.4,1986.111111111111
-0.97,-0.405,1988.888888888889
-0.97,-0.4,1991.6666666666667
-0.98,-0.385,1994.4444444444443
-0.97,-0.395,1997.2222222222222
-0.965,-0.39,2000.0
-0.945,-0.385,2002.7777777777778
-0.94,-0.37,2005.5555555555557
-0.925,-0.37,2008.3333333333333
-0.925,-0.36,2011.111111111111
-0.925,-0.365,2013.888888888889
-0.935,-0.395,2016.6666666666667
-0.95,-0.385,2019.4444444444443
-0.955,-0.395,2022.2222222222222
-0.965,-0.4,2025.0
-0.955,-0.395,2027.7777777777778
-0.955,-0.395,2030.5555555555557
-0.955,-0.39,2033.3333333333333
-0.95,-0.37,2036.111111111111
-0.925,-0.38,2038.888888888889
-0.92,-0.355,2041.6666666666667
-0.9,-0.36,2044.4444444444443
-0.92,-0.365,2047.2222222222222
-0.925,-0.395,2050.0
-0.925,-0.39,2052.777777777778
-0.93,-0.405,2055.5555555555557
-0.93,-0.39,2058.3333333333335
-0.94,-0.38,2061.1111111111113
-0.92,-0.385,2063.8888888888887
-0.905,-0.375,2066.6666666666665
-0.9,-0.365,2069.4444444444443
-0.915,-0.33,2072.222222222222
-0.9,-0.33,2075.0
-0.89,-0.335,2077.777777777778
-0.885,-0.34,2080.5555555555557
-0.9,-0.355,2083.3333333333335
-0.905,-0.37,2086.1111111111113
-0.9,-0.375,2088.8888888888887
-0.905,-0.375,2091.6666666666665
-0.92,-0.37,2094.4444444444443
-0.925,-0.37,2097.222222222222
-0.925,-0.355,2100.0
-0.915,-0.34,2102.777777777778
-0.905,-0.33,2105.5555555555557
-0.895,-0.335,2108.3333333333335
-0.9,-0.34,2111.1111111111113
-0.895,-0.36,2113.8888888888887
-0.895,-0.37,2116.6666666666665
-0.9,-0.385,2119.4444444444443
-0.915,-0.4,2122.222222222222
-0.92,-0.41,2125.0
-0.935,-0.4,2127.777777777778
-0.94,-0.39,2130.5555555555557
-0.945,-0.39,2133.3333333333335
-0.935,-0.38,2136.1111111111113
-0.92,-0.37,2138.8888888888887
-0.92,-0.355,2141.6666666666665
-0.925,-0.375,2144.4444444444443
-0.92,-0.375,2147.222222222222
-0.93,-0.385,2150.0
-0.935,-0.405,2152.777777777778
-0.96,-0.42,2155.5555555555557
-0.96,-0.41,2158.3333333333335
-0.965,-0.4,2161.1111111111113
-0.945,-0.4,2163.8888888888887
-0.96,-0.39,2166.6666666666665
-0.95,-0.38,2169.4444444444443
-0.95,-0.375,2172.222222222222
-0.955,-0.38,2175.0
-0.95,-0.385,2177.777777777778
-0.94,-0.385,2180.5555555555557
-0.95,-0.405,2183.3333333333335
-0.97,-0.41,2186.1111111111113
-0.97,-0.44,2188.8888888888887
-0.98,-0.43,2191.6666666666665
-0.98,-0.425,2194.4444444444443
-0.98,-0.44,2197.222222222222
-0.97,-0.435,2200.0
-0.965,-0.435,2202.777777777778
-0.975,-0.405,2205.5555555555557
-0.965,-0.41,2208.3333333333335
-0.975,-0.415,2211.1111111111113
-0.965,-0.415,2213.8888888888887
-0.975,-0.43,2216.6666666666665
-0.98,-0.44,2219.4444444444443
-0.99,-0.47,2222.222222222222
-1.0,-0.465,2225.0
-1.015,-0.46,2227.777777777778
-1.01,-0.455,2230.5555555555557
-0.995,-0.44,2233.3333333333335
-0.975,-0.445,2236.1111111111113
-0.975,-0.425,2238.8888888888887
-0.965,-0.425,2241.6666666666665
-0.96,-0.425,2244.4444444444443
-0.97,-0.43,2247.222222222222
-0.975,-0.445,2250.0
-0.97,-0.45,2252.777777777778
-1.005,-0.465,2255.5555555555557
-0.995,-0.48,2258.3333333333335
-1.005,-0.47,2261.1111111111113
-1.0,-0.465,2263.8888888888887
-0.995,-0.475,2266.6666666666665
-0.97,-0.46,2269.4444444444443
-0.98,-0.445,2272.222222222222
-0.965,-0.435,2275.0
-0.965,-0.44,2277.777777777778
-0.965,-0.46,2280.5555555555557
-0.975,-0.455,2283.3333333333335
-0.99,-0.465,2286.1111111111113
-1.005,-0.465,2288.8888888888887
-1.01,-0.47,2291.6666666666665
-1.015,-0.45,2294.4444444444443
-1.015,-0.455,2297.222222222222
-1.015,-0.44,2300.0
-0.985,-0.455,2302.777777777778
-0.97,-0.45,2305.5555555555557
-0.98,-0.445,2308.3333333333335
-0.98,-0.455,2311.1111111111113
-0.965,-0.46,2313.8888888888887
-0.99,-0.465,2316.6666666666665
-0.985,-0.475,2319.4444444444443
-1.0,-0.48,2322.222222222222
-1.005,-0.48,2325.0
-1.0,-0.485,2327.777777777778
-1.0,-0.47,2330.5555555555557
-1.01,-0.46,2333.3333333333335
-1.005,-0.46,2336.1111111111113
-0.995,-0.47,2338.8888888888887
-0.99,-0.455,2341.6666666666665
-0.965,-0.465,2344.4444444444443
-0.97,-0.46,2347.222222222222
-0.985,-0.475,2350.0
-0.98,-0.49,2352.777777777778
-1.005,-0.49,2355.5555555555557
-1.005,-0.495,2358.3333333333335
-1.015,-0.5,2361.1111111111113
-1.01,-0.475,2363.8888888888887
-1.005,-0.465,2366.6666666666665
-1.0,-0.47,2369.4444444444443
-0.98,-0.435,2372.222222222222
-0.985,-0.44,2375.0
-0.985,-0.455,2377.777777777778
-0.975,-0.46,2380.5555555555557
-0.98,-0.47,2383.3333333333335
-0.99,-0.475,2386.1111111111113
-0.99,-0.475,2388.8888888888887
-0.995,-0.495,2391.6666666666665
-1.005,-0.49,2394.4444444444443
-1.01,-0.48,2397.222222222222
-1.01,-0.47,2400.0
-0.995,-0.45,2402.777777777778
-1.0,-0.47,2405.5555555555557
-0.98,-0.45,2408.3333333333335
-0.97,-0.465,2411.1111111111113
-0.965,-0.48,2413.8888888888887
-0.975,-0.465,2416.6666666666665
-0.995,-0.49,2419.4444444444443
-1.005,-0.51,2422.222222222222
-1.0,-0.5,2425.0
-1.0,-0.505,2427.777777777778
-1.005,-0.485,2430.5555555555557
-0.99,-0.48,2433.3333333333335
-0.985,-0.48,2436.1111111111113
-0.99,-0.46,2438.8888888888887
-0.97,-0.445,2441.6666666666665
-0.98,-0.445,2444.4444444444443
-0.98,-0.45,2447.222222222222
-0.97,-0.47,2450.0
-0.995,-0.47,2452.777777777778
-1.005,-0.475,2455.5555555555557
-0.995,-0.49,2458.3333333333335
-1.01,-0.49,2461.1111111111113
-1.0,-0.48,2463.8888888888887
-1.005,-0.47,2466.6666666666665
-0.995,-0.47,2469.4444444444443
-0.985,-0.445,2472.222222222222
-0.965,-0.445,2475.0
-0.97,-0.445,2477.777777777778
-0.96,-0.46,2480.5555555555557
-0.98,-0.47,2483.3333333333335
-0.985,-0.48,2486.1111111111113
-0.995,-0.48,2488.8888888888887
-1.005,-0.505,2491.6666666666665
-1.0,-0.505,2494.4444444444443
-1.0,-0.49,2497.222222222222
-0.99,-0.48,2500.0
-0.975,-0.47,2502.777777777778
-0.95,-0.47,2505.5555555555557
-0.95,-0.45,2508.3333333333335
-0.955,-0.465,2511.1111111111113
-0.965,-0.46,2513.8888888888887
-0.98,-0.46,2516.6666666666665
-0.98,-0.47,2519.4444444444443
-0.98,-0.48,2522.222222222222
-0.985,-0.485,2525.0
-0.995,-0.485,2527.777777777778
-0.99,-0.465,2530.5555555555557
-0.985,-0.465,2533.3333333333335
-0.96,-0.47,2536.1111111111113
-0.955,-0.46,2538.8888888888887
-0.95,-0.435,2541.6666666666665
-0.955,-0.445,2544.4444444444443
-0.965,-0.45,2547.222222222222
-0.965,-0.46,2550.0
-0.965,-0.47,2552.777777777778
-0.98,-0.485,2555.5555555555557
-0.97,-0.475,2558.3333333333335
-0.985,-0.49,2561.1111111111113
-0.985,-0.47,2563.8888888888887
-0.97,-0.475,2566.6666666666665
-0.96,-0.47,2569.4444444444443
-0.955,-0.455,2572.222222222222
-0.94,-0.445,2575.0
-0.94,-0.455,2577.777777777778
-0.945,-0.47,2580.5555555555557
-0.94,-0.465,2583.3333333333335
-0.95,-0.465,2586.1111111111113
-0.95,-0.48,2588.8888888888887
-0.96,-0.475,2591.6666666666665
-0.97,-0.47,2594.4444444444443
-0.955,-0.465,2597.222222222222
-0.96,-0.46,2600.0
-0.93,-0.45,2602.777777777778
-0.88,-0.44,2605.5555555555557
-0.855,-0.43,2608.3333333333335
-0.85,-0.44,2611.1111111111113
-0.85,-0.445,2613.8888888888887
-0.86,-0.45,2616.6666666666665
-0.875,-0.47,2619.4444444444443
-0.855,-0.465,2622.222222222222
-0.84,-0.47,2625.0
-0.84,-0.475,2627.777777777778
-0.81,-0.44,2630.5555555555557
-0.78,-0.43,2633.3333333333335
-0.745,-0.425,2636.1111111111113
-0.74,-0.395,2638.8888888888887
-0.72,-0.4,2641.6666666666665
-0.74,-0.4,2644.4444444444443
-0.75,-0.41,2647.222222222222
-0.77,-0.42,2650.0
-0.795,-0.435,2652.777777777778
-0.805,-0.435,2655.5555555555557
-0.83,-0.415,2658.3333333333335
-0.82,-0.415,2661.1111111111113
-0.815,-0.395,2663.8888888888887
-0.85,-0.385,2666.6666666666665
-0.82,-0.365,2669.4444444444443
-0.835,-0.375,2672.222222222222
-0.835,-0.365,2675.0
-0.85,-0.39,2677.777777777778
-0.895,-0.42,2680.5555555555557
-0.935,-0.43,2683.3333333333335
-0.965,-0.43,2686.1111111111113
-0.98,-0.465,2688.8888888888887
-1.0,-0.47,2691.6666666666665
-1.005,-0.465,2694.4444444444443
-1.015,-0.465,2697.222222222222
-1.02,-0.46,2700.0
-1.025,-0.45,2702.777777777778
-1.01,-0.465,2705.5555555555557
-1.0,-0.455,2708.3333333333335
-1.005,-0.465,2711.1111111111113
-1.0,-0.465,2713.8888888888887
-1.01,-0.47,2716.6666666666665
-1.005,-0.485,2719.4444444444443
-1.035,-0.5,2722.222222222222
-1.03,-0.505,2725.0
-1.035,-0.485,2727.777777777778
-1.04,-0.48,2730.5555555555557
-1.04,-0.47,2733.3333333333335
-1.035,-0.455,2736.1111111111113
-1.025,-0.44,2738.8888888888887
-1.0,-0.45,2741.6666666666665
-1.015,-0.44,2744.4444444444443
-0.995,-0.45,2747.222222222222
-1.005,-0.45,2750.0
-1.025,-0.45,2752.777777777778
-1.015,-0.475,2755.5555555555557
-1.02,-0.485,2758.3333333333335
-1.025,-0.465,2761.1111111111113
-1.02,-0.46,2763.8888888888887
-1.01,-0.465,2766.6666666666665
-1.0,-0.44,2769.4444444444443
-0.985,-0.43,2772.222222222222
-0.965,-0.44,2775.0
-0.97,-0.425,2777.777777777778
-0.97,-0.445,2780.5555555555557
-0.965,-0.465,2783.3333333333335
-0.975,-0.465,2786.1111111111113
-0.98,-0.47,2788.8888888888887
-0.97,-0.47,2791.6666666666665
-0.97,-0.46,2794.4444444444443
-0.955,-0.445,2797.222222222222
-0.93,-0.44,2800.0
-0.915,-0.39,2802.777777777778
-0.9,-0.36,2805.5555555555557
-0.87,-0.33,2808.3333333333335
-0.795,-0.27,2811.1111111111113
-0.69,-0.175,2813.8888888888887
-0.5,-0.06,2816.6666666666665
-0.29,0.1,2819.4444444444443
-0.035,0.245,2822.222222222222
0.24,0.375,2825.0
0.52,0.44,2827.777777777778
0.81,0.47,2830.5555555555557
1.1,0.485,2833.3333333333335
1.295,0.49,2836.1111111111113
1.32,0.48,2838.8888888888887
1.17,0.415,2841.6666666666665
0.825,0.31,2844.4444444444443
0.32,0.12,2847.222222222222
-0.295,-0.16,2850.0
-0.87,-0.5,2852.777777777778
-1.34,-0.835,2855.5555555555557
-1.635,-1.115,2858.3333333333335
-1.69,-1.23,2861.1111111111113
-1.585,-1.185,2863.8888888888887
-1.38,-1.035,2866.6666666666665
-1.175,-0.85,2869.4444444444443
-1.055,-0.675,2872.222222222222
-0.995,-0.585,2875.0
-0.99,-0.525,2877.777777777778
-1.015,-0.52,2880.5555555555557
-1.03,-0.535,2883.3333333333335
-1.03,-0.53,2886.1111111111113
-1.03,-0.535,2888.8888888888887
-1.01,-0.52,2891.6666666666665
-0.995,-0.495,2894.4444444444443
-0.98,-0.46,2897.222222222222
-0.96,-0.445,2900.0
-0.96,-0.43,2902.777777777778
-0.965,-0.415,2905.5555555555557
-0.975,-0.43,2908.3333333333335
-0.96,-0.415,2911.1111111111113
-0.96,-0.44,2913.8888888888887
-0.975,-0.46,2916.6666666666665
-0.97,-0.435,2919.4444444444443
-0.965,-0.455,2922.222222222222
-0.98,-0.445,2925.0
-0.975,-0.45,2927.777777777778
-0.955,-0.43,2930.5555555555557
-0.96,-0.435,2933.3333333333335
-0.955,-0.425,2936.1111111111113
-0.94,-0.415,2938.8888888888887
-0.935,-0.42,2941.6666666666665
-0.935,-0.415,2944.4444444444443
-0.945,-0.425,2947.222222222222
-0.96,-0.42,2950.0
-0.965,-0.43,2952.777777777778
-0.975,-0.445,2955.5555555555557
-0.98,-0.435,2958.3333333333335
-0.975,-0.425,2961.1111111111113
-0.975,-0.41,2963.8888888888887
-0.965,-0.41,2966.6666666666665
-0.945,-0.395,2969.4444444444443
-0.96,-0.4,2972.222222222222
-0.925,-0.405,2975.0
-0.935,-0.405,2977.777777777778
-0.935,-0.415,2980.5555555555557
-0.935,-0.405,2983.3333333333335
-0.955,-0.405,2986.1111111111113
-0.96,-0.415,2988.8888888888887
-0.945,-0.415,2991.6666666666665
-0.975,-0.415,2994.4444444444443
-0.96,-0.405,2997.222222222222
-0.955,-0.375,3000.0
-0.95,-0.385,3002.777777777778
-0.925,-0.355,3005.5555555555557
-0.925,-0.375,3008.3333333333335
-0.935,-0.38,3011.1111111111113
-0.925,-0.405,3013.8888888888887
-0.945,-0.375,3016.6666666666665
-0.94,-0.4,3019.4444444444443
-0.93,-0.395,3022.222222222222
-0.93,-0.4,3025.0
-0.93,-0.395,3027.777777777778
-0.92,-0.37,3030.5555555555557
-0.905,-0.385,3033.3333333333335
-0.9,-0.345,3036.1111111111113
-0.885,-0.35,3038.8888888888887
-0.875,-0.335,3041.6666666666665
-0.87,-0.33,3044.4444444444443
-0.87,-0.335,3047.222222222222
-0.885,-0.325,3050.0
-0.875,-0.34,3052.777777777778
-0.87,-0.345,3055.5555555555557
-0.87,-0.33,3058.3333333333335
-0.865,-0.34,3061.1111111111113
-0.855,-0.315,3063.8888888888887
-0.835,-0.295,3066.6666666666665
-0.815,-0.29,3069.4444444444443
-0.79,-0.27,3072.222222222222
-0.78,-0.255,3075.0
-0.77,-0.265,3077.777777777778
-0.77,-0.275,3080.5555555555557
-0.765,-0.275,3083.3333333333335
-0.765,-0.29,3086.1111111111113
-0.75,-0.275,3088.8888888888887
-0.735,-0.265,3091.6666666666665
-0.735,-0.245,3094.4444444444443
-0.72,-0.235,3097.222222222222
-0.685,-0.225,3100.0
-0.655,-0.2,3102.777777777778
-0.635,-0.175,3105.5555555555557
-0.615,-0.155,3108.3333333333335
-0.595,-0.16,3111.1111111111113
-0.59,-0.165,3113.8888888888887
-0.585,-0.14,3116.6666666666665
-0.575,-0.16,3119.4444444444443
-0.565,-0.155,3122.222222222222
-0.565,-0.15,3125.0
-0.55,-0.12,3127.777777777778
-0.535,-0.125,3130.5555555555557
-0.51,-0.095,3133.3333333333335
-0.475,-0.085,3136.1111111111113
-0.465,-0.075,3138.8888888888887
-0.43,-0.09,3141.6666666666665
-0.45,-0.075,3144.4444444444443
-0.435,-0.07,3147.222222222222
-0.455,-0.095,3150.0
-0.45,-0.095,3152.777777777778
-0.455,-0.12,3155.5555555555557
-0.475,-0.115,3158.3333333333335
-0.485,-0.12,3161.1111111111113
-0.495,-0.115,3163.8888888888887
-0.485,-0.12,3166.6666666666665
-0.485,-0.14,3169.4444444444443
-0.49,-0.155,3172.222222222222
-0.515,-0.16,3175.0
-0.545,-0.17,3177.777777777778
-0.58,-0.185,3180.5555555555557
-0.61,-0.22,3183.3333333333335
-0.63,-0.265,3186.1111111111113
-0.665,-0.275,3188.8888888888887
-0.685,-0.285,3191.6666666666665
-0.71,-0.29,3194.4444444444443
-0.725,-0.295,3197.222222222222
-0.725,-0.31,3200.0
-0.74,-0.32,3202.777777777778
-0.74,-0.325,3205.5555555555557
-0.76,-0.33,3208.3333333333335
-0.775,-0.355,3211.1111111111113
-0.785,-0.37,3213.8888888888887
-0.8,-0.395,3216.6666666666665
-0.83,-0.41,3219.4444444444443
-0.855,-0.415,3222.222222222222
-0.86,-0.425,3225.0
-0.865,-0.425,3227.777777777778
-0.86,-0.43,3230.5555555555557
-0.86,-0.42,3233.3333333333335
-0.86,-0.425,3236.1111111111113
-0.845,-0.41,3238.8888888888887
-0.845,-0.43,3241.6666666666665
-0.86,-0.43,3244.4444444444443
-0.87,-0.45,3247.222222222222
-0.87,-0.45,3250.0
-0.87,-0.47,3252.777777777778
-0.88,-0.47,3255.5555555555557
-0.885,-0.47,3258.3333333333335
-0.89,-0.465,3261.1111111111113
-0.89,-0.445,3263.8888888888887
-0.885,-0.425,3266.6666666666665
-0.875,-0.425,3269.4444444444443
-0.865,-0.425,3272.222222222222
-0.88,-0.435,3275.0
-0.875,-0.435,3277.777777777778
-0.88,-0.44,3280.5555555555557
-0.875,-0.455,3283.3333333333335
-0.89,-0.455,3286.1111111111113
-0.89,-0.465,3288.8888888888887
-0.89,-0.465,3291.6666666666665
-0.895,-0.45,3294.4444444444443
-0.89,-0.455,3297.222222222222
-0.865,-0.445,3300.0
-0.875,-0.44,3302.777777777778
-0.86,-0.43,3305.5555555555557
-0.865,-0.455,3308.3333333333335
-0.87,-0.435,3311.1111111111113
-0.86,-0.44,3313.8888888888887
-0.86,-0.465,3316.6666666666665
-0.865,-0.47,3319.4444444444443
-0.865,-0.465,3322.222222222222
-0.875,-0.475,3325.0
-0.89,-0.46,3327.777777777778
-0.885,-0.445,3330.5555555555557
-0.87,-0.44,3333.3333333333335
-0.855,-0.44,3336.1111111111113
-0.845,-0.415,3338.8888888888887
-0.845,-0.425,3341.6666666666665
-0.84,-0.415,3344.4444444444443
-0.855,-0.42,3347.222222222222
-0.865,-0.44,3350.0
-0.875,-0.46,3352.777777777778
-0.875,-0.45,3355.5555555555557
-0.865,-0.45,3358.3333333333335
-0.855,-0.45,3361.1111111111113
-0.86,-0.435,3363.8888888888887
-0.845,-0.43,3366.6666666666665
-0.845,-0.41,3369.4444444444443
-0.835,-0.4,3372.222222222222
-0.835,-0.41,3375.0
-0.84,-0.405,3377.777777777778
-0.835,-0.42,3380.5555555555557
-0.845,-0.44,3383.3333333333335
-0.855,-0.445,3386.1111111111113
-0.86,-0.46,3388.8888888888887
-0.87,-0.46,3391.6666666666665
-0.875,-0.455,3394.4444444444443
-0.865,-0.44,3397.222222222222
-0.855,-0.425,3400.0
-0.865,-0.425,3402.777777777778
-0.86,-0.405,3405.5555555555557
-0.855,-0.42,3408.3333333333335
-0.855,-0.415,3411.1111111111113
-0.855,-0.43,3413.8888888888887
-0.875,-0.435,3416.6666666666665
-0.885,-0.44,3419.4444444444443
-0.895,-0.455,3422.222222222222
-0.89,-0.445,3425.0
-0.895,-0.445,3427.777777777778
-0.895,-0.44,3430.5555555555557
-0.87,-0.43,3433.3333333333335
-0.875,-0.41,3436.1111111111113
-0.865,-0.415,3438.8888888888887
-0.87,-0.42,3441.6666666666665
-0.865,-0.415,3444.4444444444443
-0.875,-0.435,3447.222222222222
-0.885,-0.455,3450.0
-0.885,-0.465,3452.777777777778
-0.915,-0.48,3455.5555555555557
-0.91,-0.485,3458.3333333333335
-0.915,-0.47,3461.1111111111113
-0.915,-0.475,3463.8888888888887
-0.895,-0.475,3466.6666666666665
-0.9,-0.45,3469.4444444444443
-0.885,-0.455,3472.222222222222
-0.88,-0.455,3475.0
-0.87,-0.455,3477.777777777778
-0.89,-0.455,3480.5555555555557
-0.9,-0.485,3483.3333333333335
-0.91,-0.49,3486.1111111111113
-0.91,-0.485,3488.8888888888887
-0.915,-0.5,3491.6666666666665
-0.925,-0.505,3494.4444444444443
-0.92,-0.485,3497.222222222222
-0.91,-0.46,3500.0
-0.9,-0.445,3502.777777777778
-0.895,-0.44,3505.5555555555557
-0.895,-0.45,3508.3333333333335
-0.895,-0.455,3511.1111111111113
-0.89,-0.46,3513.8888888888887
-0.89,-0.455,3516.6666666666665
-0.905,-0.46,3519.4444444444443
-0.92,-0.485,3522.222222222222
-0.94,-0.48,3525.0
-0.935,-0.48,3527.777777777778
-0.95,-0.465,3530.5555555555557
-0.945,-0.475,3533.3333333333335
-0.905,-0.455,3536.1111111111113
-0.9,-0.45,3538.8888888888887
-0.91,-0.47,3541.6666666666665
-0.895,-0.465,3544.4444444444443
-0.905,-0.475,3547.222222222222
-0.935,-0.475,3550.0
-0.935,-0.5,3552.777777777778
-0.93,-0.5,3555.5555555555557
-0.945,-0.495,3558.3333333333335
-0.945,-0.475,3561.1111111111113
-0.93,-0.47,3563.8888888888887
-0.925,-0.46,3566.6666666666665
-0.925,-0.455,3569.4444444444443
-0.905,-0.45,3572.222222222222
-0.905,-0.445,3575.0
-0.9,-0.455,3577.777777777778
-0.905,-0.45,3580.5555555555557
-0.915,-0.46,3583.3333333333335
-0.915,-0.47,3586.1111111111113
-0.925,-0.465,3588.8888888888887
-0.935,-0.49,3591.6666666666665
-0.93,-0.475,3594.4444444444443
-0.94,-0.455,3597.222222222222
-0.925,-0.47,3600.0
-0.92,-0.465,3602.777777777778
-0.915,-0.465,3605.5555555555557
-0.915,-0.47,3608.3333333333335
-0.905,-0.465,3611.1111111111113
-0.91,-0.475,3613.8888888888887
-0.91,-0.485,3616.6666666666665
-0.925,-0.49,3619.4444444444443
-0.925,-0.505,3622.222222222222
-0.94,-0.485,3625.0
-0.95,-0.49,3627.777777777778
-0.925,-0.485,3630.5555555555557
-0.93,-0.47,3633.3333333333335
-0.905,-0.465,3636.1111111111113
-0.905,-0.455,3638.8888888888887
-0.905,-0.455,3641.6666666666665
-0.905,-0.465,3644.4444444444443
-0.9,-0.46,3647.222222222222
-0.92,-0.455,3650.0
-0.92,-0.47,3652.777777777778
-0.93,-0.47,3655.5555555555557
-0.935,-0.46,3658.3333333333335
-0.94,-0.465,3661.1111111111113
-0.93,-0.465,3663.8888888888887
-0.925,-0.46,3666.6666666666665
-0.925,-0.46,3669.4444444444443
-0.92,-0.455,3672.222222222222
-0.91,-0.45,3675.0
-0.905,-0.45,3677.777777777778
-0.905,-0.46,3680.5555555555557
-0.915,-0.47,3683.3333333333335
-0.935,-0.475,3686.1111111111113
-0.93,-0.505,3688.8888888888887
-0.94,-0.48,3691.6666666666665
-0.945,-0.495,3694.4444444444443
-0.94,-0.485,3697.222222222222
-0.95,-0.47,3700.0
-0.94,-0.465,3702.777777777778
-0.94,-0.455,3705.5555555555557
-0.93,-0.47,3708.3333333333335
-0.945,-0.45,3711.1111111111113
-0.92,-0.47,3713.8888888888887
-0.945,-0.475,3716.6666666666665
-0.955,-0.48,3719.4444444444443
-0.955,-0.49,3722.222222222222
-0.955,-0.485,3725.0
-0.955,-0.47,3727.777777777778
-0.955,-0.465,3730.5555555555557
-0.94,-0.47,3733.3333333333335
-0.94,-0.455,3736.1111111111113
-0.935,-0.445,3738.8888888888887
-0.94,-0.445,3741.6666666666665
-0.93,-0.455,3744.4444444444443
-0.92,-0.465,3747.222222222222
-0.925,-0.46,3750.0
-0.935,-0.485,3752.777777777778
-0.935,-0.495,3755.5555555555557
-0.935,-0.48,3758.3333333333335
-0.935,-0.495,3761.1111111111113
-0.945,-0.465,3763.8888888888887
-0.945,-0.465,3766.6666666666665
-0.935,-0.47,3769.4444444444443
-0.93,-0.45,3772.222222222222
-0.905,-0.475,3775.0
-0.915,-0.465,3777.777777777778
-0.915,-0.48,3780.5555555555557
-0.935,-0.5,3783.3333333333335
-0.935,-0.51,3786.1111111111113
-0.945,-0.5,3788.8888888888887
-0.945,-0.505,3791.6666666666665
-0.95,-0.49,3794.4444444444443
-0.955,-0.465,3797.222222222222
-0.95,-0.485,3800.0
-0.93,-0.455,3802.777777777778
-0.905,-0.45,3805.5555555555557
-0.915,-0.445,3808.3333333333335
-0.925,-0.455,3811.1111111111113
-0.925,-0.46,3813.8888888888887
-0.93,-0.47,3816.6666666666665
-0.935,-0.475,3819.4444444444443
-0.95,-0.485,3822.222222222222
-0.94,-0.485,3825.0
-0.945,-0.49,3827.777777777778
-0.955,-0.465,3830.5555555555557
-0.925,-0.46,3833.3333333333335
-0.93,-0.46,3836.1111111111113
-0.915,-0.435,3838.8888888888887
-0.915,-0.45,3841.6666666666665
-0.93,-0.46,3844.4444444444443
-0.915,-0.49,3847.222222222222
-0.93,-0.47,3850.0
-0.93,-0.51,3852.777777777778
-0.935,-0.505,3855.5555555555557
-0.94,-0.495,3858.3333333333335
-0.94,-0.51,3861.1111111111113
-0.93,-0.48,3863.8888888888887
-0.925,-0.48,3866.6666666666665
-0.91,-0.45,3869.4444444444443
-0.91,-0.445,3872.222222222222
-0.895,-0.435,3875.0
-0.9,-0.44,3877.777777777778
-0.91,-0.47,3880.5555555555557
-0.915,-0.455,3883.3333333333335
-0.925,-0.465,3886.1111111111113
-0.94,-0.485,3888.8888888888887
-0.94,-0.48,3891.6666666666665
-0.94,-0.47,3894.4444444444443
-0.93,-0.46,3897.222222222222
-0.94,-0.47,3900.0
-0.905,-0.44,3902.777777777778
-0.895,-0.435,3905.5555555555557
-0.88,-0.45,3908.3333333333335
-0.875,-0.46,3911.1111111111113
-0.89,-0.46,3913.8888888888887
-0.895,-0.475,3916.6666666666665
-0.9,-0.48,3919.4444444444443
-0.895,-0.485,3922.222222222222
-0.885,-0.475,3925.0
-0.855,-0.48,3927.777777777778
-0.835,-0.475,3930.5555555555557
-0.82,-0.455,3933.3333333333335
-0.81,-0.46,3936.1111111111113
-0.795,-0.45,3938.8888888888887
-0.79,-0.445,3941.6666666666665
-0.79,-0.435,3944.4444444444443
-0.785,-0.45,3947.222222222222
-0.77,-0.435,3950.0
-0.755,-0.45,3952.777777777778
-0.73,-0.435,3955.5555555555557
-0.71,-0.435,3958.3333333333335
-0.705,-0.41,3961.1111111111113
-0.695,-0.41,3963.8888888888887
-0.685,-0.4,3966.6666666666665
-0.69,-0.38,3969.4444444444443
-0.695,-0.37,3972.222222222222
-0.695,-0.38,3975.0
-0.72,-0.375,3977.777777777778
-0.735,-0.395,3980.5555555555557
-0.75,-0.39,3983.3333333333335
-0.75,-0.405,3986.1111111111113
-0.765,-0.395,3988.8888888888887
-0.755,-0.39,3991.6666666666665
-0.765,-0.375,3994.4444444444443
-0.77,-0.39,3997.222222222222
-0.785,-0.365,4000.0
-0.81,-0.395,4002.777777777778
-0.84,-0.39,4005.5555555555557
-0.865,-0.405,4008.3333333333335
-0.87,-0.42,4011.1111111111113
-0.895,-0.435,4013.8888888888887
-0.92,-0.45,4016.6666666666665
-0.93,-0.47,4019.4444444444443
-0.94,-0.47,4022.222222222222
-0.955,-0.47,4025.0
-0.97,-0.465,4027.777777777778
-0.97,-0.46,4030.5555555555557
-0.97,-0.455,4033.3333333333335
-0.97,-0.425,4036.1111111111113
-0.95,-0.445,4038.8888888888887
-0.935,-0.435,4041.6666666666665
-0.95,-0.445,4044.4444444444443
-0.95,-0.445,4047.222222222222
-0.96,-0.445,4050.0
-0.975,-0.47,4052.777777777778
-0.98,-0.455,4055.5555555555557
-0.99,-0.485,4058.3333333333335
-0.995,-0.45,4061.1111111111113
-0.975,-0.46,4063.8888888888887
-0.985,-0.455,4066.6666666666665
-0.965,-0.455,4069.4444444444443
-0.95,-0.435,4072.222222222222
-0.94,-0.435,4075.0
-0.945,-0.455,4077.777777777778
-0.955,-0.46,4080.5555555555557
-0.95,-0.465,4083.3333333333335
-0.97,-0.47,4086.1111111111113
-0.975,-0.47,4088.8888888888887
-0.97,-0.485,4091.6666666666665
-0.965,-0.46,4094.4444444444443
-0.985,-0.45,4097.222222222223
-0.955,-0.455,4100.0
-0.95,-0.44,4102.777777777777
-0.945,-0.42,4105.555555555556
-0.935,-0.43,4108.333333333333
-0.925,-0.41,4111.111111111111
-0.92,-0.43,4113.888888888889
-0.93,-0.435,4116.666666666667
-0.92,-0.44,4119.444444444444
-0.91,-0.45,4122.222222222223
-0.915,-0.44,4125.0
-0.915,-0.425,4127.777777777777
-0.905,-0.405,4130.555555555556
-0.875,-0.38,4133.333333333333
-0.84,-0.36,4136.111111111111
-0.805,-0.3,4138.888888888889
-0.705,-0.215,4141.666666666667
-0.545,-0.1,4144.444444444444
-0.32,0.05,4147.222222222223
-0.025,0.245,4150.0
0.265,0.365,4152.777777777777
0.58,0.45,4155.555555555556
0.895,0.51,4158.333333333333
1.18,0.53,4161.111111111111
1.315,0.52,4163.888888888889
1.26,0.47,4166.666666666667
0.99,0.35,4169.444444444444
0.53,0.19,4172.222222222223
-0.075,-0.085,4175.0
-0.71,-0.43,4177.777777777777
-1.22,-0.775,4180.555555555556
-1.555,-1.065,4183.333333333333
-1.655,-1.215,4186.111111111111
-1.57,-1.2,4188.888888888889
-1.4,-1.085,4191.666666666667
-1.21,-0.895,4194.444444444444
-1.095,-0.73,4197.222222222223
-1.035,-0.61,4200.0
-1.01,-0.555,4202.777777777777
-1.01,-0.515,4205.555555555556
-1.01,-0.52,4208.333333333333
-0.985,-0.52,4211.111111111111
-0.965,-0.52,4213.888888888889
-0.93,-0.51,4216.666666666667
-0.925,-0.505,4219.444444444444
-0.94,-0.49,4222.222222222223
-0.945,-0.495,4225.0
-0.96,-0.485,4227.777777777777
-0.965,-0.475,4230.555555555556
-0.955,-0.465,4233.333333333333
-0.935,-0.44,4236.111111111111
-0.925,-0.455,4238.888888888889
-0.935,-0.43,4241.666666666667
-0.92,-0.43,4244.444444444444
-0.93,-0.425,4247.222222222223
-0.935,-0.435,4250.0
-0.93,-0.435,4252.777777777777
-0.935,-0.45,4255.555555555556
-0.95,-0.44,4258.333333333333
-0.945,-0.44,4261.111111111111
-0.935,-0.425,4263.888888888889
-0.945,-0.435,4266.666666666667
-0.935,-0.41,4269.444444444444
-0.93,-0.395,4272.222222222223
-0.92,-0.39,4275.0
-0.925,-0.375,4277.777777777777
-0.91,-0.395,4280.555555555556
-0.925,-0.39,4283.333333333333
-0.94,-0.415,4286.111111111111
-0.93,-0.425,4288.888888888889
-0.945,-0.42,4291.666666666667
-0.945,-0.425,4294.444444444444
-0.945,-0.42,4297.222222222223
-0.935,-0.425,4300.0
-0.92,-0.405,4302.777777777777
-0.92,-0.39,4305.555555555556
-0.91,-0.4,4308.333333333333
-0.91,-0.385,4311.111111111111
-0.91,-0.4,4313.888888888889
-0.925,-0.405,4316.666666666667
-0.94,-0.405,4319.444444444444
-0.95,-0.405,4322.222222222223
-0.96,-0.405,4325.0
-0.95,-0.4,4327.777777777777
-0.92,-0.385,4330.555555555556
-0.92,-0.37,4333.333333333333
-0.91,-0.38,4336.111111111111
-0.885,-0.36,4338.888888888889
-0.875,-0.355,4341.666666666667
-0.88,-0.37,4344.444444444444
-0.885,-0.37,4347.222222222223
-0.885,-0.38,4350.0
-0.895,-0.395,4352.777777777777
-0.89,-0.385,4355.555555555556
-0.9,-0.39,4358.333333333333
-0.895,-0.38,4361.111111111111
-0.88,-0.36,4363.888888888889
-0.885,-0.35,4366.666666666667
-0.865,-0.35,4369.444444444444
-0.855,-0.345,4372.222222222223
-0.845,-0.345,4375.0
-0.835,-0.345,4377.777777777777
-0.835,-0.36,4380.555555555556
-0.84,-0.34,4383.333333333333
-0.82,-0.345,4386.111111111111
-0.81,-0.355,4388.888888888889
-0.82,-0.34,4391.666666666667
-0.81,-0.315,4394.444444444444
-0.8,-0.305,4397.222222222223
-0.785,-0.29,4400.0
-0.77,-0.285,4402.777777777777
-0.755,-0.255,4405.555555555556
-0.73,-0.265,4408.333333333333
-0.72,-0.255,4411.111111111111
-0.7,-0.24,4413.888888888889
-0.69,-0.245,4416.666666666667
-0.685,-0.255,4419.444444444444
-0.685,-0.25,4422.222222222223
-0.675,-0.235,4425.0
-0.67,-0.23,4427.777777777777
-0.645,-0.21,4430.555555555556
-0.64,-0.19,4433.333333333333
-0.62,-0.165,4436.111111111111
-0.595,-0.165,4438.888888888889
-0.575,-0.165,4441.666666666667
-0.555,-0.15,4444.444444444444
-0.53,-0.15,4447.222222222223
-0.545,-0.155,4450.0
-0.53,-0.16,4452.777777777777
-0.52,-0.16,4455.555555555556
-0.53,-0.17,4458.333333333333
-0.52,-0.145,4461.111111111111
-0.495,-0.13,4463.888888888889
-0.48,-0.12,4466.666666666667
-0.46,-0.115,4469.444444444444
-0.455,-0.105,4472.222222222223
-0.455,-0.105,4475.0
-0.425,-0.085,4477.777777777777
-0.42,-0.105,4480.555555555556
-0.425,-0.11,4483.333333333333
-0.45,-0.13,4486.111111111111
-0.465,-0.14,4488.888888888889
-0.47,-0.15,4491.666666666667
-0.49,-0.145,4494.444444444444
-0.495,-0.145,4497.222222222223
-0.535,-0.155,4500.0
-0.545,-0.16,4502.777777777777
-0.555,-0.16,4505.555555555556
-0.545,-0.18,4508.333333333333
-0.57,-0.195,4511.111111111111
-0.59,-0.23,4513.888888888889
-0.64,-0.25,4516.666666666667
-0.67,-0.275,4519.444444444444
-0.7,-0.32,4522.222222222223
-0.72,-0.33,4525.0
-0.735,-0.335,4527.777777777777
-0.75,-0.36,4530.555555555556
-0.77,-0.36,4533.333333333333
-0.8,-0.375,4536.111111111111
-0.805,-0.375,4538.888888888889
-0.8,-0.39,4541.666666666667
-0.81,-0.385,4544.444444444444
-0.825,-0.39,4547.222222222223
-0.84,-0.405,4550.0
-0.845,-0.42,4552.777777777777
-0.865,-0.415,4555.555555555556
-0.88,-0.42,4558.333333333333
-0.89,-0.435,4561.111111111111
-0.9,-0.43,4563.888888888889
-0.895,-0.43,4566.666666666667
-0.9,-0.415,4569.444444444444
-0.88,-0.42,4572.222222222223
-0.875,-0.425,4575.0
-0.885,-0.425,4577.777777777777
-0.895,-0.44,4580.555555555556
-0.895,-0.435,4583.333333333333
-0.91,-0.435,4586.111111111111
-0.915,-0.46,4588.888888888889
-0.925,-0.46,4591.666666666667
-0.925,-0.455,4594.444444444444
-0.92,-0.455,4597.222222222223
-0.915,-0.455,4600.0
-0.905,-0.455,4602.777777777777
-0.9,-0.45,4605.555555555556
-0.88,-0.44,4608.333333333333
-0.88,-0.445,4611.111111111111
-0.885,-0.455,4613.888888888889
-0.88,-0.45,4616.666666666667
-0.9,-0.455,4619.444444444444
-0.91,-0.475,4622.222222222223
-0.915,-0.47,4625.0
-0.925,-0.475,4627.777777777777
-0.915,-0.45,4630.555555555556
-0.915,-0.455,4633.333333333333
-0.895,-0.415,4636.111111111111
-0.895,-0.415,4638.888888888889
-0.875,-0.41,4641.666666666667
-0.87,-0.41,4644.444444444444
-0.875,-0.42,4647.222222222223
-0.88,-0.435,4650.0
-0.9,-0.445,4652.777777777777
-0.91,-0.46,4655.555555555556
-0.9,-0.455,4658.333333333333
-0.9,-0.455,4661.111111111111
-0.9,-0.445,4663.888888888889
-0.89,-0.445,4666.666666666667
-0.885,-0.455,4669.444444444444
-0.895,-0.44,4672.222222222223
-0.865,-0.43,4675.0
-0.86,-0.42,4677.777777777777
-0.87,-0.42,4680.555555555556
-0.865,-0.425,4683.333333333333
-0.88,-0.435,4686.111111111111
-0.89,-0.445,4688.888888888889
-0.9,-0.45,4691.666666666667
-0.9,-0.44,4694.444444444444
-0.9,-0.435,4697.222222222223
-0.89,-0.43,4700.0
-0.88,-0.41,4702.777777777777
-0.865,-0.395,4705.555555555556
-0.875,-0.405,4708.333333333333
-0.875,-0.4,4711.111111111111
-0.865,-0.41,4713.888888888889
-0.875,-0.41,4716.666666666667
-0.89,-0.435,4719.444444444444
-0.905,-0.43,4722.222222222223
-0.89,-0.435,4725.0
-0.9,-0.44,4727.777777777777
-0.905,-0.425,4730.555555555556
-0.9,-0.43,4733.333333333333
-0.905,-0.415,4736.111111111111
-0.895,-0.405,4738.888888888889
-0.9,-0.405,4741.666666666667
-0.9,-0.415,4744.444444444444
-0.9,-0.435,4747.222222222223
-0.91,-0.44,4750.0
-0.92,-0.445,4752.777777777777
-0.915,-0.46,4755.555555555556
-0.94,-0.45,4758.333333333333
-0.945,-0.475,4761.111111111111
-0.955,-0.465,4763.888888888889
-0.95,-0.455,4766.666666666667
-0.935,-0.445,4769.444444444444
-0.93,-0.425,4772.222222222223
-0.91,-0.435,4775.0
-0.91,-0.43,4777.777777777777
-0.925,-0.43,4780.555555555556
-0.945,-0.44,4783.333333333333
-0.96,-0.45,4786.111111111111
-0.955,-0.455,4788.888888888889
-0.955,-0.455,4791.666666666667
-0.96,-0.46,4794.444444444444
-0.965,-0.45,4797.222222222223
-0.95,-0.445,4800.0
-0.955,-0.435,4802.777777777777
-0.935,-0.405,4805.555555555556
-0.945,-0.425,4808.333333333333
-0.925,-0.435,4811.111111111111
-0.92,-0.44,4813.888888888889
-0.925,-0.46,4816.666666666667
-0.935,-0.465,4819.444444444444
-0.95,-0.475,4822.222222222223
-0.955,-0.475,4825.0
-0.96,-0.47,4827.777777777777
-0.965,-0.47,4830.555555555556
-0.955,-0.455,4833.333333333333
-0.945,-0.465,4836.111111111111
-0.93,-0.435,4838.888888888889
-0.915,-0.43,4841.666666666667
-0.92,-0.425,4844.444444444444
-0.935,-0.45,4847.222222222223
-0.945,-0.46,4850.0
-0.955,-0.47,4852.777777777777
-0.97,-0.47,4855.555555555556
-0.975,-0.47,4858.333333333333
-0.965,-0.485,4861.111111111111
-0.955,-0.47,4863.888888888889
-0.94,-0.45,4866.666666666667
-0.95,-0.445,4869.444444444444
-0.945,-0.425,4872.222222222223
-0.935,-0.43,4875.0
-0.935,-0.43,4877.777777777777
-0.935,-0.435,4880.555555555556
-0.96,-0.465,4883.333333333333
-0.96,-0.48,4886.111111111111
-0.955,-0.475,4888.888888888889
-0.97,-0.465,4891.666666666667
-0.965,-0.465,4894.444444444444
-0.96,-0.47,4897.222222222223
-0.96,-0.47,4900.0
-0.95,-0.455,4902.777777777777
-0.945,-0.465,4905.555555555556
-0.925,-0.46,4908.333333333333
-0.93,-0.45,4911.111111111111
-0.91,-0.455,4913.888888888889
-0.925,-0.47,4916.666666666667
-0.94,-0.48,4919.444444444444
-0.94,-0.48,4922.222222222223
-0.96,-0.475,4925.0
-0.96,-0.47,4927.777777777777
-0.955,-0.47,4930.555555555556
-0.95,-0.46,4933.333333333333
-0.95,-0.47,4936.111111111111
-0.94,-0.445,4938.888888888889
-0.935,-0.44,4941.666666666667
-0.935,-0.44,4944.444444444444
-0.93,-0.45,4947.222222222223
-0.935,-0.46,4950.0
-0.93,-0.46,4952.777777777777
-0.945,-0.475,4955.555555555556
-0.94,-0.475,4958.333333333333
-0.95,-0.475,4961.111111111111
-0.95,-0.48,4963.888888888889
-0.95,-0.48,4966.666666666667
-0.945,-0.465,4969.444444444444
-0.925,-0.465,4972.222222222223
-0.925,-0.445,4975.0
-0.925,-0.455,4977.777777777777
-0.93,-0.46,4980.555555555556
-0.945,-0.46,4983.333333333333
-0.95,-0.47,4986.111111111111
-0.955,-0.48,4988.888888888889
-0.955,-0.49,4991.666666666667
-0.96,-0.485,4994.444444444444
-0.955,-0.475,4997.222222222223
-0.955,-0.465,5000.0
-0.935,-0.44,5002.777777777777
-0.93,-0.44,5005.555555555556
-0.92,-0.44,5008.333333333333
-0.905,-0.44,5011.111111111111
-0.905,-0.435,5013.888888888889
-0.915,-0.445,5016.666666666667
-0.93,-0.455,5019.444444444444
-0.95,-0.465,5022.222222222223
-0.975,-0.475,5025.0
-0.96,-0.465,5027.777777777777
-0.955,-0.47,5030.555555555556
-0.96,-0.44,5033.333333333333
-0.94,-0.44,5036.111111111111
-0.92,-0.42,5038.888888888889
-0.905,-0.42,5041.666666666667
-0.91,-0.435,5044.444444444444
-0.895,-0.44,5047.222222222223
-0.92,-0.445,5050.0
-0.935,-0.46,5052.777777777777
-0.95,-0.48,5055.555555555556
-0.94,-0.475,5058.333333333333
-0.94,-0.485,5061.111111111111
-0.955,-0.465,5063.888888888889
-0.94,-0.45,5066.666666666667
-0.925,-0.45,5069.444444444444
-0.91,-0.445,5072.222222222223
-0.915,-0.44,5075.0
-0.92,-0.43,5077.777777777777
-0.92,-0.425,5080.555555555556
-0.93,-0.43,5083.333333333333
-0.925,-0.45,5086.111111111111
-0.93,-0.455,5088.888888888889
-0.93,-0.46,5091.666666666667
-0.93,-0.455,5094.444444444444
-0.915,-0.445,5097.222222222223
-0.92,-0.455,5100.0
-0.92,-0.42,5102.777777777777
-0.88,-0.405,5105.555555555556
-0.865,-0.425,5108.333333333333
-0.845,-0.425,5111.111111111111
-0.825,-0.43,5113.888888888889
-0.81,-0.435,5116.666666666667
-0.825,-0.455,5119.444444444444
-0.83,-0.45,5122.222222222223
-0.825,-0.465,5125.0
-0.825,-0.475,5127.777777777777
-0.82,-0.47,5130.555555555556
-0.8,-0.46,5133.333333333333
-0.78,-0.43,5136.111111111111
-0.73,-0.415,5138.888888888889
-0.695,-0.39,5141.666666666667
-0.68,-0.405,5144.444444444444
-0.675,-0.38,5147.222222222223
-0.67,-0.385,5150.0
-0.69,-0.39,5152.777777777777
-0.71,-0.4,5155.555555555556
-0.74,-0.405,5158.333333333333
-0.76,-0.395,5161.111111111111
-0.79,-0.395,5163.888888888889
-0.77,-0.36,5166.666666666667
-0.76,-0.365,5169.444444444444
-0.74,-0.355,5172.222222222223
-0.735,-0.335,5175.0
-0.745,-0.345,5177.777777777777
-0.77,-0.365,5180.555555555556
-0.8,-0.355,5183.333333333333
-0.855,-0.385,5186.111111111111
-0.895,-0.425,5188.888888888889
-0.925,-0.44,5191.666666666667
-0.94,-0.435,5194.444444444444
-0.94,-0.435,5197.222222222223
-0.945,-0.43,5200.0
-0.935,-0.42,5202.777777777777
-0.945,-0.425,5205.555555555556
-0.945,-0.425,5208.333333333333
-0.95,-0.425,5211.111111111111
-0.96,-0.43,5213.888888888889
-0.97,-0.455,5216.666666666667
-0.97,-0.465,5219.444444444444
-0.985,-0.475,5222.222222222223
-0.995,-0.47,5225.0
-1.01,-0.46,5227.777777777777
-0.995,-0.44,5230.555555555556
-1.005,-0.43,5233.333333333333
-0.99,-0.42,5236.111111111111
-0.985,-0.415,5238.888888888889
-0.955,-0.42,5241.666666666667
-0.955,-0.42,5244.444444444444
-0.955,-0.415,5247.222222222223
-0.97,-0.405,5250.0
-0.98,-0.415,5252.777777777777
-0.995,-0.42,5255.555555555556
-0.99,-0.445,5258.333333333333
-0.995,-0.46,5261.111111111111
-1.005,-0.44,5263.888888888889
-0.985,-0.44,5266.666666666667
-0.975,-0.44,5269.444444444444
-0.955,-0.42,5272.222222222223
-0.95,-0.415,5275.0
-0.935,-0.42,5277.777777777777
-0.955,-0.43,5280.555555555556
-0.945,-0.425,5283.333333333333
-0.95,-0.43,5286.111111111111
-0.955,-0.44,5288.888888888889
-0.945,-0.45,5291.666666666667
-0.965,-0.445,5294.444444444444
-0.95,-0.435,5297.222222222223
-0.93,-0.43,5300.0
-0.92,-0.405,5302.777777777777
-0.895,-0.39,5305.555555555556
-0.89,-0.385,5308.333333333333
-0.87,-0.4,5311.111111111111
-0.86,-0.38,5313.888888888889
-0.86,-0.365,5316.666666666667
-0.87,-0.355,5319.444444444444
-0.875,-0.335,5322.222222222223
-0.82,-0.285,5325.0
-0.685,-0.185,5327.777777777777
-0.48,-0.03,5330.555555555556
-0.19,0.18,5333.333333333333
0.11,0.355,5336.111111111111
0.425,0.51,5338.888888888889
0.75,0.6,5341.666666666667
1.06,0.625,5344.444444444444
1.285,0.62,5347.222222222223
1.31,0.545,5350.0
1.13,0.41,5352.777777777777
0.745,0.23,5355.555555555556
0.18,-0.005,5358.333333333333
-0.46,-0.315,5361.111111111111
-1.07,-0.655,5363.888888888889
-1.52,-0.985,5366.666666666667
-1.75,-1.215,5369.444444444444
-1.78,-1.3,5372.222222222223
-1.665,-1.26,5375.0
-1.49,-1.115,5377.777777777777
-1.325,-0.95,5380.555555555556
-1.22,-0.815,5383.333333333333
-1.165,-0.705,5386.111111111111
-1.125,-0.63,5388.888888888889
-1.1,-0.58,5391.666666666667
-1.06,-0.55,5394.444444444444
-1.03,-0.505,5397.222222222223
-0.99,-0.505,5400.0
-0.955,-0.47,5402.777777777777
-0.93,-0.45,5405.555555555556
-0.93,-0.455,5408.333333333333
-0.94,-0.45,5411.111111111111
-0.935,-0.44,5413.888888888889
-0.94,-0.445,5416.666666666667
-0.945,-0.425,5419.444444444444
-0.94,-0.425,5422.222222222223
-0.95,-0.44,5425.0
-0.955,-0.425,5427.777777777777
-0.955,-0.425,5430.555555555556
-0.97,-0.415,5433.333333333333
-0.965,-0.395,5436.111111111111
-0.94,-0.385,5438.888888888889
-0.935,-0.37,5441.666666666667
-0.935,-0.39,5444.444444444444
-0.905,-0.385,5447.222222222223
-0.91,-0.395,5450.0
-0.935,-0.41,5452.777777777777
-0.935,-0.415,5455.555555555556
-0.945,-0.4,5458.333333333333
-0.95,-0.4,5461.111111111111
-0.95,-0.39,5463.888888888889
-0.945,-0.38,5466.666666666667
-0.93,-0.35,5469.444444444444
-0.92,-0.345,5472.222222222223
-0.92,-0.335,5475.0
-0.915,-0.36,5477.777777777777
-0.905,-0.35,5480.555555555556
-0.905,-0.375,5483.333333333333
-0.935,-0.385,5486.111111111111
-0.94,-0.38,5488.888888888889
-0.955,-0.39,5491.666666666667
-0.96,-0.395,5494.444444444444
-0.955,-0.395,5497.222222222223
-0.945,-0.385,5500.0
-0.93,-0.385,5502.777777777777
-0.935,-0.37,5505.555555555556
-0.91,-0.355,5508.333333333333
-0.9,-0.355,5511.111111111111
-0.9,-0.365,5513.888888888889
-0.915,-0.36,5516.666666666667
-0.925,-0.355,5519.444444444444
-0.93,-0.37,5522.222222222223
-0.96,-0.365,5525.0
-0.955,-0.355,5527.777777777777
-0.94,-0.355,5530.555555555556
-0.94,-0.36,5533.333333333333
-0.915,-0.35,5536.111111111111
-0.91,-0.335,5538.888888888889
-0.9,-0.33,5541.666666666667
-0.875,-0.33,5544.444444444444
-0.87,-0.33,5547.222222222223
-0.875,-0.345,5550.0
-0.87,-0.335,5552.777777777777
-0.885,-0.34,5555.555555555556
-0.885,-0.33,5558.333333333333
-0.885,-0.34,5561.111111111111
-0.875,-0.335,5563.888888888889
-0.865,-0.31,5566.666666666667
-0.85,-0.305,5569.444444444444
-0.835,-0.29,5572.222222222223
-0.785,-0.285,5575.0
-0.77,-0.285,5577.777777777777
-0.765,-0.275,5580.555555555556
-0.775,-0.275,5583.333333333333
-0.775,-0.27,5586.111111111111
-0.775,-0.275,5588.888888888889
-0.77,-0.25,5591.666666666667
-0.76,-0.23,5594.444444444444
-0.755,-0.225,5597.222222222223
-0.745,-0.21,5600.0
-0.705,-0.19,5602.777777777777
-0.685,-0.165,5605.555555555556
-0.65,-0.155,5608.333333333333
-0.645,-0.16,5611.111111111111
-0.63,-0.16,5613.888888888889
-0.635,-0.16,5616.666666666667
-0.625,-0.15,5619.444444444444
-0.63,-0.16,5622.222222222223
-0.61,-0.155,5625.0
-0.605,-0.14,5627.777777777777
-0.59,-0.135,5630.555555555556
-0.57,-0.115,5633.333333333333
-0.55,-0.105,5636.111111111111
-0.53,-0.095,5638.888888888889
-0.495,-0.105,5641.666666666667
-0.48,-0.11,5644.444444444444
-0.48,-0.095,5647.222222222223
-0.47,-0.105,5650.0
-0.47,-0.12,5652.777777777777
-0.49,-0.12,5655.555555555556
-0.495,-0.13,5658.333333333333
-0.505,-0.125,5661.111111111111
-0.5,-0.11,5663.888888888889
-0.515,-0.1,5666.666666666667
-0.505,-0.1,5669.444444444444
-0.49,-0.105,5672.222222222223
-0.5,-0.1,5675.0
-0.52,-0.125,5677.777777777777
-0.56,-0.13,5680.555555555556
-0.57,-0.16,5683.333333333333
-0.61,-0.18,5686.111111111111
-0.64,-0.24,5688.888888888889
-0.65,-0.24,5691.666666666667
-0.675,-0.26,5694.444444444444
-0.71,-0.285,5697.222222222223
-0.705,-0.275,5700.0
-0.72,-0.285,5702.777777777777
-0.75,-0.285,5705.555555555556
-0.75,-0.28,5708.333333333333
-0.76,-0.305,5711.111111111111
-0.775,-0.33,5713.888888888889
-0.79,-0.345,5716.666666666667
-0.81,-0.36,5719.444444444444
-0.835,-0.385,5722.222222222223
-0.86,-0.375,5725.0
-0.865,-0.395,5727.777777777777
-0.87,-0.395,5730.555555555556
-0.885,-0.39,5733.333333333333
-0.86,-0.385,5736.111111111111
-0.86,-0.39,5738.888888888889
-0.85,-0.385,5741.666666666667
-0.845,-0.38,5744.444444444444
-0.85,-0.39,5747.222222222223
-0.87,-0.385,5750.0
-0.88,-0.4,5752.777777777777
-0.885,-0.415,5755.555555555556
-0.895,-0.42,5758.333333333333
-0.905,-0.42,5761.111111111111
-0.895,-0.4,5763.888888888889
-0.885,-0.395,5766.666666666667
-0.875,-0.385,5769.444444444444
-0.87,-0.385,5772.222222222223
-0.865,-0.38,5775.0
-0.87,-0.375,5777.777777777777
-0.865,-0.39,5780.555555555556
-0.87,-0.405,5783.333333333333
-0.885,-0.41,5786.111111111111
-0.885,-0.425,5788.888888888889
-0.9,-0.43,5791.666666666667
-0.9,-0.42,5794.444444444444
-0.885,-0.445,5797.222222222223
-0.88,-0.42,5800.0
-0.885,-0.42,5802.777777777777
-0.88,-0.4,5805.555555555556
-0.875,-0.395,5808.333333333333
-0.87,-0.395,5811.111111111111
-0.88,-0.39,5813.888888888889
-0.865,-0.39,5816.666666666667
-0.855,-0.395,5819.444444444444
-0.85,-0.385,5822.222222222223
-0.88,-0.395,5825.0
-0.88,-0.395,5827.777777777777
-0.865,-0.395,5830.555555555556
-0.865,-0.39,5833.333333333333
-0.835,-0.37,5836.111111111111
-0.845,-0.36,5838.888888888889
-0.83,-0.36,5841.666666666667
-0.815,-0.36,5844.444444444444
-0.825,-0.365,5847.222222222223
-0.82,-0.355,5850.0
-0.84,-0.385,5852.777777777777
-0.835,-0.375,5855.555555555556
-0.84,-0.41,5858.333333333333
-0.84,-0.375,5861.111111111111
-0.85,-0.4,5863.888888888889
-0.85,-0.385,5866.666666666667
-0.845,-0.375,5869.444444444444
-0.815,-0.375,5872.222222222223
-0.82,-0.365,5875.0
-0.81,-0.37,5877.777777777777
-0.82,-0.36,5880.555555555556
-0.83,-0.36,5883.333333333333
-0.835,-0.385,5886.111111111111
-0.85,-0.38,5888.888888888889
-0.855,-0.405,5891.666666666667
-0.855,-0.395,5894.444444444444
-0.86,-0.39,5897.222222222223
-0.845,-0.38,5900.0
-0.84,-0.38,5902.777777777777
-0.82,-0.355,5905.555555555556
-0.82,-0.345,5908.333333333333
-0.82,-0.365,5911.111111111111
-0.815,-0.375,5913.888888888889
-0.825,-0.37,5916.666666666667
-0.85,-0.39,5919.444444444444
-0.845,-0.4,5922.222222222223
-0.87,-0.41,5925.0
-0.875,-0.395,5927.777777777777
-0.885,-0.395,5930.555555555556
-0.87,-0.4,5933.333333333333
-0.85,-0.4,5936.111111111111
-0.86,-0.38,5938.888888888889
-0.845,-0.385,5941.666666666667
-0.83,-0.38,5944.444444444444
-0.83,-0.395,5947.222222222223
-0.84,-0.42,5950.0
-0.86,-0.425,5952.777777777777
-0.87,-0.445,5955.555555555556
-0.88,-0.45,5958.333333333333
-0.88,-0.435,5961.111111111111
-0.875,-0.435,5963.888888888889
-0.88,-0.43,5966.666666666667
-0.87,-0.425,5969.444444444444
-0.865,-0.4,5972.222222222223
-0.86,-0.395,5975.0
-0.88,-0.415,5977.777777777777
-0.865,-0.405,5980.555555555556
-0.865,-0.415,5983.333333333333
-0.875,-0.43,5986.111111111111
-0.89,-0.43,5988.888888888889
-0.89,-0.44,5991.666666666667
-0.91,-0.435,5994.444444444444
-0.895,-0.435,5997.222222222223
-0.9,-0.43,6000.0
-0.875,-0.425,6002.777777777777
-0.88,-0.43,6005.555555555556
-0.87,-0.425,6008.333333333333
-0.88,-0.425,6011.111111111111
-0.865,-0.425,6013.888888888889
-0.865,-0.425,6016.666666666667
-0.885,-0.44,6019.444444444444
-0.89,-0.46,6022.222222222223
-0.89,-0.46,6025.0
-0.9,-0.47,6027.777777777777
-0.9,-0.47,6030.555555555556
-0.885,-0.45,6033.333333333333
-0.9,-0.46,6036.111111111111
-0.895,-0.455,6038.888888888889
-0.89,-0.445,6041.666666666667
-0.875,-0.455,6044.444444444444
-0.895,-0.465,6047.222222222223
-0.895,-0.46,6050.0
-0.9,-0.455,6052.777777777777
-0.905,-0.47,6055.555555555556
-0.905,-0.475,6058.333333333333
-0.905,-0.475,6061.111111111111
-0.905,-0.46,6063.888888888889
-0.91,-0.45,6066.666666666667
-0.895,-0.45,6069.444444444444
-0.885,-0.46,6072.222222222223
-0.88,-0.435,6075.0
-0.895,-0.455,6077.777777777777
-0.88,-0.45,6080.555555555556
-0.885,-0.465,6083.333333333333
-0.88,-0.455,6086.111111111111
-0.885,-0.47,6088.888888888889
-0.89,-0.475,6091.666666666667
-0.9,-0.485,6094.444444444444
-0.885,-0.47,6097.222222222223
-0.915,-0.475,6100.0
-0.905,-0.46,6102.777777777777
-0.905,-0.45,6105.555555555556
-0.875,-0.455,6108.333333333333
-0.88,-0.48,6111.111111111111
-0.89,-0.475,6113.888888888889
-0.88,-0.485,6116.666666666667
-0.9,-0.5,6119.444444444444
-0.895,-0.51,6122.222222222223
-0.91,-0.495,6125.0
-0.925,-0.495,6127.777777777777
-0.925,-0.48,6130.555555555556
-0.91,-0.47,6133.333333333333
-0.89,-0.47,6136.111111111111
-0.895,-0.465,6138.888888888889
-0.87,-0.46,6141.666666666667
-0.88,-0.47,6144.444444444444
-0.87,-0.475,6147.222222222223
-0.88,-0.485,6150.0
-0.885,-0.48,6152.777777777777
-0.885,-0.49,6155.555555555556
-0.905,-0.495,6158.333333333333
-0.905,-0.5,6161.111111111111
-0.915,-0.495,6163.888888888889
-0.895,-0.48,6166.666666666667
-0.89,-0.475,6169.444444444444
-0.88,-0.47,6172.222222222223
-0.89,-0.475,6175.0
-0.875,-0.485,6177.777777777777
-0.88,-0.475,6180.555555555556
-0.88,-0.505,6183.333333333333
-0.875,-0.505,6186.111111111111
-0.895,-0.52,6188.888888888889
-0.9,-0.52,6191.666666666667
-0.905,-0.52,6194.444444444444
-0.9,-0.52,6197.222222222223
-0.91,-0.505,6200.0
-0.9,-0.485,6202.777777777777
-0.895,-0.485,6205.555555555556
-0.875,-0.47,6208.333333333333
-0.87,-0.495,6211.111111111111
-0.875,-0.485,6213.888888888889
-0.885,-0.49,6216.666666666667
-0.895,-0.5,6219.444444444444
-0.895,-0.51,6222.222222222223
-0.895,-0.5,6225.0
-0.905,-0.515,6227.777777777777
-0.9,-0.52,6230.555555555556
-0.9,-0.495,6233.333333333333
-0.885,-0.49,6236.111111111111
-0.875,-0.475,6238.888888888889
-0.86,-0.475,6241.666666666667
-0.835,-0.485,6244.444444444444
-0.82,-0.485,6247.222222222223
-0.815,-0.505,6250.0
-0.825,-0.51,6252.777777777777
-0.815,-0.52,6255.555555555556
-0.815,-0.52,6258.333333333333
-0.815,-0.515,6261.111111111111
-0.8,-0.52,6263.888888888889
-0.805,-0.49,6266.666666666667
-0.795,-0.5,6269.444444444444
-0.785,-0.505,6272.222222222223
-0.75,-0.485,6275.0
-0.715,-0.485,6277.777777777777
-0.705,-0.465,6280.555555555556
-0.67,-0.47,6283.333333333333
-0.675,-0.47,6286.111111111111
-0.69,-0.46,6288.888888888889
-0.685,-0.465,6291.666666666667
-0.695,-0.485,6294.444444444444
-0.74,-0.455,6297.222222222223
-0.72,-0.47,6300.0
-0.725,-0.435,6302.777777777777
-0.71,-0.43,6305.555555555556
-0.715,-0.425,6308.333333333333
-0.71,-0.415,6311.111111111111
-0.735,-0.4,6313.888888888889
-0.735,-0.415,6316.666666666667
-0.76,-0.42,6319.444444444444
-0.765,-0.445,6322.222222222223
-0.8,-0.455,6325.0
-0.83,-0.465,6327.777777777777
-0.88,-0.48,6330.555555555556
-0.905,-0.48,6333.333333333333
-0.91,-0.49,6336.111111111111
-0.93,-0.5,6338.888888888889
-0.91,-0.5,6341.666666666667
-0.915,-0.495,6344.444444444444
-0.92,-0.51,6347.222222222223
-0.93,-0.515,6350.0
-0.945,-0.535,6352.777777777777
-0.955,-0.54,6355.555555555556
-0.975,-0.55,6358.333333333333
-0.975,-0.535,6361.111111111111
-0.975,-0.535,6363.888888888889
-0.97,-0.515,6366.666666666667
-0.965,-0.52,6369.444444444444
-0.975,-0.495,6372.222222222223
-0.97,-0.495,6375.0
-0.95,-0.495,6377.777777777777
-0.965,-0.515,6380.555555555556
-0.975,-0.51,6383.333333333333
-0.99,-0.535,6386.111111111111
-1.005,-0.54,6388.888888888889
-1.0,-0.55,6391.666666666667
-1.01,-0.535,6394.444444444444
-1.005,-0.52,6397.222222222223
-0.985,-0.52,6400.0
-0.99,-0.525,6402.777777777777
-0.965,-0.505,6405.555555555556
-0.955,-0.515,6408.333333333333
-0.95,-0.52,6411.111111111111
-0.945,-0.52,6413.888888888889
-0.955,-0.53,6416.666666666667
-0.955,-0.53,6419.444444444444
-0.96,-0.545,6422.222222222223
-0.97,-0.545,6425.0
-0.965,-0.555,6427.777777777777
-0.96,-0.54,6430.555555555556
-0.94,-0.54,6433.333333333333
-0.96,-0.525,6436.111111111111
-0.925,-0.515,6438.888888888889
-0.925,-0.505,6441.666666666667
-0.92,-0.505,6444.444444444444
-0.935,-0.51,6447.222222222223
-0.92,-0.495,6450.0
-0.925,-0.515,6452.777777777777
-0.92,-0.525,6455.555555555556
-0.94,-0.51,6458.333333333333
-0.925,-0.51,6461.111111111111
-0.905,-0.51,6463.888888888889
-0.88,-0.475,6466.666666666667
-0.84,-0.44,6469.444444444444
-0.81,-0.415,6472.222222222223
-0.735,-0.34,6475.0
-0.61,-0.255,6477.777777777777
-0.405,-0.14,6480.555555555556
-0.165,0.0,6483.333333333333
0.08,0.19,6486.111111111111
0.34,0.31,6488.888888888889
0.605,0.37,6491.666666666667
0.895,0.395,6494.444444444444
1.15,0.405,6497.222222222223
1.365,0.39,6500.0
1.4,0.385,6502.777777777777
1.255,0.33,6505.555555555556
0.945,0.22,6508.333333333333
0.47,0.035,6511.111111111111
-0.12,-0.23,6513.888888888889
-0.755,-0.555,6516.666666666667
-1.3,-0.9,6519.444444444444
-1.655,-1.21,6522.222222222223
-1.76,-1.385,6525.0
-1.7,-1.395,6527.777777777777
-1.52,-1.295,6530.555555555556
-1.33,-1.115,6533.333333333333
-1.17,-0.915,6536.111111111111
-1.085,-0.79,6538.888888888889
-1.06,-0.69,6541.666666666667
-1.07,-0.655,6544.444444444444
-1.075,-0.63,6547.222222222223
-1.06,-0.645,6550.0
-1.05,-0.635,6552.777777777777
-1.005,-0.62,6555.555555555556
-0.985,-0.62,6558.333333333333
-0.95,-0.585,6561.111111111111
-0.955,-0.58,6563.888888888889
-0.945,-0.56,6566.666666666667
-0.945,-0.54,6569.444444444444
-0.95,-0.525,6572.222222222223
-0.935,-0.535,6575.0
-0.94,-0.52,6577.777777777777
-0.935,-0.525,6580.555555555556
-0.94,-0.505,6583.333333333333
-0.95,-0.535,6586.111111111111
-0.96,-0.545,6588.888888888889
-0.955,-0.525,6591.666666666667
-0.97,-0.52,6594.444444444444
-0.965,-0.51,6597.222222222223
-0.945,-0.51,6600.0
-0.94,-0.5,6602.777777777777
-0.925,-0.47,6605.555555555556
-0.925,-0.47,6608.333333333333
-0.925,-0.475,6611.111111111111
-0.935,-0.485,6613.888888888889
-0.94,-0.49,6616.666666666667
-0.94,-0.48,6619.444444444444
-0.945,-0.49,6622.222222222223
-0.95,-0.5,6625.0
-0.96,-0.505,6627.777777777777
-0.95,-0.48,6630.555555555556
-0.955,-0.495,6633.333333333333
-0.945,-0.485,6636.111111111111
-0.945,-0.47,6638.888888888889
-0.935,-0.465,6641.666666666667
-0.91,-0.47,6644.444444444444
-0.925,-0.47,6647.222222222223
-0.915,-0.485,6650.0
-0.925,-0.495,6652.777777777777
-0.935,-0.515,6655.555555555556
-0.94,-0.52,6658.333333333333
-0.95,-0.515,6661.111111111111
-0.965,-0.5,6663.888888888889
-0.95,-0.495,6666.666666666667
-0.93,-0.475,6669.444444444444
-0.925,-0.455,6672.222222222223
-0.915,-0.45,6675.0
-0.905,-0.445,6677.777777777777
-0.905,-0.45,6680.555555555556
-0.905,-0.455,6683.333333333333
-0.905,-0.47,6686.111111111111
-0.915,-0.47,6688.888888888889
-0.915,-0.485,6691.666666666667
-0.92,-0.465,6694.444444444444
-0.92,-0.46,6697.222222222223
-0.905,-0.455,6700.0
-0.9,-0.45,6702.777777777777
-0.885,-0.44,6705.555555555556
-0.885,-0.415,6708.333333333333
-0.875,-0.42,6711.111111111111
-0.855,-0.42,6713.888888888889
-0.855,-0.43,6716.666666666667
-0.855,-0.435,6719.444444444444
-0.875,-0.445,6722.222222222223
-0.86,-0.435,6725.0
-0.855,-0.44,6727.777777777777
-0.85,-0.425,6730.555555555556
-0.84,-0.42,6733.333333333333
-0.82,-0.4,6736.111111111111
-0.795,-0.385,6738.888888888889
-0.77,-0.355,6741.666666666667
-0.775,-0.35,6744.444444444444
-0.755,-0.36,6747.222222222223
-0.75,-0.33,6750.0
-0.73,-0.345,6752.777777777777
-0.745,-0.34,6755.555555555556
-0.725,-0.335,6758.333333333333
-0.715,-0.325,6761.111111111111
-0.7,-0.31,6763.888888888889
-0.675,-0.285,6766.666666666667
-0.645,-0.29,6769.444444444444
-0.62,-0.255,6772.222222222223
-0.6,-0.24,6775.0
-0.575,-0.23,6777.777777777777
-0.56,-0.23,6780.555555555556
-0.545,-0.22,6783.333333333333
-0.53,-0.225,6786.111111111111
-0.525,-0.23,6788.888888888889
-0.525,-0.235,6791.666666666667
-0.505,-0.23,6794.444444444444
-0.49,-0.22,6797.222222222223
-0.48,-0.2,6800.0
-0.455,-0.185,6802.777777777777
-0.43,-0.18,6805.555555555556
-0.41,-0.165,6808.333333333333
-0.4,-0.17,6811.111111111111
-0.39,-0.16,6813.888888888889
-0.39,-0.17,6816.666666666667
-0.4,-0.175,6819.444444444444
-0.415,-0.175,6822.222222222223
-0.415,-0.18,6825.0
-0.44,-0.19,6827.777777777777
-0.445,-0.195,6830.555555555556
-0.46,-0.21,6833.333333333333
-0.46,-0.22,6836.111111111111
-0.465,-0.225,6838.888888888889
-0.49,-0.225,6841.666666666667
-0.52,-0.255,6844.444444444444
-0.545,-0.28,6847.222222222223
-0.575,-0.29,6850.0
-0.6,-0.325,6852.777777777777
-0.645,-0.36,6855.555555555556
-0.665,-0.385,6858.333333333333
-0.695,-0.405,6861.111111111111
-0.725,-0.42,6863.888888888889
-0.75,-0.425,6866.666666666667
-0.755,-0.435,6869.444444444444
-0.77,-0.455,6872.222222222223
-0.775,-0.445,6875.0
-0.785,-0.465,6877.777777777777
-0.8,-0.475,6880.555555555556
-0.82,-0.495,6883.333333333333
-0.835,-0.515,6886.111111111111
-0.855,-0.535,6888.888888888889
-0.88,-0.55,6891.666666666667
-0.87,-0.545,6894.444444444444
-0.88,-0.545,6897.222222222223
-0.885,-0.53,6900.0
-0.875,-0.505,6902.777777777777
-0.875,-0.52,6905.555555555556
-0.875,-0.51,6908.333333333333
-0.87,-0.53,6911.111111111111
-0.87,-0.525,6913.888888888889
-0.89,-0.545,6916.666666666667
-0.885,-0.56,6919.444444444444
-0.91,-0.57,6922.222222222223
-0.9,-0.555,6925.0
-0.91,-0.565,6927.777777777777
-0.925,-0.57,6930.555555555556
-0.92,-0.56,6933.333333333333
-0.92,-0.54,6936.111111111111
-0.9,-0.53,6938.888888888889
-0.895,-0.54,6941.666666666667
-0.895,-0.54,6944.444444444444
-0.89,-0.54,6947.222222222223
-0.895,-0.555,6950.0
-0.915,-0.58,6952.777777777777
-0.925,-0.565,6955.555555555556
-0.93,-0.585,6958.333333333333
-0.925,-0.575,6961.111111111111
-0.93,-0.58,6963.888888888889
-0.925,-0.57,6966.666666666667
-0.91,-0.56,6969.444444444444
-0.91,-0.55,6972.222222222223
-0.89,-0.535,6975.0
-0.89,-0.54,6977.777777777777
-0.885,-0.55,6980.555555555556
-0.89,-0.56,6983.333333333333
-0.89,-0.545,6986.111111111111
-0.89,-0.56,6988.888888888889
-0.91,-0.56,6991.666666666667
-0.91,-0.56,6994.444444444444
-0.905,-0.545,6997.222222222223
-0.91,-0.55,7000.0
-0.91,-0.53,7002.777777777777
-0.885,-0.52,7005.555555555556
-0.88,-0.505,7008.333333333333
-0.87,-0.535,7011.111111111111
-0.865,-0.515,7013.888888888889
-0.855,-0.53,7016.666666666667
-0.875,-0.53,7019.444444444444
-0.885,-0.56,7022.222222222223
-0.89,-0.56,7025.0
-0.915,-0.555,7027.777777777777
-0.915,-0.57,7030.555555555556
-0.895,-0.535,7033.333333333333
-0.885,-0.545,7036.111111111111
-0.885,-0.525,7038.888888888889
-0.875,-0.51,7041.666666666667
-0.85,-0.5,7044.444444444444
-0.865,-0.5,7047.222222222223
-0.86,-0.495,7050.0
-0.875,-0.525,7052.777777777777
-0.885,-0.525,7055.555555555556
-0.89,-0.535,7058.333333333333
-0.9,-0.535,7061.111111111111
-0.905,-0.53,7063.888888888889
-0.89,-0.535,7066.666666666667
-0.89,-0.525,7069.444444444444
-0.88,-0.515,7072.222222222223
-0.875,-0.495,7075.0
-0.875,-0.52,7077.777777777777
-0.875,-0.51,7080.555555555556
-0.895,-0.515,7083.333333333333
-0.895,-0.52,7086.111111111111
-0.915,-0.545,7088.888888888889
-0.93,-0.545,7091.666666666667
-0.92,-0.55,7094.444444444444
-0.925,-0.55,7097.222222222223
-0.925,-0.555,7100.0
-0.92,-0.55,7102.777777777777
-0.92,-0.525,7105.555555555556
-0.91,-0.535,7108.333333333333
-0.91,-0.545,7111.111111111111
-0.915,-0.54,7113.888888888889
-0.91,-0.545,7116.666666666667
-0.925,-0.555,7119.444444444444
-0.955,-0.555,7122.222222222223
-0.965,-0.57,7125.0
-0.97,-0.575,7127.777777777777
-0.955,-0.585,7130.555555555556
-0.95,-0.57,7133.333333333333
-0.95,-0.56,7136.111111111111
-0.94,-0.56,7138.888888888889
-0.925,-0.53,7141.666666666667
-0.925,-0.57,7144.444444444444
-0.935,-0.565,7147.222222222223
-0.935,-0.57,7150.0
-0.95,-0.57,7152.777777777777
-0.955,-0.59,7155.555555555556
-0.97,-0.595,7158.333333333333
-0.96,-0.59,7161.111111111111
-0.965,-0.59,7163.888888888889
-0.97,-0.575,7166.666666666667
-0.955,-0.58,7169.444444444444
-0.955,-0.58,7172.222222222223
-0.94,-0.565,7175.0
-0.925,-0.58,7177.777777777777
-0.925,-0.59,7180.555555555556
-0.925,-0.59,7183.333333333333
-0.95,-0.6,7186.111111111111
-0.96,-0.61,7188.888888888889
-0.96,-0.6,7191.666666666667
-0.975,-0.615,7194.444444444444
-0.975,-0.6,7197.222222222223
-0.985,-0.59,7200.0
-0.975,-0.575,7202.777777777777
-0.96,-0.57,7205.555555555556
-0.945,-0.545,7208.333333333333
-0.94,-0.575,7211.111111111111
-0.95,-0.585,7213.888888888889
-0.945,-0.585,7216.666666666667
-0.96,-0.59,7219.444444444444
-0.96,-0.62,7222.222222222223
-0.975,-0.625,7225.0
-0.98,-0.61,7227.777777777777
-0.98,-0.61,7230.555555555556
-0.97,-0.595,7233.333333333333
-0.97,-0.585,7236.111111111111
-0.96,-0.58,7238.888888888889
-0.955,-0.56,7241.666666666667
-0.94,-0.585,7244.444444444444
-0.955,-0.59,7247.222222222223
-0.97,-0.595,7250.0
-0.98,-0.615,7252.777777777777
-0.98,-0.625,7255.555555555556
-0.98,-0.63,7258.333333333333
-0.99,-0.625,7261.111111111111
-1.0,-0.63,7263.888888888889
-0.98,-0.615,7266.666666666667
-0.99,-0.605,7269.444444444444
-0.98,-0.6,7272.222222222223
-0.96,-0.585,7275.0
-0.95,-0.585,7277.777777777777
-0.95,-0.59,7280.555555555556
-0.965,-0.6,7283.333333333333
-0.955,-0.605,7286.111111111111
-0.965,-0.61,7288.888888888889
-0.975,-0.62,7291.666666666667
-0.975,-0.615,7294.444444444444
-0.985,-0.605,7297.222222222223
-0.975,-0.59,7300.0
-0.985,-0.6,7302.777777777777
-0.98,-0.57,7305.555555555556
-0.97,-0.59,7308.333333333333
-0.96,-0.6,7311.111111111111
-0.965,-0.605,7313.888888888889
-0.97,-0.605,7316.666666666667
-0.985,-0.615,7319.444444444444
-0.98,-0.615,7322.222222222223
-0.995,-0.63,7325.0
-1.01,-0.63,7327.777777777777
-1.02,-0.615,7330.555555555556
-1.02,-0.62,7333.333333333333
-0.99,-0.62,7336.111111111111
-0.995,-0.605,7338.888888888889
-0.98,-0.61,7341.666666666667
-0.98,-0.6,7344.444444444444
-0.965,-0.61,7347.222222222223
-0.97,-0.61,7350.0
-0.97,-0.62,7352.777777777777
-0.985,-0.64,7355.555555555556
-0.99,-0.62,7358.333333333333
-0.99,-0.63,7361.111111111111
-0.985,-0.625,7363.888888888889
-1.0,-0.615,7366.666666666667
-1.01,-0.605,7369.444444444444
-1.0,-0.595,7372.222222222223
-0.975,-0.59,7375.0
-0.955,-0.58,7377.777777777777
-0.955,-0.6,7380.555555555556
-0.955,-0.605,7383.333333333333
-0.975,-0.615,7386.111111111111
-0.995,-0.625,7388.888888888889
-0.995,-0.63,7391.666666666667
-1.01,-0.625,7394.444444444444
-1.0,-0.615,7397.222222222223
-0.99,-0.615,7400.0
-0.99,-0.61,7402.777777777777
-0.975,-0.6,7405.555555555556
-0.975,-0.58,7408.333333333333
-0.965,-0.585,7411.111111111111
-0.96,-0.595,7413.888888888889
-0.97,-0.62,7416.666666666667
-0.975,-0.62,7419.444444444444
-0.97,-0.63,7422.222222222223
-0.99,-0.63,7425.0
-0.995,-0.62,7427.777777777777
-0.985,-0.635,7430.555555555556
-0.99,-0.625,7433.333333333333
-0.99,-0.605,7436.111111111111
-0.975,-0.595,7438.888888888889
-0.95,-0.6,7441.666666666667
-0.95,-0.585,7444.444444444444
-0.95,-0.585,7447.222222222223
-0.95,-0.605,7450.0
-0.955,-0.595,7452.777777777777
-0.965,-0.625,7455.555555555556
-0.98,-0.62,7458.333333333333
-0.985,-0.62,7461.111111111111
-0.97,-0.62,7463.888888888889
-0.975,-0.615,7466.666666666667
-0.965,-0.615,7469.444444444444
-0.955,-0.605,7472.222222222223
-0.94,-0.59,7475.0
-0.945,-0.605,7477.777777777777
-0.935,-0.61,7480.555555555556
-0.975,-0.61,7483.333333333333
-0.995,-0.63,7486.111111111111
-0.99,-0.615,7488.888888888889
-0.99,-0.635,7491.666666666667
-0.985,-0.65,7494.444444444444
-0.99,-0.635,7497.222222222223
-0.96,-0.61,7500.0
-0.97,-0.62,7502.777777777777
-0.97,-0.605,7505.555555555556
-0.95,-0.6,7508.333333333333
-0.945,-0.575,7511.111111111111
-0.94,-0.6,7513.888888888889
-0.945,-0.6,7516.666666666667
-0.945,-0.61,7519.444444444444
-0.955,-0.62,7522.222222222223
-0.975,-0.625,7525.0
-0.985,-0.625,7527.777777777777
-0.985,-0.625,7530.555555555556
-0.98,-0.615,7533.333333333333
-0.96,-0.595,7536.111111111111
-0.96,-0.58,7538.888888888889
-0.965,-0.575,7541.666666666667
-0.945,-0.585,7544.444444444444
-0.94,-0.58,7547.222222222223
-0.95,-0.59,7550.0
-0.95,-0.605,7552.777777777777
-0.96,-0.615,7555.555555555556
-0.98,-0.615,7558.333333333333
-0.99,-0.62,7561.111111111111
-0.97,-0.625,7563.888888888889
-0.98,-0.625,7566.666666666667
-0.96,-0.615,7569.444444444444
-0.945,-0.6,7572.222222222223
-0.945,-0.585,7575.0
-0.93,-0.575,7577.777777777777
-0.945,-0.575,7580.555555555556
-0.94,-0.585,7583.333333333333
-0.945,-0.6,7586.111111111111
-0.95,-0.59,7588.888888888889
-0.95,-0.61,7591.666666666667
-0.95,-0.615,7594.444444444444
-0.95,-0.615,7597.222222222223
-0.935,-0.59,7600.0
-0.905,-0.585,7602.777777777777
-0.88,-0.58,7605.555555555556
-0.86,-0.56,7608.333333333333
-0.84,-0.575,7611.111111111111
-0.835,-0.57,7613.888888888889
-0.815,-0.57,7616.666666666667
-0.82,-0.58,7619.444444444444
-0.84,-0.585,7622.222222222223
-0.84,-0.6,7625.0
-0.83,-0.615,7627.777777777777
-0.815,-0.6,7630.555555555556
-0.785,-0.585,7633.333333333333
-0.76,-0.56,7636.111111111111
-0.73,-0.565,7638.888888888889
-0.705,-0.53,7641.666666666667
-0.71,-0.525,7644.444444444444
-0.72,-0.53,7647.222222222223
-0.735,-0.54,7650.0
-0.74,-0.55,7652.777777777777
-0.765,-0.575,7655.555555555556
-0.79,-0.56,7658.333333333333
-0.805,-0.55,7661.111111111111
-0.825,-0.545,7663.888888888889
-0.815,-0.53,7666.666666666667
-0.815,-0.51,7669.444444444444
-0.795,-0.49,7672.222222222223
-0.82,-0.495,7675.0
-0.81,-0.495,7677.777777777777
-0.825,-0.5,7680.555555555556
-0.855,-0.505,7683.333333333333
-0.88,-0.54,7686.111111111111
-0.915,-0.56,7688.888888888889
-0.96,-0.575,7691.666666666667
-0.995,-0.575,7694.444444444444
-1.01,-0.59,7697.222222222223
-1.015,-0.585,7700.0
-1.01,-0.59,7702.777777777777
-1.01,-0.58,7705.555555555556
-1.005,-0.57,7708.333333333333
-1.0,-0.58,7711.111111111111
-0.995,-0.57,7713.888888888889
-1.005,-0.57,7716.666666666667
-1.02,-0.59,7719.444444444444
-1.02,-0.62,7722.222222222223
-1.02,-0.61,7725.0
-1.04,-0.615,7727.777777777777
-1.04,-0.595,7730.555555555556
-1.03,-0.585,7733.333333333333
-1.045,-0.575,7736.111111111111
-1.03,-0.575,7738.888888888889
-1.015,-0.575,7741.666666666667
-1.01,-0.57,7744.444444444444
-1.015,-0.565,7747.222222222223
-1.015,-0.56,7750.0
-1.025,-0.565,7752.777777777777
-1.025,-0.585,7755.555555555556
-1.03,-0.605,7758.333333333333
-1.03,-0.59,7761.111111111111
-1.03,-0.57,7763.888888888889
-1.045,-0.57,7766.666666666667
-1.03,-0.565,7769.444444444444
-1.02,-0.575,7772.222222222223
-1.005,-0.535,7775.0
-1.0,-0.55,7777.777777777777
-1.01,-0.57,7780.555555555556
-0.995,-0.58,7783.333333333333
-1.0,-0.565,7786.111111111111
-0.995,-0.585,7788.888888888889
-1.0,-0.585,7791.666666666667
-1.005,-0.58,7794.444444444444
-0.99,-0.575,7797.222222222223
-0.995,-0.57,7800.0
-0.975,-0.545,7802.777777777777
-0.945,-0.54,7805.555555555556
-0.925,-0.51,7808.333333333333
-0.905,-0.48,7811.111111111111
-0.87,-0.45,7813.888888888889
-0.77,-0.41,7816.666666666667
-0.635,-0.27,7819.444444444444
-0.395,-0.14,7822.222222222223
-0.11,0.045,7825.0
0.2,0.205,7827.777777777777
0.53,0.32,7830.555555555556
0.87,0.395,7833.333333333333
1.185,0.425,7836.111111111111
1.36,0.42,7838.888888888889
1.36,0.4,7841.666666666667
1.115,0.33,7844.444444444444
0.645,0.155,7847.222222222223
0.02,-0.075,7850.0
-0.62,-0.405,7852.777777777777
-1.22,-0.765,7855.555555555556
-1.61,-1.11,7858.333333333333
-1.75,-1.3,7861.111111111111
-1.67,-1.345,7863.888888888889
-1.495,-1.215,7866.666666666667
-1.295,-1.025,7869.444444444444
-1.16,-0.86,7872.222222222223
-1.065,-0.72,7875.0
-1.045,-0.66,7877.777777777777
-1.07,-0.63,7880.555555555556
-1.075,-0.65,7883.333333333333
-1.08,-0.66,7886.111111111111
-1.05,-0.655,7888.888888888889
-1.035,-0.655,7891.666666666667
-1.015,-0.64,7894.444444444444
-0.99,-0.63,7897.222222222223
-1.0,-0.61,7900.0
-1.0,-0.59,7902.777777777777
-0.99,-0.57,7905.555555555556
-0.995,-0.565,7908.333333333333
-0.995,-0.56,7911.111111111111
-0.985,-0.57,7913.888888888889
-0.99,-0.56,7916.666666666667
-0.995,-0.57,7919.444444444444
-1.01,-0.58,7922.222222222223
-1.015,-0.6,7925.0
-1.015,-0.59,7927.777777777777
-1.03,-0.585,7930.555555555556
-1.01,-0.59,7933.333333333333
-1.005,-0.575,7936.111111111111
-1.005,-0.55,7938.888888888889
-0.985,-0.545,7941.666666666667
-0.99,-0.55,7944.444444444444
-0.98,-0.54,7947.222222222223
-0.98,-0.55,7950.0
-0.995,-0.545,7952.777777777777
-1.01,-0.555,7955.555555555556
-1.02,-0.57,7958.333333333333
-1.015,-0.56,7961.111111111111
-1.025,-0.55,7963.888888888889
-1.025,-0.55,7966.666666666667
-1.025,-0.545,7969.444444444444
-1.02,-0.525,7972.222222222223
-1.005,-0.525,7975.0
-0.985,-0.515,7977.777777777777
-0.97,-0.525,7980.555555555556
-0.97,-0.53,7983.333333333333
-0.985,-0.52,7986.111111111111
-0.99,-0.54,7988.888888888889
-1.0,-0.555,7991.666666666667
-1.0,-0.555,7994.444444444444
-1.005,-0.555,7997.222222222223
-1.005,-0.545,8000.0
-0.995,-0.545,8002.777777777777
-0.98,-0.52,8005.555555555556
-0.985,-0.51,8008.333333333333
-0.98,-0.505,8011.111111111111
-0.975,-0.515,8013.888888888889
-0.98,-0.51,8016.666666666667
-0.975,-0.53,8019.444444444444
-0.995,-0.52,8022.222222222223
-1.005,-0.525,8025.0
-0.995,-0.52,8027.777777777777
-1.0,-0.505,8030.555555555556
-0.975,-0.505,8033.333333333333
-0.96,-0.5,8036.111111111111
-0.94,-0.48,8038.888888888889
-0.935,-0.465,8041.666666666667
-0.925,-0.47,8044.444444444444
-0.905,-0.47,8047.222222222223
-0.93,-0.47,8050.0
-0.92,-0.47,8052.777777777777
-0.91,-0.47,8055.555555555556
-0.92,-0.485,8058.333333333333
-0.925,-0.475,8061.111111111111
-0.93,-0.46,8063.888888888889
-0.9,-0.47,8066.666666666667
-0.88,-0.45,8069.444444444444
-0.87,-0.425,8072.222222222223
-0.845,-0.41,8075.0
-0.82,-0.415,8077.777777777777
-0.81,-0.4,8080.555555555556
-0.8,-0.39,8083.333333333333
-0.795,-0.41,8086.111111111111
-0.79,-0.405,8088.888888888889
-0.78,-0.39,8091.666666666667
-0.78,-0.385,8094.444444444444
-0.755,-0.375,8097.222222222223
-0.745,-0.345,8100.0
-0.71,-0.315,8102.777777777777
-0.68,-0.3,8105.555555555556
-0.66,-0.27,8108.333333333333
-0.635,-0.255,8111.111111111111
-0.63,-0.26,8113.888888888889
-0.63,-0.265,8116.666666666667
-0.61,-0.255,8119.444444444444
-0.595,-0.24,8122.222222222223
-0.58,-0.25,8125.0
-0.57,-0.23,8127.777777777777
-0.56,-0.245,8130.555555555556
-0.545,-0.23,8133.333333333333
-0.52,-0.21,8136.111111111111
-0.5,-0.18,8138.888888888889
-0.485,-0.19,8141.666666666667
-0.46,-0.185,8144.444444444444
-0.46,-0.2,8147.222222222223
-0.435,-0.2,8150.0
-0.435,-0.21,8152.777777777777
-0.45,-0.215,8155.555555555556
-0.47,-0.215,8158.333333333333
-0.47,-0.235,8161.111111111111
-0.475,-0.25,8163.888888888889
-0.49,-0.25,8166.666666666667
-0.505,-0.22,8169.444444444444
-0.525,-0.225,8172.222222222223
-0.52,-0.235,8175.0
-0.53,-0.265,8177.777777777777
-0.565,-0.27,8180.555555555556
-0.58,-0.295,8183.333333333333
-0.615,-0.33,8186.111111111111
-0.645,-0.365,8188.888888888889
-0.685,-0.37,8191.666666666667
-0.71,-0.405,8194.444444444445
-0.74,-0.425,8197.222222222223
-0.765,-0.435,8200.0
-0.795,-0.435,8202.777777777777
-0.8,-0.45,8205.555555555555
-0.835,-0.445,8208.333333333334
-0.83,-0.47,8211.111111111111
-0.85,-0.485,8213.888888888889
-0.86,-0.51,8216.666666666666
-0.875,-0.52,8219.444444444445
-0.89,-0.54,8222.222222222223
-0.905,-0.57,8225.0
-0.915,-0.545,8227.777777777777
-0.915,-0.565,8230.555555555555
-0.915,-0.555,8233.333333333334
-0.92,-0.55,8236.111111111111
-0.9,-0.55,8238.888888888889
-0.91,-0.53,8241.666666666666
-0.89,-0.525,8244.444444444445
-0.9,-0.54,8247.222222222223
-0.915,-0.54,8250.0
-0.915,-0.545,8252.777777777777
-0.925,-0.565,8255.555555555555
-0.925,-0.57,8258.333333333334
-0.93,-0.575,8261.111111111111
-0.945,-0.58,8263.888888888889
-0.945,-0.555,8266.666666666666
-0.925,-0.55,8269.444444444445
-0.92,-0.545,8272.222222222223
-0.925,-0.535,8275.0
-0.91,-0.54,8277.777777777777
-0.9,-0.565,8280.555555555555
-0.9,-0.56,8283.333333333334
-0.91,-0.575,8286.111111111111
-0.915,-0.575,8288.888888888889
-0.925,-0.575,8291.666666666666
-0.935,-0.585,8294.444444444445
-0.935,-0.575,8297.222222222223
-0.92,-0.56,8300.0
-0.915,-0.57,8302.777777777777
-0.905,-0.55,8305.555555555555
-0.895,-0.535,8308.333333333334
-0.88,-0.53,8311.111111111111
-0.885,-0.54,8313.888888888889
-0.88,-0.54,8316.666666666666
-0.89,-0.53,8319.444444444445
-0.895,-0.545,8322.222222222223
-0.89,-0.55,8325.0
-0.91,-0.56,8327.777777777777
-0.91,-0.545,8330.555555555555
-0.92,-0.535,8333.333333333334
-0.9,-0.535,8336.111111111111
-0.895,-0.535,8338.888888888889
-0.885,-0.505,8341.666666666666
-0.875,-0.51,8344.444444444445
-0.87,-0.505,8347.222222222223
-0.86,-0.52,8350.0
-0.89,-0.53,8352.777777777777
-0.875,-0.545,8355.555555555555
-0.895,-0.535,8358.333333333334
-0.905,-0.555,8361.111111111111
-0.91,-0.545,8363.888888888889
-0.91,-0.535,8366.666666666666
-0.885,-0.53,8369.444444444445
-0.875,-0.53,8372.222222222223
-0.89,-0.51,8375.0
-0.86,-0.505,8377.777777777777
-0.88,-0.515,8380.555555555555
-0.86,-0.515,8383.333333333334
-0.89,-0.525,8386.111111111111
-0.89,-0.525,8388.888888888889
-0.895,-0.54,8391.666666666666
-0.895,-0.535,8394.444444444445
-0.9,-0.535,8397.222222222223
-0.91,-0.53,8400.0
-0.9,-0.52,8402.777777777777
-0.89,-0.51,8405.555555555555
-0.885,-0.51,8408.333333333334
-0.88,-0.52,8411.111111111111
-0.885,-0.515,8413.888888888889
-0.88,-0.505,8416.666666666666
-0.88,-0.52,8419.444444444445
-0.895,-0.55,8422.222222222223
-0.905,-0.56,8425.0
-0.925,-0.56,8427.777777777777
-0.93,-0.555,8430.555555555555
-0.935,-0.55,8433.333333333334
-0.92,-0.54,8436.111111111111
-0.91,-0.56,8438.888888888889
-0.905,-0.55,8441.666666666666
-0.9,-0.535,8444.444444444445
-0.9,-0.535,8447.222222222223
-0.895,-0.55,8450.0
-0.905,-0.57,8452.777777777777
-0.925,-0.555,8455.555555555555
-0.925,-0.57,8458.333333333334
-0.935,-0.555,8461.111111111111
-0.945,-0.56,8463.888888888889
-0.935,-0.565,8466.666666666666
-0.935,-0.57,8469.444444444445
-0.925,-0.56,8472.222222222223
-0.915,-0.535,8475.0
-0.905,-0.535,8477.777777777777
-0.905,-0.545,8480.555555555555
-0.9,-0.54,8483.333333333334
-0.92,-0.555,8486.111111111111
-0.93,-0.575,8488.888888888889
-0.945,-0.58,8491.666666666666
-0.945,-0.585,8494.444444444445
-0.945,-0.58,8497.222222222223
-0.95,-0.575,8500.0
-0.935,-0.56,8502.777777777777
-0.915,-0.57,8505.555555555555
-0.905,-0.54,8508.333333333334
-0.905,-0.565,8511.111111111111
-0.895,-0.555,8513.888888888889
-0.925,-0.575,8516.666666666666
-0.92,-0.59,8519.444444444445
-0.94,-0.575,8522.222222222223
-0.935,-0.585,8525.0
-0.935,-0.59,8527.777777777777
-0.945,-0.57,8530.555555555555
-0.96,-0.58,8533.333333333334
-0.94,-0.57,8536.111111111111
-0.93,-0.565,8538.888888888889
-0.93,-0.555,8541.666666666666
-0.915,-0.54,8544.444444444445
-0.91,-0.545,8547.222222222223
-0.905,-0.56,8550.0
-0.925,-0.555,8552.777777777777
-0.93,-0.57,8555.555555555555
-0.925,-0.56,8558.333333333334
-0.945,-0.58,8561.111111111111
-0.945,-0.57,8563.888888888889
-0.95,-0.57,8566.666666666666
-0.94,-0.555,8569.444444444445
-0.935,-0.565,8572.222222222223
-0.93,-0.535,8575.0
-0.925,-0.53,8577.777777777777
-0.92,-0.545,8580.555555555555
-0.945,-0.565,8583.333333333334
-0.93,-0.59,8586.111111111111
-0.965,-0.59,8588.888888888889
-0.955,-0.6,8591.666666666666
-0.945,-0.6,8594.444444444445
-0.96,-0.59,8597.222222222223
-0.96,-0.565,8600.0
-0.945,-0.565,8602.777777777777
-0.95,-0.54,8605.555555555555
-0.94,-0.54,8608.333333333334
-0.925,-0.535,8611.111111111111
-0.915,-0.535,8613.888888888889
-0.935,-0.55,8616.666666666666
-0.94,-0.56,8619.444444444445
-0.95,-0.555,8622.222222222223
-0.96,-0.565,8625.0
-0.97,-0.57,8627.777777777777
-0.965,-0.58,8630.555555555555
-0.965,-0.58,8633.333333333334
-0.955,-0.56,8636.111111111111
-0.945,-0.555,8638.888888888889
-0.935,-0.545,8641.666666666666
-0.95,-0.54,8644.444444444445
-0.94,-0.55,8647.222222222223
-0.94,-0.56,8650.0
-0.935,-0.565,8652.777777777777
-0.945,-0.585,8655.555555555555
-0.95,-0.57,8658.333333333334
-0.96,-0.6,8661.111111111111
-0.965,-0.58,8663.888888888889
-0.95,-0.555,8666.666666666666
-0.945,-0.57,8669.444444444445
-0.95,-0.58,8672.222222222223
-0.94,-0.555,8675.0
-0.925,-0.56,8677.777777777777
-0.925,-0.56,8680.555555555555
-0.925,-0.55,8683.333333333334
-0.925,-0.55,8686.111111111111
-0.935,-0.55,8688.888888888889
-0.95,-0.575,8691.666666666666
-0.955,-0.565,8694.444444444445
-0.97,-0.57,8697.222222222223
-0.97,-0.585,8700.0
-0.96,-0.57,8702.777777777777
-0.935,-0.565,8705.555555555555
-0.935,-0.545,8708.333333333334
-0.925,-0.55,8711.111111111111
-0.915,-0.545,8713.888888888889
-0.915,-0.54,8716.666666666666
-0.92,-0.55,8719.444444444445
-0.94,-0.56,8722.222222222223
-0.94,-0.575,8725.0
-0.955,-0.575,8727.777777777777
-0.97,-0.6,8730.555555555555
-0.96,-0.59,8733.333333333334
-0.965,-0.585,8736.111111111111
-0.97,-0.57,8738.888888888889
-0.95,-0.57,8741.666666666666
-0.935,-0.545,8744.444444444445
-0.93,-0.57,8747.222222222223
-0.915,-0.56,8750.0
-0.92,-0.57,8752.777777777777
-0.935,-0.58,8755.555555555555
-0.94,-0.595,8758.333333333334
-0.96,-0.58,8761.111111111111
-0.95,-0.575,8763.888888888889
-0.955,-0.58,8766.666666666666
-0.95,-0.565,8769.444444444445
-0.945,-0.56,8772.222222222223
-0.94,-0.555,8775.0
-0.92,-0.54,8777.777777777777
-0.92,-0.55,8780.555555555555
-0.925,-0.565,8783.333333333334
-0.94,-0.575,8786.111111111111
-0.96,-0.555,8788.888888888889
-0.96,-0.585,8791.666666666666
-0.965,-0.585,8794.444444444445
-0.945,-0.58,8797.222222222223
-0.945,-0.585,8800.0
-0.92,-0.565,8802.777777777777
-0.9,-0.55,8805.555555555555
-0.88,-0.535,8808.333333333334
-0.86,-0.545,8811.111111111111
-0.845,-0.535,8813.888888888889
-0.83,-0.535,8816.666666666666
-0.81,-0.565,8819.444444444445
-0.825,-0.575,8822.222222222223
-0.84,-0.595,8825.0
-0.85,-0.61,8827.777777777777
-0.875,-0.595,8830.555555555555
-0.86,-0.565,8833.333333333334
-0.825,-0.555,8836.111111111111
-0.79,-0.545,8838.888888888889
-0.73,-0.525,8841.666666666666
-0.685,-0.505,8844.444444444445
-0.68,-0.5,8847.222222222223
-0.67,-0.49,8850.0
-0.705,-0.495,8852.777777777777
-0.72,-0.52,8855.555555555555
-0.735,-0.515,8858.333333333334
-0.77,-0.505,8861.111111111111
-0.78,-0.525,8863.888888888889
-0.795,-0.5,8866.666666666666
-0.795,-0.485,8869.444444444445
-0.78,-0.465,8872.222222222223
-0.775,-0.47,8875.0
-0.78,-0.465,8877.777777777777
-0.78,-0.48,8880.555555555555
-0.8,-0.485,8883.333333333334
-0.83,-0.515,8886.111111111111
-0.865,-0.525,8888.888888888889
-0.915,-0.55,8891.666666666666
-0.94,-0.575,8894.444444444445
-0.975,-0.59,8897.222222222223
-0.99,-0.59,8900.0
-0.99,-0.585,8902.777777777777
-0.975,-0.56,8905.555555555555
-0.965,-0.565,8908.333333333334
-0.97,-0.555,8911.111111111111
-0.96,-0.55,8913.888888888889
-0.97,-0.565,8916.666666666666
-0.99,-0.555,8919.444444444445
-0.99,-0.56,8922.222222222223
-1.01,-0.57,8925.0
-1.01,-0.585,8927.777777777777
-1.02,-0.57,8930.555555555555
-1.025,-0.56,8933.333333333334
-1.02,-0.55,8936.111111111111
-1.01,-0.555,8938.888888888889
-1.005,-0.545,8941.666666666666
-0.985,-0.53,8944.444444444445
-0.975,-0.53,8947.222222222223
-0.99,-0.545,8950.0
-0.98,-0.535,8952.777777777777
-0.99,-0.56,8955.555555555555
-1.005,-0.565,8958.333333333334
-1.0,-0.59,8961.111111111111
-1.01,-0.57,8963.888888888889
-1.015,-0.575,8966.666666666666
-0.99,-0.58,8969.444444444445
-0.98,-0.555,8972.222222222223
-0.98,-0.56,8975.0
-0.965,-0.55,8977.777777777777
-0.98,-0.55,8980.555555555555
-0.97,-0.565,8983.333333333334
-0.99,-0.555,8986.111111111111
-0.975,-0.555,8988.888888888889
-0.985,-0.55,8991.666666666666
-0.97,-0.55,8994.444444444445
-0.975,-0.555,8997.222222222223
-0.96,-0.55,9000.0
-0.97,-0.535,9002.777777777777
-0.95,-0.54,9005.555555555555
-0.94,-0.52,9008.333333333334
-0.92,-0.52,9011.111111111111
-0.92,-0.5,9013.888888888889
-0.895,-0.495,9016.666666666666
-0.9,-0.495,9019.444444444445
-0.885,-0.505,9022.222222222223
-0.88,-0.475,9025.0
-0.845,-0.43,9027.777777777777
-0.735,-0.36,9030.555555555555
-0.56,-0.225,9033.333333333334
-0.31,-0.05,9036.111111111111
-0.03,0.115,9038.888888888889
0.24,0.265,9041.666666666666
0.535,0.39,9044.444444444445
0.835,0.435,9047.222222222223
1.095,0.47,9050.0
1.285,0.435,9052.777777777777
1.315,0.405,9055.555555555555
1.145,0.32,9058.333333333334
0.825,0.22,9061.111111111111
0.37,0.045,9063.888888888889
-0.17,-0.2,9066.666666666666
-0.715,-0.455,9069.444444444445
-1.195,-0.725,9072.222222222223
-1.54,-1.02,9075.0
-1.685,-1.21,9077.777777777777
-1.7,-1.32,9080.555555555555
-1.6,-1.3,9083.333333333334
-1.45,-1.215,9086.111111111111
-1.325,-1.07,9088.888888888889
-1.245,-0.945,9091.666666666666
-1.22,-0.83,9094.444444444445
-1.215,-0.755,9097.222222222223
-1.2,-0.72,9100.0
-1.15,-0.665,9102.777777777777
-1.09,-0.63,9105.555555555555
-1.035,-0.605,9108.333333333334
-0.99,-0.585,9111.111111111111
-0.94,-0.575,9113.888888888889
-0.935,-0.565,9116.666666666666
-0.96,-0.555,9119.444444444445
-0.99,-0.575,9122.222222222223
-1.0,-0.575,9125.0
-1.01,-0.565,9127.777777777777
-1.005,-0.555,9130.555555555555
-1.005,-0.545,9133.333333333334
-0.99,-0.54,9136.111111111111
-0.99,-0.53,9138.888888888889
-0.985,-0.515,9141.666666666666
-0.975,-0.515,9144.444444444445
-0.975,-0.495,9147.222222222223
-0.965,-0.49,9150.0
-0.98,-0.505,9152.777777777777
-0.96,-0.52,9155.555555555555
-0.975,-0.51,9158.333333333334
-0.975,-0.515,9161.111111111111
-0.985,-0.51,9163.888888888889
-0.98,-0.515,9166.666666666666
-0.96,-0.495,9169.444444444445
-0.96,-0.48,9172.222222222223
-0.955,-0.47,9175.0
-0.955,-0.465,9177.777777777777
-0.955,-0.485,9180.555555555555
-0.94,-0.475,9183.333333333334
-0.94,-0.495,9186.111111111111
-0.965,-0.505,9188.888888888889
-0.97,-0.515,9191.666666666666
-0.97,-0.525,9194.444444444445
-0.965,-0.505,9197.222222222223
-0.97,-0.515,9200.0
-0.95,-0.505,9202.777777777777
-0.94,-0.48,9205.555555555555
-0.95,-0.475,9208.333333333334
-0.95,-0.47,9211.111111111111
-0.94,-0.47,9213.888888888889
-0.94,-0.465,9216.666666666666
-0.95,-0.46,9219.444444444445
-0.975,-0.485,9222.222222222223
-0.97,-0.485,9225.0
-0.97,-0.505,9227.777777777777
-0.96,-0.495,9230.555555555555
-0.97,-0.48,9233.333333333334
-0.96,-0.47,9236.111111111111
-0.955,-0.46,9238.888888888889
-0.945,-0.45,9241.666666666666
-0.925,-0.445,9244.444444444445
-0.91,-0.45,9247.222222222223
-0.91,-0.44,9250.0
-0.905,-0.45,9252.777777777777
-0.905,-0.45,9255.555555555555
-0.92,-0.465,9258.333333333334
-0.92,-0.455,9261.111111111111
-0.91,-0.47,9263.888888888889
-0.905,-0.465,9266.666666666666
-0.895,-0.44,9269.444444444445
-0.88,-0.44,9272.222222222223
-0.87,-0.425,9275.0
-0.85,-0.4,9277.777777777777
-0.845,-0.405,9280.555555555555
-0.835,-0.385,9283.333333333334
-0.83,-0.395,9286.111111111111
-0.82,-0.39,9288.888888888889
-0.845,-0.405,9291.666666666666
-0.84,-0.4,9294.444444444445
-0.84,-0.385,9297.222222222223
-0.83,-0.375,9300.0
-0.81,-0.355,9302.777777777777
-0.78,-0.345,9305.555555555555
-0.755,-0.315,9308.333333333334
-0.73,-0.305,9311.111111111111
-0.71,-0.305,9313.888888888889
-0.7,-0.305,9316.666666666666
-0.69,-0.305,9319.444444444445
-0.69,-0.3,9322.222222222223
-0.685,-0.29,9325.0
-0.66,-0.295,9327.777777777777
-0.665,-0.275,9330.555555555555
-0.66,-0.265,9333.333333333334
-0.62,-0.26,9336.111111111111
-0.595,-0.23,9338.888888888889
-0.56,-0.235,9341.666666666666
-0.545,-0.225,9344.444444444445
-0.515,-0.205,9347.222222222223
-0.49,-0.2,9350.0
-0.5,-0.215,9352.777777777777
-0.475,-0.205,9355.555555555555
-0.485,-0.205,9358.333333333334
-0.475,-0.185,9361.111111111111
-0.47,-0.2,9363.888888888889
-0.475,-0.18,9366.666666666666
-0.45,-0.16,9369.444444444445
-0.445,-0.155,9372.222222222223
-0.42,-0.135,9375.0
-0.4,-0.14,9377.777777777777
-0.41,-0.14,9380.555555555555
-0.415,-0.16,9383.333333333334
-0.42,-0.165,9386.111111111111
-0.44,-0.19,9388.888888888889
-0.475,-0.205,9391.666666666666
-0.485,-0.225,9394.444444444445
-0.51,-0.24,9397.222222222223
-0.535,-0.245,9400.0
-0.56,-0.245,9402.777777777777
-0.565,-0.255,9405.555555555555
-0.585,-0.275,9408.333333333334
-0.605,-0.275,9411.111111111111
-0.625,-0.315,9413.888888888889
-0.65,-0.315,9416.666666666666
-0.685,-0.365,9419.444444444445
-0.71,-0.38,9422.222222222223
-0.75,-0.42,9425.0
-0.775,-0.44,9427.777777777777
-0.8,-0.45,9430.555555555555
-0.82,-0.465,9433.333333333334
-0.82,-0.46,9436.111111111111
-0.825,-0.455,9438.888888888889
-0.815,-0.45,9441.666666666666
-0.815,-0.44,9444.444444444445
-0.81,-0.46,9447.222222222223
-0.825,-0.455,9450.0
-0.84,-0.475,9452.777777777777
-0.85,-0.475,9455.555555555555
-0.855,-0.485,9458.333333333334
-0.875,-0.495,9461.111111111111
-0.875,-0.485,9463.888888888889
-0.87,-0.485,9466.666666666666
-0.87,-0.47,9469.444444444445
-0.855,-0.47,9472.222222222223
-0.85,-0.465,9475.0
-0.855,-0.475,9477.777777777777
-0.85,-0.49,9480.555555555555
-0.855,-0.49,9483.333333333334
-0.855,-0.51,9486.111111111111
-0.88,-0.51,9488.888888888889
-0.89,-0.515,9491.666666666666
-0.9,-0.53,9494.444444444445
-0.905,-0.51,9497.222222222223
-0.91,-0.52,9500.0
-0.89,-0.5,9502.777777777777
-0.875,-0.5,9505.555555555555
-0.86,-0.505,9508.333333333334
-0.86,-0.48,9511.111111111111
-0.845,-0.495,9513.888888888889
-0.835,-0.465,9516.666666666666
-0.855,-0.47,9519.444444444445
-0.865,-0.48,9522.222222222223
-0.885,-0.49,9525.0
-0.89,-0.51,9527.777777777777
-0.895,-0.5,9530.555555555555
-0.905,-0.51,9533.333333333334
-0.875,-0.495,9536.111111111111
-0.86,-0.51,9538.888888888889
-0.845,-0.485,9541.666666666666
-0.83,-0.475,9544.444444444445
-0.82,-0.48,9547.222222222223
-0.825,-0.48,9550.0
-0.82,-0.48,9552.777777777777
-0.84,-0.49,9555.555555555555
-0.845,-0.47,9558.333333333334
-0.84,-0.485,9561.111111111111
-0.845,-0.48,9563.888888888889
-0.85,-0.485,9566.666666666666
-0.855,-0.475,9569.444444444445
-0.84,-0.465,9572.222222222223
-0.815,-0.46,9575.0
-0.805,-0.45,9577.777777777777
-0.8,-0.44,9580.555555555555
-0.79,-0.465,9583.333333333334
-0.81,-0.445,9586.111111111111
-0.815,-0.48,9588.888888888889
-0.825,-0.465,9591.666666666666
-0.835,-0.475,9594.444444444445
-0.835,-0.475,9597.222222222223
-0.84,-0.475,9600.0
-0.84,-0.455,9602.777777777777
-0.81,-0.46,9605.555555555555
-0.81,-0.425,9608.333333333334
-0.805,-0.425,9611.111111111111
-0.8,-0.43,9613.888888888889
-0.795,-0.43,9616.666666666666
-0.8,-0.425,9619.444444444445
-0.8,-0.445,9622.222222222223
-0.825,-0.44,9625.0
-0.81,-0.455,9627.777777777777
-0.825,-0.445,9630.555555555555
-0.825,-0.445,9633.333333333334
-0.825,-0.465,9636.111111111111
-0.81,-0.455,9638.888888888889
-0.805,-0.455,9641.666666666666
-0.79,-0.46,9644.444444444445
-0.805,-0.44,9647.222222222223
-0.79,-0.44,9650.0
-0.805,-0.455,9652.777777777777
-0.82,-0.465,9655.555555555555
-0.835,-0.47,9658.333333333334
-0.855,-0.48,9661.111111111111
-0.865,-0.48,9663.888888888889
-0.85,-0.475,9666.666666666666
-0.86,-0.475,9669.444444444445
-0.84,-0.46,9672.222222222223
-0.83,-0.45,9675.0
-0.815,-0.455,9677.777777777777
-0.815,-0.45,9680.555555555555
-0.835,-0.45,9683.333333333334
-0.825,-0.465,9686.111111111111
-0.83,-0.455,9688.888888888889
-0.83,-0.475,9691.666666666666
-0.835,-0.48,9694.444444444445
-0.85,-0.47,9697.222222222223
-0.87,-0.505,9700.0
-0.85,-0.475,9702.777777777777
-0.865,-0.48,9705.555555555555
-0.85,-0.46,9708.333333333334
-0.845,-0.455,9711.111111111111
-0.83,-0.46,9713.888888888889
-0.845,-0.455,9716.666666666666
-0.845,-0.485,9719.444444444445
-0.85,-0.495,9722.222222222223
-0.845,-0.505,9725.0
-0.865,-0.505,9727.777777777777
-0.87,-0.495,9730.555555555555
-0.87,-0.5,9733.333333333334
-0.865,-0.495,9736.111111111111
-0.845,-0.48,9738.888888888889
-0.845,-0.47,9741.666666666666
-0.84,-0.475,9744.444444444445
-0.85,-0.475,9747.222222222223
-0.835,-0.46,9750.0
-0.85,-0.475,9752.777777777777
-0.835,-0.475,9755.555555555555
-0.85,-0.5,9758.333333333334
-0.865,-0.5,9761.111111111111
-0.88,-0.505,9763.888888888889
-0.875,-0.5,9766.666666666666
-0.87,-0.475,9769.444444444445
-0.85,-0.47,9772.222222222223
-0.855,-0.445,9775.0
-0.845,-0.445,9777.777777777777
-0.85,-0.46,9780.555555555555
-0.845,-0.475,9783.333333333334
-0.825,-0.49,9786.111111111111
-0.85,-0.485,9788.888888888889
-0.85,-0.52,9791.666666666666
-0.86,-0.52,9794.444444444445
-0.855,-0.515,9797.222222222223
-0.85,-0.5,9800.0
-0.845,-0.48,9802.777777777777
-0.845,-0.47,9805.555555555555
-0.84,-0.48,9808.333333333334
-0.845,-0.465,9811.111111111111
-0.845,-0.46,9813.888888888889
-0.845,-0.465,9816.666666666666
-0.855,-0.47,9819.444444444445
-0.845,-0.495,9822.222222222223
-0.84,-0.505,9825.0
-0.865,-0.51,9827.777777777777
-0.88,-0.5,9830.555555555555
-0.865,-0.49,9833.333333333334
-0.85,-0.485,9836.111111111111
-0.855,-0.465,9838.888888888889
-0.835,-0.465,9841.666666666666
-0.82,-0.455,9844.444444444445
-0.835,-0.46,9847.222222222223
-0.82,-0.465,9850.0
-0.84,-0.475,9852.777777777777
-0.835,-0.5,9855.555555555555
-0.835,-0.495,9858.333333333334
-0.86,-0.505,9861.111111111111
-0.865,-0.495,9863.888888888889
-0.87,-0.505,9866.666666666666
-0.86,-0.505,9869.444444444445
-0.855,-0.48,9872.222222222223
-0.835,-0.47,9875.0
-0.835,-0.48,9877.777777777777
-0.82,-0.475,9880.555555555555
-0.815,-0.465,9883.333333333334
-0.815,-0.495,9886.111111111111
-0.82,-0.485,9888.888888888889
-0.835,-0.48,9891.666666666666
-0.835,-0.49,9894.444444444445
-0.845,-0.49,9897.222222222223
-0.84,-0.485,9900.0
-0.845,-0.475,9902.777777777777
-0.84,-0.48,9905.555555555555
-0.845,-0.465,9908.333333333334
-0.81,-0.45,9911.111111111111
-0.805,-0.46,9913.888888888889
-0.795,-0.47,9916.666666666666
-0.805,-0.475,9919.444444444445
-0.82,-0.465,9922.222222222223
-0.815,-0.485,9925.0
-0.82,-0.49,9927.777777777777
-0.82,-0.5,9930.555555555555
-0.81,-0.48,9933.333333333334
-0.79,-0.485,9936.111111111111
-0.78,-0.475,9938.888888888889
-0.765,-0.46,9941.666666666666
-0.74,-0.47,9944.444444444445
-0.73,-0.48,9947.222222222223
-0.715,-0.465,9950.0
-0.71,-0.48,9952.777777777777
-0.715,-0.49,9955.555555555555
-0.705,-0.495,9958.333333333334
-0.705,-0.49,9961.111111111111
-0.71,-0.485,9963.888888888889
-0.685,-0.48,9966.666666666666
-0.64,-0.465,9969.444444444445
-0.625,-0.43,9972.222222222223
-0.595,-0.415,9975.0
-0.56,-0.395,9977.777777777777
-0.565,-0.39,9980.555555555555
-0.58,-0.395,9983.333333333334
-0.6,-0.395,9986.111111111111
-0.615,-0.42,9988.888888888889
-0.625,-0.44,9991.666666666666
-0.645,-0.45,9994.444444444445
-0.665,-0.45,9997.222222222223
-0.65,-0.43,10000.0
-0.655,-0.415,10002.777777777777
-0.645,-0.4,10005.555555555555
-0.64,-0.385,10008.333333333334
-0.635,-0.375,10011.111111111111
-0.66,-0.39,10013.888888888889
-0.7,-0.405,10016.666666666666
-0.73,-0.425,10019.444444444445
-0.775,-0.44,10022.222222222223
-0.8,-0.475,10025.0
-0.825,-0.49,10027.777777777777
-0.84,-0.5,10030.555555555555
-0.855,-0.5,10033.333333333334
-0.855,-0.495,10036.111111111111
-0.85,-0.48,10038.888888888889
-0.85,-0.48,10041.666666666666
-0.845,-0.46,10044.444444444445
-0.845,-0.48,10047.222222222223
-0.85,-0.48,10050.0
-0.86,-0.48,10052.777777777777
-0.865,-0.47,10055.555555555555
-0.89,-0.475,10058.333333333334
-0.89,-0.48,10061.111111111111
-0.89,-0.5,10063.888888888889
-0.885,-0.49,10066.666666666666
-0.885,-0.49,10069.444444444445
-0.895,-0.475,10072.222222222223
-0.885,-0.475,10075.0
-0.87,-0.46,10077.777777777777
-0.855,-0.47,10080.555555555555
-0.875,-0.475,10083.333333333334
-0.885,-0.48,10086.111111111111
-0.87,-0.495,10088.888888888889
-0.89,-0.515,10091.666666666666
-0.885,-0.505,10094.444444444445
-0.885,-0.505,10097.222222222223
-0.885,-0.51,10100.0
-0.89,-0.495,10102.777777777777
-0.885,-0.5,10105.555555555555
-0.875,-0.48,10108.333333333334
-0.87,-0.47,10111.111111111111
-0.86,-0.46,10113.888888888889
-0.87,-0.485,10116.666666666666
-0.86,-0.485,10119.444444444445
-0.86,-0.49,10122.222222222223
-0.865,-0.49,10125.0
-0.875,-0.51,10127.777777777777
-0.88,-0.505,10130.555555555555
-0.88,-0.49,10133.333333333334
-0.875,-0.465,10136.111111111111
-0.86,-0.47,10138.888888888889
-0.835,-0.45,10141.666666666666
-0.82,-0.44,10144.444444444445
-0.8,-0.44,10147.222222222223
-0.795,-0.44,10150.0
-0.775,-0.435,10152.777777777777
-0.77,-0.435,10155.555555555555
-0.76,-0.425,10158.333333333334
-0.755,-0.4,10161.111111111111
-0.675,-0.335,10163.888888888889
-0.525,-0.245,10166.666666666666
-0.3,-0.105,10169.444444444445
-0.025,0.065,10172.222222222223
0.25,0.24,10175.0
0.54,0.395,10177.777777777777
0.835,0.465,10180.555555555555
1.155,0.49,10183.333333333334
1.385,0.495,10186.111111111111
1.475,0.475,10188.888888888889
1.36,0.395,10191.666666666666
1.03,0.27,10194.444444444445
0.515,0.055,10197.222222222223
-0.125,-0.225,10200.0
-0.765,-0.575,10202.777777777777
-1.36,-0.915,10205.555555555555
-1.69,-1.19,10208.333333333334
-1.745,-1.33,10211.111111111111
-1.635,-1.295,10213.888888888889
-1.445,-1.165,10216.666666666666
-1.24,-0.99,10219.444444444445
-1.11,-0.815,10222.222222222223
-1.02,-0.71,10225.0
-0.97,-0.65,10227.777777777777
-0.95,-0.595,10230.555555555555
-0.925,-0.6,10233.333333333334
-0.905,-0.58,10236.111111111111
-0.88,-0.545,10238.888888888889
-0.855,-0.55,10241.666666666666
-0.855,-0.54,10244.444444444445
-0.83,-0.53,10247.222222222223
-0.835,-0.505,10250.0
-0.85,-0.525,10252.777777777777
-0.86,-0.525,10255.555555555555
-0.85,-0.505,10258.333333333334
-0.86,-0.525,10261.111111111111
-0.855,-0.51,10263.888888888889
-0.855,-0.49,10266.666666666666
-0.85,-0.49,10269.444444444445
-0.85,-0.475,10272.222222222223
-0.835,-0.465,10275.0
-0.815,-0.45,10277.777777777777
-0.815,-0.445,10280.555555555555
-0.815,-0.45,10283.333333333334
-0.82,-0.46,10286.111111111111
-0.815,-0.455,10288.888888888889
-0.83,-0.475,10291.666666666666
-0.84,-0.47,10294.444444444445
-0.85,-0.485,10297.222222222223
-0.835,-0.465,10300.0
-0.835,-0.46,10302.777777777777
-0.825,-0.465,10305.555555555555
-0.81,-0.44,10308.333333333334
-0.795,-0.45,10311.111111111111
-0.79,-0.43,10313.888888888889
-0.79,-0.45,10316.666666666666
-0.8,-0.455,10319.444444444445
-0.81,-0.465,10322.222222222223
-0.815,-0.47,10325.0
-0.82,-0.495,10327.777777777777
-0.84,-0.49,10330.555555555555
-0.845,-0.475,10333.333333333334
-0.845,-0.465,10336.111111111111
-0.825,-0.46,10338.888888888889
-0.815,-0.44,10341.666666666666
-0.8,-0.425,10344.444444444445
-0.79,-0.43,10347.222222222223
-0.795,-0.43,10350.0
-0.79,-0.43,10352.777777777777
-0.8,-0.44,10355.555555555555
-0.8,-0.45,10358.333333333334
-0.805,-0.465,10361.111111111111
-0.81,-0.46,10363.888888888889
-0.8,-0.45,10366.666666666666
-0.795,-0.425,10369.444444444445
-0.79,-0.425,10372.222222222223
-0.77,-0.425,10375.0
-0.765,-0.4,10377.777777777777
-0.765,-0.38,10380.555555555555
-0.745,-0.405,10383.333333333334
-0.74,-0.405,10386.111111111111
-0.75,-0.425,10388.888888888889
-0.765,-0.43,10391.666666666666
-0.775,-0.43,10394.444444444445
-0.785,-0.415,10397.222222222223
-0.775,-0.42,10400.0
-0.77,-0.415,10402.777777777777
-0.75,-0.385,10405.555555555555
-0.735,-0.365,10408.333333333334
-0.7,-0.35,10411.111111111111
-0.7,-0.36,10413.888888888889
-0.695,-0.345,10416.666666666666
-0.685,-0.34,10419.444444444445
-0.67,-0.35,10422.222222222223
-0.675,-0.345,10425.0
-0.665,-0.35,10427.777777777777
-0.655,-0.34,10430.555555555555
-0.64,-0.315,10433.333333333334
-0.635,-0.305,10436.111111111111
-0.63,-0.29,10438.888888888889
-0.59,-0.27,10441.666666666666
-0.56,-0.235,10444.444444444445
-0.54,-0.24,10447.222222222223
-0.52,-0.245,10450.0
-0.5,-0.215,10452.777777777777
-0.48,-0.22,10455.555555555555
-0.47,-0.22,10458.333333333334
-0.465,-0.215,10461.111111111111
-0.45,-0.22,10463.888888888889
-0.435,-0.215,10466.666666666666
-0.415,-0.19,10469.444444444445
-0.395,-0.185,10472.222222222223
-0.375,-0.155,10475.0
-0.355,-0.145,10477.777777777777
-0.325,-0.145,10480.555555555555
-0.33,-0.14,10483.333333333334
-0.325,-0.125,10486.111111111111
-0.33,-0.13,10488.888888888889
-0.315,-0.14,10491.666666666666
-0.3,-0.16,10494.444444444445
-0.305,-0.145,10497.222222222223
-0.305,-0.15,10500.0
-0.315,-0.14,10502.777777777777
-0.315,-0.15,10505.555555555555
-0.32,-0.14,10508.333333333334
-0.325,-0.15,10511.111111111111
-0.335,-0.175,10513.888888888889
-0.355,-0.18,10516.666666666666
-0.385,-0.22,10519.444444444445
-0.415,-0.23,10522.222222222223
-0.45,-0.265,10525.0
-0.47,-0.3,10527.777777777777
-0.51,-0.315,10530.555555555555
-0.525,-0.325,10533.333333333334
-0.565,-0.34,10536.111111111111
-0.565,-0.35,10538.888888888889
-0.585,-0.36,10541.666666666666
-0.61,-0.365,10544.444444444445
-0.625,-0.4,10547.222222222223
-0.645,-0.41,10550.0
-0.665,-0.42,10552.777777777777
-0.685,-0.44,10555.555555555555
-0.695,-0.465,10558.333333333334
-0.71,-0.455,10561.111111111111
-0.73,-0.46,10563.888888888889
-0.75,-0.485,10566.666666666666
-0.76,-0.47,10569.444444444445
-0.755,-0.475,10572.222222222223
-0.76,-0.47,10575.0
-0.76,-0.475,10577.777777777777
-0.745,-0.46,10580.555555555555
-0.75,-0.48,10583.333333333334
-0.745,-0.485,10586.111111111111
-0.755,-0.495,10588.888888888889
-0.78,-0.515,10591.666666666666
-0.785,-0.515,10594.444444444445
-0.8,-0.525,10597.222222222223
-0.8,-0.525,10600.0
-0.8,-0.515,10602.777777777777
-0.795,-0.52,10605.555555555555
-0.775,-0.505,10608.333333333334
-0.79,-0.51,10611.111111111111
-0.775,-0.52,10613.888888888889
-0.775,-0.515,10616.666666666666
-0.78,-0.53,10619.444444444445
-0.79,-0.54,10622.222222222223
-0.805,-0.555,10625.0
-0.815,-0.555,10627.777777777777
-0.81,-0.56,10630.555555555555
-0.82,-0.545,10633.333333333334
-0.81,-0.525,10636.111111111111
-0.805,-0.51,10638.888888888889
-0.8,-0.52,10641.666666666666
-0.785,-0.505,10644.444444444445
-0.785,-0.515,10647.222222222223
-0.785,-0.51,10650.0
-0.795,-0.515,10652.777777777777
-0.79,-0.525,10655.555555555555
-0.8,-0.525,10658.333333333334
-0.82,-0.535,10661.111111111111
-0.825,-0.54,10663.888888888889
-0.825,-0.535,10666.666666666666
-0.815,-0.52,10669.444444444445
-0.8,-0.525,10672.222222222223
-0.79,-0.51,10675.0
-0.77,-0.495,10677.777777777777
-0.76,-0.5,10680.555555555555
-0.775,-0.5,10683.333333333334
-0.76,-0.515,10686.111111111111
-0.76,-0.535,10688.888888888889
-0.785,-0.54,10691.666666666666
-0.77,-0.55,10694.444444444445
-0.795,-0.535,10697.222222222223
-0.79,-0.525,10700.0
-0.775,-0.525,10702.777777777777
-0.77,-0.515,10705.555555555555
-0.78,-0.5,10708.333333333334
-0.765,-0.49,10711.111111111111
-0.74,-0.5,10713.888888888889
-0.735,-0.49,10716.666666666666
-0.745,-0.5,10719.444444444445
-0.745,-0.5,10722.222222222223
-0.75,-0.505,10725.0
-0.75,-0.51,10727.777777777777
-0.765,-0.51,10730.555555555555
-0.77,-0.505,10733.333333333334
-0.765,-0.515,10736.111111111111
-0.77,-0.49,10738.888888888889
-0.755,-0.49,10741.666666666666
-0.75,-0.49,10744.444444444445
-0.745,-0.47,10747.222222222223
-0.755,-0.485,10750.0
-0.745,-0.51,10752.777777777777
-0.765,-0.495,10755.555555555555
-0.78,-0.505,10758.333333333334
-0.79,-0.52,10761.111111111111
-0.79,-0.53,10763.888888888889
-0.795,-0.545,10766.666666666666
-0.795,-0.525,10769.444444444445
-0.79,-0.535,10772.222222222223
-0.79,-0.5,10775.0
-0.765,-0.51,10777.777777777777
-0.76,-0.51,10780.555555555555
-0.77,-0.51,10783.333333333334
-0.775,-0.515,10786.111111111111
-0.785,-0.535,10788.888888888889
-0.795,-0.545,10791.666666666666
-0.82,-0.555,10794.444444444445
-0.83,-0.56,10797.222222222223
-0.83,-0.545,10800.0
-0.825,-0.525,10802.777777777777
-0.815,-0.525,10805.555555555555
-0.81,-0.525,10808.333333333334
-0.785,-0.515,10811.111111111111
-0.795,-0.515,10813.888888888889
-0.78,-0.52,10816.666666666666
-0.8,-0.515,10819.444444444445
-0.82,-0.525,10822.222222222223
-0.82,-0.545,10825.0
-0.83,-0.56,10827.777777777777
-0.83,-0.555,10830.555555555555
-0.83,-0.57,10833.333333333334
-0.82,-0.55,10836.111111111111
-0.82,-0.555,10838.888888888889
-0.8,-0.56,10841.666666666666
-0.805,-0.54,10844.444444444445
-0.805,-0.545,10847.222222222223
-0.805,-0.54,10850.0
-0.81,-0.55,10852.777777777777
-0.825,-0.57,10855.555555555555
-0.835,-0.565,10858.333333333334
-0.84,-0.58,10861.111111111111
-0.835,-0.565,10863.888888888889
-0.855,-0.57,10866.666666666666
-0.84,-0.575,10869.444444444445
-0.84,-0.57,10872.222222222223
-0.83,-0.54,10875.0
-0.835,-0.555,10877.777777777777
-0.825,-0.545,10880.555555555555
-0.84,-0.535,10883.333333333334
-0.83,-0.545,10886.111111111111
-0.825,-0.56,10888.888888888889
-0.855,-0.56,10891.666666666666
-0.855,-0.575,10894.444444444445
-0.85,-0.57,10897.222222222223
-0.85,-0.565,10900.0
-0.85,-0.585,10902.777777777777
-0.855,-0.56,10905.555555555555
-0.84,-0.55,10908.333333333334
-0.83,-0.56,10911.111111111111
-0.82,-0.54,10913.888888888889
-0.825,-0.55,10916.666666666666
-0.82,-0.575,10919.444444444445
-0.845,-0.585,10922.222222222223
-0.855,-0.585,10925.0
-0.855,-0.61,10927.777777777777
-0.87,-0.6,10930.555555555555
-0.865,-0.6,10933.333333333334
-0.86,-0.58,10936.111111111111
-0.855,-0.58,10938.888888888889
-0.86,-0.56,10941.666666666666
-0.86,-0.555,10944.444444444445
-0.85,-0.56,10947.222222222223
-0.86,-0.57,10950.0
-0.875,-0.58,10952.777777777777
-0.855,-0.57,10955.555555555555
-0.875,-0.595,10958.333333333334
-0.875,-0.595,10961.111111111111
-0.865,-0.59,10963.888888888889
-0.87,-0.595,10966.666666666666
-0.85,-0.585,10969.444444444445
-0.855,-0.58,10972.222222222223
-0.845,-0.58,10975.0
-0.835,-0.57,10977.777777777777
-0.835,-0.58,10980.555555555555
-0.835,-0.57,10983.333333333334
-0.835,-0.585,10986.111111111111
-0.85,-0.6,10988.888888888889
-0.87,-0.605,10991.666666666666
-0.86,-0.605,10994.444444444445
-0.86,-0.625,10997.222222222223
-0.855,-0.61,11000.0
-0.86,-0.61,11002.777777777777
-0.865,-0.595,11005.555555555555
-0.85,-0.585,11008.333333333334
-0.845,-0.585,11011.111111111111
-0.835,-0.57,11013.888888888889
-0.835,-0.575,11016.666666666666
-0.845,-0.585,11019.444444444445
-0.845,-0.585,11022.222222222223
-0.855,-0.59,11025.0
-0.865,-0.59,11027.777777777777
-0.87,-0.605,11030.555555555555
-0.86,-0.605,11033.333333333334
-0.86,-0.585,11036.111111111111
-0.86,-0.585,11038.888888888889
-0.835,-0.56,11041.666666666666
-0.825,-0.55,11044.444444444445
-0.83,-0.56,11047.222222222223
-0.835,-0.555,11050.0
-0.82,-0.57,11052.777777777777
-0.84,-0.585,11055.555555555555
-0.84,-0.61,11058.333333333334
-0.855,-0.605,11061.111111111111
-0.86,-0.61,11063.888888888889
-0.865,-0.605,11066.666666666666
-0.85,-0.635,11069.444444444445
-0.855,-0.61,11072.222222222223
-0.865,-0.585,11075.0
-0.85,-0.575,11077.777777777777
-0.83,-0.59,11080.555555555555
-0.83,-0.575,11083.333333333334
-0.845,-0.58,11086.111111111111
-0.845,-0.575,11088.888888888889
-0.855,-0.59,11091.666666666666
-0.865,-0.61,11094.444444444445
-0.89,-0.595,11097.222222222223
-0.875,-0.595,11100.0
-0.87,-0.595,11102.777777777777
-0.85,-0.575,11105.555555555555
-0.85,-0.565,11108.333333333334
-0.845,-0.545,11111.111111111111
-0.83,-0.565,11113.888888888889
-0.825,-0.56,11116.666666666666
-0.825,-0.575,11119.444444444445
-0.84,-0.585,11122.222222222223
-0.855,-0.58,11125.0
-0.86,-0.59,11127.777777777777
-0.855,-0.605,11130.555555555555
