MLII,V4,time_ms
-1.0,-0.685,0.0
-1.0,-0.685,2.7777777777777777
-1.0,-0.685,5.555555555555555
-1.0,-0.685,8.333333333333334
-1.0,-0.685,11.11111111111111
-1.0,-0.685,13.88888888888889
-1.0,-0.685,16.666666666666668
-0.985,-0.68,19.444444444444443
-0.97,-0.68,22.22222222222222
-0.97,-0.695,25.0
-0.97,-0.695,27.77777777777778
-0.97,-0.695,30.555555555555557
-0.98,-0.705,33.333333333333336
-0.975,-0.705,36.111111111111114
-0.975,-0.695,38.888888888888886
-0.985,-0.69,41.666666666666664
-0.98,-0.69,44.44444444444444
-0.97,-0.67,47.22222222222222
-0.975,-0.675,50.0
-0.955,-0.665,52.77777777777778
-0.945,-0.675,55.55555555555556
-0.95,-0.675,58.333333333333336
-0.965,-0.68,61.111111111111114
-0.95,-0.68,63.888888888888886
-0.955,-0.685,66.66666666666667
-0.96,-0.69,69.44444444444444
-0.96,-0.69,72.22222222222223
-0.965,-0.68,75.0
-0.97,-0.67,77.77777777777777
-0.965,-0.665,80.55555555555556
-0.95,-0.66,83.33333333333333
-0.95,-0.65,86.11111111111111
-0.925,-0.655,88.88888888888889
-0.93,-0.66,91.66666666666667
-0.94,-0.66,94.44444444444444
-0.935,-0.665,97.22222222222223
-0.94,-0.665,100.0
-0.95,-0.67,102.77777777777777
-0.965,-0.675,105.55555555555556
-0.96,-0.675,108.33333333333333
-0.95,-0.665,111.11111111111111
-0.955,-0.66,113.88888888888889
-0.94,-0.655,116.66666666666667
-0.945,-0.65,119.44444444444444
-0.925,-0.66,122.22222222222223
-0.925,-0.66,125.0
-0.93,-0.665,127.77777777777777
-0.93,-0.68,130.55555555555554
-0.935,-0.675,133.33333333333334
-0.945,-0.675,136.11111111111111
-0.95,-0.675,138.88888888888889
-0.95,-0.675,141.66666666666666
-0.945,-0.66,144.44444444444446
-0.94,-0.66,147.22222222222223
-0.935,-0.655,150.0
-0.92,-0.655,152.77777777777777
-0.92,-0.64,155.55555555555554
-0.92,-0.65,158.33333333333334
-0.915,-0.645,161.11111111111111
-0.915,-0.655,163.88888888888889
-0.92,-0.66,166.66666666666666
-0.92,-0.69,169.44444444444446
-0.93,-0.675,172.22222222222223
-0.93,-0.675,175.0
-0.95,-0.665,177.77777777777777
-0.955,-0.66,180.55555555555554
-0.93,-0.65,183.33333333333334
-0.915,-0.645,186.11111111111111
-0.905,-0.64,188.88888888888889
-0.9,-0.65,191.66666666666666
-0.91,-0.655,194.44444444444446
-0.92,-0.655,197.22222222222223
-0.925,-0.66,200.0
-0.925,-0.68,202.77777777777777
-0.925,-0.69,205.55555555555554
-0.92,-0.68,208.33333333333334
-0.93,-0.685,211.11111111111111
-0.935,-0.67,213.88888888888889
-0.92,-0.655,216.66666666666666
-0.905,-0.635,219.44444444444446
-0.905,-0.64,222.22222222222223
-0.895,-0.64,225.0
-0.9,-0.655,227.77777777777777
-0.905,-0.675,230.55555555555554
-0.915,-0.69,233.33333333333334
-0.92,-0.7,236.11111111111111
-0.91,-0.68,238.88888888888889
-0.92,-0.675,241.66666666666666
-0.925,-0.675,244.44444444444446
-0.91,-0.655,247.22222222222223
-0.915,-0.65,250.0
-0.9,-0.645,252.77777777777777
-0.895,-0.635,255.55555555555554
-0.9,-0.65,258.3333333333333
-0.9,-0.66,261.1111111111111
-0.905,-0.67,263.8888888888889
-0.91,-0.675,266.6666666666667
-0.91,-0.68,269.44444444444446
-0.92,-0.675,272.22222222222223
-0.92,-0.655,275.0
-0.92,-0.66,277.77777777777777
-0.92,-0.655,280.55555555555554
-0.91,-0.645,283.3333333333333
-0.92,-0.655,286.1111111111111
-0.9,-0.64,288.8888888888889
-0.895,-0.66,291.6666666666667
-0.9,-0.665,294.44444444444446
-0.905,-0.67,297.22222222222223
-0.915,-0.68,300.0
-0.91,-0.67,302.77777777777777
-0.92,-0.68,305.55555555555554
-0.925,-0.675,308.3333333333333
-0.935,-0.67,311.1111111111111
-0.91,-0.655,313.8888888888889
-0.905,-0.66,316.6666666666667
-0.905,-0.655,319.44444444444446
-0.895,-0.655,322.22222222222223
-0.895,-0.66,325.0
-0.895,-0.675,327.77777777777777
-0.9,-0.67,330.55555555555554
-0.91,-0.675,333.3333333333333
-0.905,-0.685,336.1111111111111
-0.915,-0.675,338.8888888888889
-0.92,-0.68,341.6666666666667
-0.915,-0.685,344.44444444444446
-0.91,-0.67,347.22222222222223
-0.92,-0.665,350.0
-0.9,-0.66,352.77777777777777
-0.89,-0.66,355.55555555555554
-0.895,-0.665,358.3333333333333
-0.895,-0.655,361.1111111111111
-0.895,-0.665,363.8888888888889
-0.905,-0.665,366.6666666666667
-0.91,-0.68,369.44444444444446
-0.915,-0.685,372.22222222222223
-0.91,-0.68,375.0
-0.915,-0.68,377.77777777777777
-0.92,-0.66,380.55555555555554
-0.9,-0.655,383.3333333333333
-0.9,-0.65,386.1111111111111
-0.895,-0.65,388.8888888888889
-0.885,-0.665,391.6666666666667
-0.895,-0.66,394.44444444444446
-0.9,-0.675,397.22222222222223
-0.9,-0.68,400.0
-0.905,-0.68,402.77777777777777
-0.915,-0.69,405.55555555555554
-0.92,-0.68,408.3333333333333
-0.92,-0.67,411.1111111111111
-0.91,-0.67,413.8888888888889
-0.905,-0.66,416.6666666666667
-0.9,-0.655,419.44444444444446
-0.895,-0.655,422.22222222222223
-0.885,-0.645,425.0
-0.89,-0.66,427.77777777777777
-0.885,-0.67,430.55555555555554
-0.885,-0.685,433.3333333333333
-0.89,-0.68,436.1111111111111
-0.9,-0.68,438.8888888888889
-0.89,-0.675,441.6666666666667
-0.895,-0.69,444.44444444444446
-0.885,-0.675,447.22222222222223
-0.87,-0.67,450.0
-0.88,-0.67,452.77777777777777
-0.865,-0.65,455.55555555555554
-0.87,-0.67,458.3333333333333
-0.87,-0.66,461.1111111111111
-0.87,-0.68,463.8888888888889
-0.865,-0.685,466.6666666666667
-0.86,-0.685,469.44444444444446
-0.85,-0.685,472.22222222222223
-0.85,-0.675,475.0
-0.835,-0.68,477.77777777777777
-0.82,-0.665,480.55555555555554
-0.82,-0.66,483.3333333333333
-0.81,-0.645,486.1111111111111
-0.81,-0.64,488.8888888888889
-0.815,-0.65,491.6666666666667
-0.83,-0.64,494.44444444444446
-0.835,-0.665,497.22222222222223
-0.85,-0.665,500.0
-0.865,-0.665,502.77777777777777
-0.865,-0.655,505.55555555555554
-0.87,-0.655,508.3333333333333
-0.87,-0.65,511.1111111111111
-0.865,-0.64,513.8888888888889
-0.87,-0.635,516.6666666666666
-0.86,-0.64,519.4444444444445
-0.845,-0.62,522.2222222222222
-0.83,-0.605,525.0
-0.82,-0.605,527.7777777777778
-0.815,-0.615,530.5555555555555
-0.815,-0.605,533.3333333333334
-0.82,-0.615,536.1111111111111
-0.825,-0.62,538.8888888888889
-0.84,-0.63,541.6666666666666
-0.845,-0.64,544.4444444444445
-0.855,-0.64,547.2222222222222
-0.875,-0.63,550.0
-0.88,-0.625,552.7777777777778
-0.88,-0.635,555.5555555555555
-0.895,-0.645,558.3333333333334
-0.91,-0.67,561.1111111111111
-0.92,-0.675,563.8888888888889
-0.93,-0.685,566.6666666666666
-0.935,-0.69,569.4444444444445
-0.925,-0.69,572.2222222222222
-0.925,-0.695,575.0
-0.93,-0.68,577.7777777777778
-0.92,-0.665,580.5555555555555
-0.91,-0.67,583.3333333333334
-0.91,-0.665,586.1111111111111
-0.905,-0.68,588.8888888888889
-0.91,-0.69,591.6666666666666
-0.935,-0.735,594.4444444444445
-0.935,-0.75,597.2222222222222
-0.935,-0.745,600.0
-0.915,-0.69,602.7777777777778
-0.85,-0.615,605.5555555555555
-0.75,-0.48,608.3333333333334
-0.655,-0.36,611.1111111111111
-0.57,-0.27,613.8888888888889
-0.5,-0.245,616.6666666666666
-0.465,-0.26,619.4444444444445
-0.445,-0.345,622.2222222222222
-0.495,-0.515,625.0
-0.61,-0.78,627.7777777777778
-0.75,-1.065,630.5555555555555
-0.92,-1.33,633.3333333333334
-1.015,-1.495,636.1111111111111
-1.015,-1.535,638.8888888888889
-0.91,-1.455,641.6666666666666
-0.72,-1.3,644.4444444444445
-0.475,-1.105,647.2222222222222
-0.21,-0.92,650.0
0.035,-0.765,652.7777777777778
0.26,-0.635,655.5555555555555
0.49,-0.545,658.3333333333334
0.69,-0.49,661.1111111111111
0.88,-0.475,663.8888888888889
1.025,-0.465,666.6666666666666
1.13,-0.46,669.4444444444445
1.19,-0.475,672.2222222222222
1.195,-0.515,675.0
1.165,-0.58,677.7777777777778
1.085,-0.635,680.5555555555555
0.97,-0.67,683.3333333333334
0.815,-0.69,686.1111111111111
0.635,-0.685,688.8888888888889
0.425,-0.67,691.6666666666666
0.215,-0.66,694.4444444444445
0.0,-0.64,697.2222222222222
-0.215,-0.61,700.0
-0.43,-0.625,702.7777777777778
-0.645,-0.645,705.5555555555555
-0.835,-0.69,708.3333333333334
-0.98,-0.73,711.1111111111111
-1.07,-0.75,713.8888888888889
-1.125,-0.76,716.6666666666666
-1.14,-0.75,719.4444444444445
-1.13,-0.71,722.2222222222222
-1.12,-0.69,725.0
-1.095,-0.665,727.7777777777778
-1.08,-0.65,730.5555555555555
-1.085,-0.64,733.3333333333334
-1.07,-0.625,736.1111111111111
-1.07,-0.615,738.8888888888889
-1.06,-0.585,741.6666666666666
-1.045,-0.575,744.4444444444445
-1.035,-0.555,747.2222222222222
-1.02,-0.54,750.0
-1.015,-0.54,752.7777777777778
-1.0,-0.535,755.5555555555555
-1.0,-0.545,758.3333333333334
-1.005,-0.555,761.1111111111111
-1.02,-0.555,763.8888888888889
-1.025,-0.565,766.6666666666666
-1.04,-0.565,769.4444444444445
-1.04,-0.545,772.2222222222222
-1.05,-0.54,775.0
-1.045,-0.53,777.7777777777778
-1.04,-0.515,780.5555555555555
-1.03,-0.51,783.3333333333334
-1.025,-0.52,786.1111111111111
-1.015,-0.51,788.8888888888889
-1.01,-0.525,791.6666666666666
-1.025,-0.52,794.4444444444445
-1.025,-0.52,797.2222222222222
-1.035,-0.52,800.0
-1.045,-0.525,802.7777777777778
-1.04,-0.525,805.5555555555555
-1.045,-0.535,808.3333333333334
-1.04,-0.52,811.1111111111111
-1.04,-0.515,813.8888888888889
-1.025,-0.51,816.6666666666666
-1.02,-0.505,819.4444444444445
-1.015,-0.495,822.2222222222222
-1.02,-0.51,825.0
-1.02,-0.5,827.7777777777778
-1.035,-0.51,830.5555555555555
-1.045,-0.52,833.3333333333334
-1.05,-0.54,836.1111111111111
-1.06,-0.545,838.8888888888889
-1.06,-0.535,841.6666666666666
-1.06,-0.54,844.4444444444445
-1.055,-0.52,847.2222222222222
-1.06,-0.515,850.0
-1.045,-0.515,852.7777777777778
-1.05,-0.505,855.5555555555555
-1.055,-0.515,858.3333333333334
-1.055,-0.525,861.1111111111111
-1.07,-0.535,863.8888888888889
-1.075,-0.545,866.6666666666666
-1.075,-0.56,869.4444444444445
-1.08,-0.55,872.2222222222222
-1.09,-0.555,875.0
-1.09,-0.545,877.7777777777778
-1.085,-0.54,880.5555555555555
-1.09,-0.54,883.3333333333334
-1.08,-0.53,886.1111111111111
-1.085,-0.535,888.8888888888889
-1.08,-0.545,891.6666666666666
-1.085,-0.565,894.4444444444445
-1.09,-0.575,897.2222222222222
-1.11,-0.58,900.0
-1.125,-0.595,902.7777777777778
-1.125,-0.595,905.5555555555555
-1.135,-0.61,908.3333333333334
-1.15,-0.615,911.1111111111111
-1.15,-0.61,913.8888888888889
-1.14,-0.605,916.6666666666666
-1.14,-0.605,919.4444444444445
-1.135,-0.605,922.2222222222222
-1.155,-0.625,925.0
-1.17,-0.65,927.7777777777778
-1.175,-0.66,930.5555555555555
-1.195,-0.695,933.3333333333334
-1.19,-0.7,936.1111111111111
-1.185,-0.725,938.8888888888889
-1.2,-0.72,941.6666666666666
-1.2,-0.705,944.4444444444445
-1.195,-0.715,947.2222222222222
-1.2,-0.71,950.0
-1.21,-0.705,952.7777777777778
-1.195,-0.725,955.5555555555555
-1.205,-0.73,958.3333333333334
-1.195,-0.745,961.1111111111111
-1.205,-0.765,963.8888888888889
-1.21,-0.78,966.6666666666666
-1.21,-0.81,969.4444444444445
-1.22,-0.81,972.2222222222222
-1.21,-0.815,975.0
-1.21,-0.815,977.7777777777778
-1.205,-0.805,980.5555555555555
-1.18,-0.82,983.3333333333334
-1.18,-0.82,986.1111111111111
-1.165,-0.825,988.8888888888889
-1.16,-0.83,991.6666666666666
-1.16,-0.84,994.4444444444445
-1.155,-0.845,997.2222222222222
-1.145,-0.855,1000.0
-1.14,-0.855,1002.7777777777778
-1.12,-0.855,1005.5555555555555
-1.115,-0.85,1008.3333333333334
-1.105,-0.855,1011.1111111111111
-1.09,-0.835,1013.8888888888889
-1.07,-0.835,1016.6666666666666
-1.05,-0.825,1019.4444444444445
-1.02,-0.825,1022.2222222222222
-1.005,-0.845,1025.0
-0.995,-0.835,1027.7777777777778
-0.97,-0.83,1030.5555555555557
-0.965,-0.825,1033.3333333333333
-0.95,-0.84,1036.111111111111
-0.935,-0.825,1038.888888888889
-0.935,-0.83,1041.6666666666667
-0.92,-0.815,1044.4444444444443
-0.9,-0.805,1047.2222222222222
-0.885,-0.805,1050.0
-0.85,-0.78,1052.7777777777778
-0.845,-0.775,1055.5555555555557
-0.84,-0.775,1058.3333333333333
-0.845,-0.79,1061.111111111111
-0.825,-0.795,1063.888888888889
-0.835,-0.785,1066.6666666666667
-0.835,-0.785,1069.4444444444443
-0.83,-0.775,1072.2222222222222
-0.83,-0.775,1075.0
-0.82,-0.785,1077.7777777777778
-0.82,-0.745,1080.5555555555557
-0.82,-0.75,1083.3333333333333
-0.81,-0.735,1086.111111111111
-0.81,-0.735,1088.888888888889
-0.815,-0.74,1091.6666666666667
-0.825,-0.75,1094.4444444444443
-0.845,-0.745,1097.2222222222222
-0.86,-0.765,1100.0
-0.875,-0.76,1102.7777777777778
-0.885,-0.76,1105.5555555555557
-0.9,-0.755,1108.3333333333333
-0.905,-0.75,1111.111111111111
-0.905,-0.735,1113.888888888889
-0.905,-0.735,1116.6666666666667
-0.915,-0.715,1119.4444444444443
-0.9,-0.715,1122.2222222222222
-0.92,-0.73,1125.0
-0.925,-0.74,1127.7777777777778
-0.94,-0.755,1130.5555555555557
-0.94,-0.755,1133.3333333333333
-0.965,-0.76,1136.111111111111
-0.96,-0.76,1138.888888888889
-0.97,-0.755,1141.6666666666667
-0.97,-0.76,1144.4444444444443
-0.97,-0.745,1147.2222222222222
-0.96,-0.745,1150.0
-0.96,-0.72,1152.7777777777778
-0.96,-0.72,1155.5555555555557
-0.97,-0.725,1158.3333333333333
-0.97,-0.73,1161.111111111111
-0.96,-0.735,1163.888888888889
-0.975,-0.745,1166.6666666666667
-0.98,-0.76,1169.4444444444443
-0.975,-0.765,1172.2222222222222
-0.99,-0.755,1175.0
-0.98,-0.75,1177.7777777777778
-0.97,-0.71,1180.5555555555557
-0.965,-0.69,1183.3333333333333
-0.955,-0.685,1186.111111111111
-0.95,-0.69,1188.888888888889
-0.95,-0.695,1191.6666666666667
-0.955,-0.7,1194.4444444444443
-0.955,-0.7,1197.2222222222222
-0.945,-0.715,1200.0
-0.94,-0.72,1202.7777777777778
-0.955,-0.725,1205.5555555555557
-0.95,-0.7,1208.3333333333333
-0.935,-0.7,1211.111111111111
-0.935,-0.69,1213.888888888889
-0.93,-0.68,1216.6666666666667
-0.925,-0.69,1219.4444444444443
-0.915,-0.69,1222.2222222222222
-0.915,-0.685,1225.0
-0.92,-0.695,1227.7777777777778
-0.91,-0.69,1230.5555555555557
-0.925,-0.695,1233.3333333333333
-0.925,-0.695,1236.111111111111
-0.93,-0.685,1238.888888888889
-0.93,-0.68,1241.6666666666667
-0.93,-0.685,1244.4444444444443
-0.92,-0.675,1247.2222222222222
-0.925,-0.67,1250.0
-0.905,-0.665,1252.7777777777778
-0.91,-0.66,1255.5555555555557
-0.905,-0.665,1258.3333333333333
-0.9,-0.66,1261.111111111111
-0.895,-0.665,1263.888888888889
-0.91,-0.675,1266.6666666666667
-0.91,-0.675,1269.4444444444443
-0.905,-0.68,1272.2222222222222
-0.91,-0.675,1275.0
-0.91,-0.67,1277.7777777777778
-0.905,-0.665,1280.5555555555557
-0.895,-0.66,1283.3333333333333
-0.89,-0.645,1286.111111111111
-0.875,-0.64,1288.888888888889
-0.885,-0.655,1291.6666666666667
-0.885,-0.65,1294.4444444444443
-0.895,-0.65,1297.2222222222222
-0.89,-0.665,1300.0
-0.905,-0.675,1302.7777777777778
-0.9,-0.67,1305.5555555555557
-0.905,-0.67,1308.3333333333333
-0.895,-0.67,1311.111111111111
-0.895,-0.665,1313.888888888889
-0.89,-0.65,1316.6666666666667
-0.89,-0.64,1319.4444444444443
-0.875,-0.635,1322.2222222222222
-0.87,-0.64,1325.0
-0.88,-0.645,1327.7777777777778
-0.88,-0.65,1330.5555555555557
-0.88,-0.665,1333.3333333333333
-0.895,-0.665,1336.111111111111
-0.9,-0.675,1338.888888888889
-0.9,-0.67,1341.6666666666667
-0.9,-0.665,1344.4444444444443
-0.895,-0.66,1347.2222222222222
-0.885,-0.65,1350.0
-0.875,-0.65,1352.7777777777778
-0.86,-0.655,1355.5555555555557
-0.86,-0.645,1358.3333333333333
-0.86,-0.645,1361.111111111111
-0.865,-0.665,1363.888888888889
-0.87,-0.66,1366.6666666666667
-0.865,-0.65,1369.4444444444443
-0.88,-0.65,1372.2222222222222
-0.87,-0.655,1375.0
-0.875,-0.65,1377.7777777777778
-0.865,-0.64,1380.5555555555557
-0.86,-0.645,1383.3333333333333
-0.86,-0.63,1386.111111111111
-0.855,-0.64,1388.888888888889
-0.855,-0.635,1391.6666666666667
-0.855,-0.645,1394.4444444444443
-0.865,-0.67,1397.2222222222222
-0.865,-0.67,1400.0
-0.865,-0.675,1402.7777777777778
-0.88,-0.675,1405.5555555555557
-0.87,-0.675,1408.3333333333333
-0.865,-0.655,1411.111111111111
-0.87,-0.655,1413.888888888889
-0.86,-0.65,1416.6666666666667
-0.865,-0.64,1419.4444444444443
-0.845,-0.645,1422.2222222222222
-0.845,-0.665,1425.0
-0.845,-0.655,1427.7777777777778
-0.845,-0.665,1430.5555555555557
-0.86,-0.67,1433.3333333333333
-0.86,-0.67,1436.111111111111
-0.865,-0.665,1438.888888888889
-0.875,-0.675,1441.6666666666667
-0.875,-0.66,1444.4444444444443
-0.865,-0.655,1447.2222222222222
-0.865,-0.645,1450.0
-0.86,-0.64,1452.7777777777778
-0.86,-0.635,1455.5555555555557
-0.845,-0.65,1458.3333333333333
-0.84,-0.645,1461.111111111111
-0.85,-0.65,1463.888888888889
-0.86,-0.665,1466.6666666666667
-0.86,-0.675,1469.4444444444443
-0.875,-0.67,1472.2222222222222
-0.86,-0.675,1475.0
-0.86,-0.665,1477.7777777777778
-0.86,-0.65,1480.5555555555557
-0.86,-0.655,1483.3333333333333
-0.845,-0.655,1486.111111111111
-0.84,-0.655,1488.888888888889
-0.84,-0.645,1491.6666666666667
-0.85,-0.67,1494.4444444444443
-0.845,-0.66,1497.2222222222222
-0.865,-0.665,1500.0
-0.86,-0.67,1502.7777777777778
-0.87,-0.675,1505.5555555555557
-0.875,-0.68,1508.3333333333333
-0.88,-0.685,1511.111111111111
-0.885,-0.67,1513.888888888889
-0.86,-0.665,1516.6666666666667
-0.855,-0.66,1519.4444444444443
-0.845,-0.66,1522.2222222222222
-0.835,-0.655,1525.0
-0.845,-0.66,1527.7777777777778
-0.855,-0.66,1530.5555555555557
-0.86,-0.66,1533.3333333333333
-0.865,-0.67,1536.111111111111
-0.865,-0.68,1538.888888888889
-0.87,-0.67,1541.6666666666667
-0.86,-0.675,1544.4444444444443
-0.865,-0.665,1547.2222222222222
-0.845,-0.665,1550.0
-0.855,-0.655,1552.7777777777778
-0.835,-0.645,1555.5555555555557
-0.85,-0.655,1558.3333333333333
-0.86,-0.66,1561.111111111111
-0.84,-0.655,1563.888888888889
-0.855,-0.665,1566.6666666666667
-0.855,-0.675,1569.4444444444443
-0.86,-0.675,1572.2222222222222
-0.855,-0.675,1575.0
-0.86,-0.68,1577.7777777777778
-0.855,-0.68,1580.5555555555557
-0.845,-0.67,1583.3333333333333
-0.84,-0.665,1586.111111111111
-0.84,-0.65,1588.888888888889
-0.835,-0.65,1591.6666666666667
-0.845,-0.65,1594.4444444444443
-0.845,-0.675,1597.2222222222222
-0.84,-0.68,1600.0
-0.86,-0.69,1602.7777777777778
-0.855,-0.7,1605.5555555555557
-0.855,-0.7,1608.3333333333333
-0.86,-0.68,1611.111111111111
-0.86,-0.69,1613.888888888889
-0.855,-0.68,1616.6666666666667
-0.86,-0.66,1619.4444444444443
-0.85,-0.66,1622.2222222222222
-0.845,-0.665,1625.0
-0.84,-0.665,1627.7777777777778
-0.86,-0.685,1630.5555555555557
-0.86,-0.685,1633.3333333333333
-0.87,-0.69,1636.111111111111
-0.88,-0.68,1638.888888888889
-0.855,-0.695,1641.6666666666667
-0.865,-0.685,1644.4444444444443
-0.85,-0.685,1647.2222222222222
-0.85,-0.685,1650.0
-0.845,-0.675,1652.7777777777778
-0.84,-0.665,1655.5555555555557
-0.835,-0.665,1658.3333333333333
-0.835,-0.675,1661.111111111111
-0.835,-0.68,1663.888888888889
-0.855,-0.69,1666.6666666666667
-0.85,-0.69,1669.4444444444443
-0.855,-0.695,1672.2222222222222
-0.855,-0.68,1675.0
-0.845,-0.68,1677.7777777777778
-0.85,-0.665,1680.5555555555557
-0.835,-0.655,1683.3333333333333
-0.84,-0.655,1686.111111111111
-0.83,-0.665,1688.888888888889
-0.835,-0.665,1691.6666666666667
-0.825,-0.67,1694.4444444444443
-0.82,-0.685,1697.2222222222222
-0.825,-0.685,1700.0
-0.835,-0.695,1702.7777777777778
-0.835,-0.7,1705.5555555555557
-0.83,-0.695,1708.3333333333333
-0.825,-0.69,1711.111111111111
-0.82,-0.675,1713.888888888889
-0.83,-0.67,1716.6666666666667
-0.825,-0.665,1719.4444444444443
-0.82,-0.65,1722.2222222222222
-0.805,-0.66,1725.0
-0.795,-0.645,1727.7777777777778
-0.795,-0.66,1730.5555555555557
-0.79,-0.67,1733.3333333333333
-0.79,-0.675,1736.111111111111
-0.795,-0.67,1738.888888888889
-0.79,-0.67,1741.6666666666667
-0.78,-0.67,1744.4444444444443
-0.78,-0.66,1747.2222222222222
-0.785,-0.655,1750.0
-0.79,-0.655,1752.7777777777778
-0.79,-0.65,1755.5555555555557
-0.8,-0.655,1758.3333333333333
-0.805,-0.65,1761.111111111111
-0.82,-0.645,1763.888888888889
-0.82,-0.665,1766.6666666666667
-0.815,-0.67,1769.4444444444443
-0.82,-0.67,1772.2222222222222
-0.815,-0.665,1775.0
-0.795,-0.655,1777.7777777777778
-0.775,-0.625,1780.5555555555557
-0.77,-0.615,1783.3333333333333
-0.755,-0.625,1786.111111111111
-0.75,-0.615,1788.888888888889
-0.755,-0.62,1791.6666666666667
-0.775,-0.635,1794.4444444444443
-0.785,-0.64,1797.2222222222222
-0.785,-0.665,1800.0
-0.815,-0.68,1802.7777777777778
-0.845,-0.7,1805.5555555555557
-0.855,-0.7,1808.3333333333333
-0.87,-0.705,1811.111111111111
-0.865,-0.71,1813.888888888889
-0.86,-0.7,1816.6666666666667
-0.865,-0.68,1819.4444444444443
-0.85,-0.68,1822.2222222222222
-0.845,-0.685,1825.0
-0.85,-0.69,1827.7777777777778
-0.845,-0.71,1830.5555555555557
-0.86,-0.715,1833.3333333333333
-0.86,-0.73,1836.111111111111
-0.865,-0.73,1838.888888888889
-0.865,-0.73,1841.6666666666667
-0.865,-0.745,1844.4444444444443
-0.875,-0.77,1847.2222222222222
-0.875,-0.77,1850.0
-0.875,-0.755,1852.7777777777778
-0.84,-0.72,1855.5555555555557
-0.8,-0.655,1858.3333333333333
-0.725,-0.54,1861.111111111111
-0.64,-0.43,1863.888888888889
-0.565,-0.35,1866.6666666666667
-0.495,-0.32,1869.4444444444443
-0.46,-0.36,1872.2222222222222
-0.475,-0.465,1875.0
-0.51,-0.65,1877.7777777777778
-0.61,-0.9,1880.5555555555557
-0.74,-1.19,1883.3333333333333
-0.85,-1.385,1886.111111111111
-0.905,-1.495,1888.888888888889
-0.845,-1.465,1891.6666666666667
-0.69,-1.3,1894.4444444444443
-0.455,-1.1,1897.2222222222222
-0.205,-0.875,1900.0
0.075,-0.695,1902.7777777777778
0.345,-0.53,1905.5555555555557
0.595,-0.425,1908.3333333333333
0.84,-0.345,1911.111111111111
1.055,-0.31,1913.888888888889
1.23,-0.3,1916.6666666666667
1.345,-0.33,1919.4444444444443
1.4,-0.39,1922.2222222222222
1.39,-0.485,1925.0
1.295,-0.595,1927.7777777777778
1.18,-0.66,1930.5555555555557
1.015,-0.7,1933.3333333333333
0.805,-0.71,1936.111111111111
0.565,-0.715,1938.888888888889
0.335,-0.69,1941.6666666666667
0.11,-0.66,1944.4444444444443
-0.125,-0.62,1947.2222222222222
-0.345,-0.61,1950.0
-0.58,-0.63,1952.7777777777778
-0.775,-0.67,1955.5555555555557
-0.93,-0.735,1958.3333333333333
-1.045,-0.78,1961.111111111111
-1.11,-0.815,1963.888888888889
-1.145,-0.81,1966.6666666666667
-1.135,-0.78,1969.4444444444443
-1.12,-0.74,1972.2222222222222
-1.1,-0.7,1975.0
-1.075,-0.66,1977.7777777777778
-1.05,-0.625,1980.5555555555557
-1.02,-0.59,1983.3333333333333
-1.02,-0.58,1986.111111111111
-0.99,-0.56,1988.888888888889
-0.965,-0.55,1991.6666666666667
-0.97,-0.555,1994.4444444444443
-0.98,-0.56,1997.2222222222222
-0.98,-0.57,2000.0
-0.995,-0.58,2002.7777777777778
-1.01,-0.585,2005.5555555555557
-1.015,-0.57,2008.3333333333333
-1.005,-0.555,2011.111111111111
-0.995,-0.54,2013.888888888889
-0.98,-0.535,2016.6666666666667
-0.98,-0.53,2019.4444444444443
-0.975,-0.53,2022.2222222222222
-0.98,-0.53,2025.0
-0.98,-0.545,2027.7777777777778
-0.99,-0.545,2030.5555555555557
-0.995,-0.55,2033.3333333333333
-1.005,-0.545,2036.111111111111
-1.005,-0.545,2038.888888888889
-1.015,-0.54,2041.6666666666667
-1.01,-0.555,2044.4444444444443
-1.0,-0.525,2047.2222222222222
-0.995,-0.53,2050.0
-0.985,-0.515,2052.777777777778
-0.98,-0.51,2055.5555555555557
-0.98,-0.515,2058.3333333333335
-0.98,-0.515,2061.1111111111113
-0.995,-0.53,2063.8888888888887
-1.005,-0.535,2066.6666666666665
-1.01,-0.545,2069.4444444444443
-1.035,-0.55,2072.222222222222
-1.03,-0.55,2075.0
-1.03,-0.55,2077.777777777778
-1.025,-0.545,2080.5555555555557
-1.015,-0.525,2083.3333333333335
-1.005,-0.525,2086.1111111111113
-1.0,-0.52,2088.8888888888887
-1.0,-0.51,2091.6666666666665
-1.005,-0.535,2094.4444444444443
-1.025,-0.545,2097.222222222222
-1.045,-0.55,2100.0
-1.055,-0.56,2102.777777777778
-1.055,-0.57,2105.5555555555557
-1.065,-0.57,2108.3333333333335
-1.075,-0.565,2111.1111111111113
-1.08,-0.565,2113.8888888888887
-1.065,-0.56,2116.6666666666665
-1.075,-0.56,2119.4444444444443
-1.06,-0.565,2122.222222222222
-1.08,-0.575,2125.0
-1.075,-0.595,2127.777777777778
-1.08,-0.59,2130.5555555555557
-1.09,-0.6,2133.3333333333335
-1.105,-0.615,2136.1111111111113
-1.11,-0.62,2138.8888888888887
-1.12,-0.625,2141.6666666666665
-1.13,-0.635,2144.4444444444443
-1.13,-0.625,2147.222222222222
-1.12,-0.645,2150.0
-1.12,-0.64,2152.777777777778
-1.11,-0.655,2155.5555555555557
-1.12,-0.66,2158.3333333333335
-1.12,-0.68,2161.1111111111113
-1.135,-0.68,2163.8888888888887
-1.135,-0.7,2166.6666666666665
-1.16,-0.7,2169.4444444444443
-1.16,-0.715,2172.222222222222
-1.165,-0.73,2175.0
-1.17,-0.73,2177.777777777778
-1.165,-0.725,2180.5555555555557
-1.16,-0.75,2183.3333333333335
-1.15,-0.75,2186.1111111111113
-1.135,-0.755,2188.8888888888887
-1.145,-0.76,2191.6666666666665
-1.145,-0.78,2194.4444444444443
-1.14,-0.775,2197.222222222222
-1.145,-0.785,2200.0
-1.145,-0.795,2202.777777777778
-1.14,-0.805,2205.5555555555557
-1.14,-0.795,2208.3333333333335
-1.11,-0.795,2211.1111111111113
-1.1,-0.805,2213.8888888888887
-1.07,-0.8,2216.6666666666665
-1.06,-0.79,2219.4444444444443
-1.035,-0.78,2222.222222222222
-1.015,-0.79,2225.0
-1.01,-0.795,2227.777777777778
-1.005,-0.8,2230.5555555555557
-0.99,-0.8,2233.3333333333335
-0.985,-0.81,2236.1111111111113
-0.97,-0.815,2238.8888888888887
-0.955,-0.81,2241.6666666666665
-0.94,-0.8,2244.4444444444443
-0.925,-0.78,2247.222222222222
-0.89,-0.77,2250.0
-0.875,-0.75,2252.777777777778
-0.86,-0.745,2255.5555555555557
-0.845,-0.75,2258.3333333333335
-0.825,-0.76,2261.1111111111113
-0.82,-0.76,2263.8888888888887
-0.815,-0.775,2266.6666666666665
-0.8,-0.775,2269.4444444444443
-0.81,-0.77,2272.222222222222
-0.805,-0.765,2275.0
-0.8,-0.755,2277.777777777778
-0.795,-0.74,2280.5555555555557
-0.77,-0.74,2283.3333333333335
-0.775,-0.74,2286.1111111111113
-0.765,-0.74,2288.8888888888887
-0.77,-0.755,2291.6666666666665
-0.77,-0.745,2294.4444444444443
-0.79,-0.76,2297.222222222222
-0.795,-0.76,2300.0
-0.815,-0.76,2302.777777777778
-0.83,-0.775,2305.5555555555557
-0.83,-0.77,2308.3333333333335
-0.85,-0.76,2311.1111111111113
-0.87,-0.765,2313.8888888888887
-0.875,-0.76,2316.6666666666665
-0.87,-0.76,2319.4444444444443
-0.87,-0.765,2322.222222222222
-0.885,-0.78,2325.0
-0.9,-0.775,2327.777777777778
-0.91,-0.8,2330.5555555555557
-0.93,-0.815,2333.3333333333335
-0.93,-0.815,2336.1111111111113
-0.97,-0.805,2338.8888888888887
-0.985,-0.82,2341.6666666666665
-0.96,-0.8,2344.4444444444443
-0.975,-0.8,2347.222222222222
-0.97,-0.8,2350.0
-0.965,-0.785,2352.777777777778
-0.97,-0.79,2355.5555555555557
-0.965,-0.805,2358.3333333333335
-0.975,-0.8,2361.1111111111113
-0.975,-0.8,2363.8888888888887
-0.995,-0.805,2366.6666666666665
-1.0,-0.81,2369.4444444444443
-1.0,-0.805,2372.222222222222
-1.005,-0.81,2375.0
-1.005,-0.785,2377.777777777778
-1.0,-0.785,2380.5555555555557
-0.995,-0.78,2383.3333333333335
-0.975,-0.78,2386.1111111111113
-0.98,-0.77,2388.8888888888887
-0.975,-0.76,2391.6666666666665
-0.98,-0.765,2394.4444444444443
-0.97,-0.77,2397.222222222222
-0.985,-0.775,2400.0
-0.985,-0.775,2402.777777777778
-0.98,-0.775,2405.5555555555557
-0.98,-0.775,2408.3333333333335
-0.97,-0.76,2411.1111111111113
-0.955,-0.755,2413.8888888888887
-0.945,-0.745,2416.6666666666665
-0.93,-0.74,2419.4444444444443
-0.92,-0.735,2422.222222222222
-0.915,-0.73,2425.0
-0.925,-0.735,2427.777777777778
-0.925,-0.74,2430.5555555555557
-0.93,-0.73,2433.3333333333335
-0.92,-0.755,2436.1111111111113
-0.935,-0.745,2438.8888888888887
-0.94,-0.755,2441.6666666666665
-0.93,-0.745,2444.4444444444443
-0.925,-0.745,2447.222222222222
-0.91,-0.735,2450.0
-0.905,-0.735,2452.777777777778
-0.9,-0.72,2455.5555555555557
-0.9,-0.715,2458.3333333333335
-0.905,-0.73,2461.1111111111113
-0.905,-0.74,2463.8888888888887
-0.91,-0.735,2466.6666666666665
-0.905,-0.74,2469.4444444444443
-0.91,-0.74,2472.222222222222
-0.915,-0.75,2475.0
-0.92,-0.74,2477.777777777778
-0.9,-0.73,2480.5555555555557
-0.885,-0.72,2483.3333333333335
-0.88,-0.695,2486.1111111111113
-0.87,-0.69,2488.8888888888887
-0.875,-0.69,2491.6666666666665
-0.87,-0.69,2494.4444444444443
-0.88,-0.7,2497.222222222222
-0.89,-0.725,2500.0
-0.9,-0.73,2502.777777777778
-0.91,-0.74,2505.5555555555557
-0.9,-0.735,2508.3333333333335
-0.895,-0.735,2511.1111111111113
-0.88,-0.725,2513.8888888888887
-0.88,-0.72,2516.6666666666665
-0.875,-0.71,2519.4444444444443
-0.87,-0.7,2522.222222222222
-0.865,-0.705,2525.0
-0.87,-0.71,2527.777777777778
-0.87,-0.725,2530.5555555555557
-0.87,-0.715,2533.3333333333335
-0.88,-0.735,2536.1111111111113
-0.885,-0.735,2538.8888888888887
-0.88,-0.735,2541.6666666666665
-0.88,-0.73,2544.4444444444443
-0.88,-0.73,2547.222222222222
-0.87,-0.725,2550.0
-0.86,-0.71,2552.777777777778
-0.855,-0.71,2555.5555555555557
-0.855,-0.695,2558.3333333333335
-0.855,-0.715,2561.1111111111113
-0.85,-0.715,2563.8888888888887
-0.865,-0.725,2566.6666666666665
-0.87,-0.74,2569.4444444444443
-0.875,-0.735,2572.222222222222
-0.87,-0.735,2575.0
-0.865,-0.725,2577.777777777778
-0.865,-0.7,2580.5555555555557
-0.86,-0.7,2583.3333333333335
-0.855,-0.685,2586.1111111111113
-0.84,-0.69,2588.8888888888887
-0.84,-0.695,2591.6666666666665
-0.84,-0.7,2594.4444444444443
-0.845,-0.71,2597.222222222222
-0.85,-0.725,2600.0
-0.865,-0.705,2602.777777777778
-0.86,-0.72,2605.5555555555557
-0.87,-0.72,2608.3333333333335
-0.87,-0.715,2611.1111111111113
-0.855,-0.705,2613.8888888888887
-0.855,-0.69,2616.6666666666665
-0.86,-0.69,2619.4444444444443
-0.845,-0.695,2622.222222222222
-0.84,-0.685,2625.0
-0.845,-0.705,2627.777777777778
-0.835,-0.695,2630.5555555555557
-0.85,-0.7,2633.3333333333335
-0.855,-0.71,2636.1111111111113
-0.87,-0.715,2638.8888888888887
-0.875,-0.72,2641.6666666666665
-0.875,-0.71,2644.4444444444443
-0.86,-0.715,2647.222222222222
-0.865,-0.7,2650.0
-0.85,-0.705,2652.777777777778
-0.84,-0.685,2655.5555555555557
-0.84,-0.69,2658.3333333333335
-0.84,-0.695,2661.1111111111113
-0.85,-0.695,2663.8888888888887
-0.84,-0.71,2666.6666666666665
-0.86,-0.7,2669.4444444444443
-0.865,-0.715,2672.222222222222
-0.865,-0.705,2675.0
-0.865,-0.705,2677.777777777778
-0.85,-0.695,2680.5555555555557
-0.845,-0.685,2683.3333333333335
-0.84,-0.675,2686.1111111111113
-0.825,-0.68,2688.8888888888887
-0.82,-0.675,2691.6666666666665
-0.82,-0.695,2694.4444444444443
-0.825,-0.7,2697.222222222222
-0.84,-0.7,2700.0
-0.85,-0.705,2702.777777777778
-0.845,-0.71,2705.5555555555557
-0.855,-0.715,2708.3333333333335
-0.865,-0.705,2711.1111111111113
-0.865,-0.7,2713.8888888888887
-0.84,-0.69,2716.6666666666665
-0.84,-0.695,2719.4444444444443
-0.825,-0.675,2722.222222222222
-0.82,-0.68,2725.0
-0.825,-0.69,2727.777777777778
-0.83,-0.68,2730.5555555555557
-0.83,-0.695,2733.3333333333335
-0.835,-0.695,2736.1111111111113
-0.84,-0.7,2738.8888888888887
-0.845,-0.7,2741.6666666666665
-0.845,-0.705,2744.4444444444443
-0.85,-0.705,2747.222222222222
-0.835,-0.69,2750.0
-0.84,-0.695,2752.777777777778
-0.835,-0.665,2755.5555555555557
-0.835,-0.68,2758.3333333333335
-0.82,-0.685,2761.1111111111113
-0.825,-0.68,2763.8888888888887
-0.835,-0.695,2766.6666666666665
-0.835,-0.695,2769.4444444444443
-0.855,-0.7,2772.222222222222
-0.845,-0.695,2775.0
-0.845,-0.675,2777.777777777778
-0.84,-0.665,2780.5555555555557
-0.825,-0.68,2783.3333333333335
-0.82,-0.665,2786.1111111111113
-0.825,-0.66,2788.8888888888887
-0.815,-0.67,2791.6666666666665
-0.825,-0.68,2794.4444444444443
-0.825,-0.69,2797.222222222222
-0.835,-0.72,2800.0
-0.84,-0.715,2802.777777777778
-0.835,-0.71,2805.5555555555557
-0.835,-0.71,2808.3333333333335
-0.835,-0.695,2811.1111111111113
-0.84,-0.685,2813.8888888888887
-0.835,-0.675,2816.6666666666665
-0.83,-0.67,2819.4444444444443
-0.815,-0.665,2822.222222222222
-0.81,-0.685,2825.0
-0.805,-0.69,2827.777777777778
-0.815,-0.705,2830.5555555555557
-0.83,-0.72,2833.3333333333335
-0.84,-0.72,2836.1111111111113
-0.83,-0.715,2838.8888888888887
-0.83,-0.71,2841.6666666666665
-0.83,-0.69,2844.4444444444443
-0.82,-0.685,2847.222222222222
-0.82,-0.685,2850.0
-0.805,-0.67,2852.777777777778
-0.8,-0.685,2855.5555555555557
-0.81,-0.7,2858.3333333333335
-0.815,-0.7,2861.1111111111113
-0.81,-0.7,2863.8888888888887
-0.83,-0.71,2866.6666666666665
-0.825,-0.705,2869.4444444444443
-0.84,-0.71,2872.222222222222
-0.84,-0.7,2875.0
-0.835,-0.69,2877.777777777778
-0.825,-0.68,2880.5555555555557
-0.81,-0.665,2883.3333333333335
-0.795,-0.66,2886.1111111111113
-0.79,-0.66,2888.8888888888887
-0.785,-0.665,2891.6666666666665
-0.8,-0.68,2894.4444444444443
-0.805,-0.705,2897.222222222222
-0.815,-0.695,2900.0
-0.82,-0.7,2902.777777777778
-0.815,-0.7,2905.5555555555557
-0.815,-0.705,2908.3333333333335
-0.83,-0.7,2911.1111111111113
-0.81,-0.68,2913.8888888888887
-0.79,-0.665,2916.6666666666665
-0.755,-0.655,2919.4444444444443
-0.74,-0.67,2922.222222222222
-0.73,-0.675,2925.0
-0.73,-0.675,2927.777777777778
-0.735,-0.685,2930.5555555555557
-0.735,-0.695,2933.3333333333335
-0.75,-0.7,2936.1111111111113
-0.75,-0.68,2938.8888888888887
-0.75,-0.67,2941.6666666666665
-0.77,-0.67,2944.4444444444443
-0.78,-0.66,2947.222222222222
-0.78,-0.65,2950.0
-0.77,-0.65,2952.777777777778
-0.765,-0.65,2955.5555555555557
-0.77,-0.65,2958.3333333333335
-0.77,-0.665,2961.1111111111113
-0.765,-0.66,2963.8888888888887
-0.775,-0.66,2966.6666666666665
-0.775,-0.645,2969.4444444444443
-0.765,-0.635,2972.222222222222
-0.75,-0.63,2975.0
-0.75,-0.625,2977.777777777778
-0.735,-0.625,2980.5555555555557
-0.735,-0.63,2983.3333333333335
-0.735,-0.635,2986.1111111111113
-0.75,-0.645,2988.8888888888887
-0.765,-0.655,2991.6666666666665
-0.775,-0.67,2994.4444444444443
-0.8,-0.69,2997.222222222222
-0.825,-0.695,3000.0
-0.835,-0.71,3002.777777777778
-0.845,-0.705,3005.5555555555557
-0.84,-0.705,3008.3333333333335
-0.835,-0.695,3011.1111111111113
-0.83,-0.675,3013.8888888888887
-0.825,-0.67,3016.6666666666665
-0.81,-0.665,3019.4444444444443
-0.805,-0.675,3022.222222222222
-0.82,-0.685,3025.0
-0.825,-0.705,3027.777777777778
-0.83,-0.72,3030.5555555555557
-0.845,-0.765,3033.3333333333335
-0.86,-0.78,3036.1111111111113
-0.87,-0.76,3038.8888888888887
-0.835,-0.69,3041.6666666666665
-0.755,-0.565,3044.4444444444443
-0.66,-0.43,3047.222222222222
-0.55,-0.31,3050.0
-0.46,-0.255,3052.777777777778
-0.39,-0.265,3055.5555555555557
-0.375,-0.36,3058.3333333333335
-0.41,-0.55,3061.1111111111113
-0.515,-0.85,3063.8888888888887
-0.685,-1.17,3066.6666666666665
-0.84,-1.425,3069.4444444444443
-0.925,-1.56,3072.222222222222
-0.915,-1.54,3075.0
-0.755,-1.395,3077.777777777778
-0.515,-1.17,3080.5555555555557
-0.22,-0.945,3083.3333333333335
0.06,-0.755,3086.1111111111113
0.335,-0.625,3088.8888888888887
0.57,-0.57,3091.6666666666665
0.78,-0.555,3094.4444444444443
0.955,-0.545,3097.222222222222
1.09,-0.55,3100.0
1.16,-0.575,3102.777777777778
1.185,-0.615,3105.5555555555557
1.16,-0.655,3108.3333333333335
1.105,-0.68,3111.1111111111113
1.02,-0.685,3113.8888888888887
0.91,-0.67,3116.6666666666665
0.74,-0.665,3119.4444444444443
0.555,-0.645,3122.222222222222
0.34,-0.63,3125.0
0.145,-0.62,3127.777777777778
-0.065,-0.605,3130.5555555555557
-0.295,-0.615,3133.3333333333335
-0.515,-0.64,3136.1111111111113
-0.695,-0.675,3138.8888888888887
-0.875,-0.7,3141.6666666666665
-0.965,-0.725,3144.4444444444443
-1.025,-0.73,3147.222222222222
-1.045,-0.715,3150.0
-1.035,-0.68,3152.777777777778
-1.025,-0.66,3155.5555555555557
-1.0,-0.625,3158.3333333333335
-0.975,-0.615,3161.1111111111113
-0.97,-0.6,3163.8888888888887
-0.965,-0.58,3166.6666666666665
-0.95,-0.575,3169.4444444444443
-0.935,-0.55,3172.222222222222
-0.925,-0.535,3175.0
-0.93,-0.525,3177.777777777778
-0.92,-0.505,3180.5555555555557
-0.915,-0.5,3183.3333333333335
-0.91,-0.5,3186.1111111111113
-0.92,-0.5,3188.8888888888887
-0.915,-0.505,3191.6666666666665
-0.92,-0.51,3194.4444444444443
-0.925,-0.515,3197.222222222222
-0.935,-0.51,3200.0
-0.94,-0.52,3202.777777777778
-0.94,-0.51,3205.5555555555557
-0.945,-0.5,3208.3333333333335
-0.94,-0.5,3211.1111111111113
-0.935,-0.48,3213.8888888888887
-0.935,-0.47,3216.6666666666665
-0.925,-0.475,3219.4444444444443
-0.915,-0.485,3222.222222222222
-0.925,-0.49,3225.0
-0.94,-0.49,3227.777777777778
-0.93,-0.505,3230.5555555555557
-0.93,-0.52,3233.3333333333335
-0.94,-0.545,3236.1111111111113
-0.94,-0.53,3238.8888888888887
-0.95,-0.53,3241.6666666666665
-0.945,-0.505,3244.4444444444443
-0.945,-0.49,3247.222222222222
-0.955,-0.47,3250.0
-0.94,-0.475,3252.777777777778
-0.945,-0.48,3255.5555555555557
-0.945,-0.49,3258.3333333333335
-0.94,-0.5,3261.1111111111113
-0.96,-0.525,3263.8888888888887
-0.955,-0.52,3266.6666666666665
-0.97,-0.525,3269.4444444444443
-0.975,-0.53,3272.222222222222
-0.985,-0.52,3275.0
-0.98,-0.5,3277.777777777778
-0.97,-0.515,3280.5555555555557
-0.975,-0.51,3283.3333333333335
-0.97,-0.5,3286.1111111111113
-0.965,-0.51,3288.8888888888887
-0.97,-0.515,3291.6666666666665
-0.995,-0.52,3294.4444444444443
-1.0,-0.525,3297.222222222222
-1.005,-0.545,3300.0
-1.01,-0.545,3302.777777777778
-1.015,-0.55,3305.5555555555557
-1.02,-0.54,3308.3333333333335
-1.02,-0.535,3311.1111111111113
-1.02,-0.53,3313.8888888888887
-1.015,-0.545,3316.6666666666665
-1.025,-0.54,3319.4444444444443
-1.025,-0.545,3322.222222222222
-1.035,-0.555,3325.0
-1.04,-0.57,3327.777777777778
-1.02,-0.585,3330.5555555555557
-1.05,-0.605,3333.3333333333335
-1.055,-0.605,3336.1111111111113
-1.06,-0.615,3338.8888888888887
-1.075,-0.63,3341.6666666666665
-1.075,-0.615,3344.4444444444443
-1.07,-0.62,3347.222222222222
-1.07,-0.625,3350.0
-1.06,-0.62,3352.777777777778
-1.065,-0.645,3355.5555555555557
-1.065,-0.655,3358.3333333333335
-1.075,-0.675,3361.1111111111113
-1.09,-0.685,3363.8888888888887
-1.105,-0.71,3366.6666666666665
-1.125,-0.73,3369.4444444444443
-1.12,-0.72,3372.222222222222
-1.125,-0.725,3375.0
-1.125,-0.735,3377.777777777778
-1.12,-0.72,3380.5555555555557
-1.115,-0.74,3383.3333333333335
-1.11,-0.735,3386.1111111111113
-1.11,-0.74,3388.8888888888887
-1.11,-0.765,3391.6666666666665
-1.125,-0.795,3394.4444444444443
-1.13,-0.805,3397.222222222222
-1.125,-0.825,3400.0
-1.115,-0.83,3402.777777777778
-1.115,-0.835,3405.5555555555557
-1.11,-0.835,3408.3333333333335
-1.09,-0.835,3411.1111111111113
-1.08,-0.83,3413.8888888888887
-1.055,-0.84,3416.6666666666665
-1.05,-0.83,3419.4444444444443
-1.035,-0.835,3422.222222222222
-1.03,-0.845,3425.0
-1.01,-0.85,3427.777777777778
-1.0,-0.845,3430.5555555555557
-0.985,-0.855,3433.3333333333335
-0.98,-0.85,3436.1111111111113
-0.965,-0.845,3438.8888888888887
-0.95,-0.85,3441.6666666666665
-0.935,-0.835,3444.4444444444443
-0.91,-0.83,3447.222222222222
-0.885,-0.815,3450.0
-0.865,-0.8,3452.777777777778
-0.845,-0.805,3455.5555555555557
-0.83,-0.815,3458.3333333333335
-0.815,-0.82,3461.1111111111113
-0.8,-0.815,3463.8888888888887
-0.8,-0.815,3466.6666666666665
-0.785,-0.815,3469.4444444444443
-0.785,-0.82,3472.222222222222
-0.785,-0.8,3475.0
-0.765,-0.79,3477.777777777778
-0.75,-0.78,3480.5555555555557
-0.735,-0.76,3483.3333333333335
-0.725,-0.74,3486.1111111111113
-0.72,-0.745,3488.8888888888887
-0.72,-0.75,3491.6666666666665
-0.72,-0.77,3494.4444444444443
-0.74,-0.755,3497.222222222222
-0.755,-0.765,3500.0
-0.75,-0.765,3502.777777777778
-0.75,-0.755,3505.5555555555557
-0.745,-0.735,3508.3333333333335
-0.75,-0.725,3511.1111111111113
-0.765,-0.735,3513.8888888888887
-0.755,-0.72,3516.6666666666665
-0.76,-0.72,3519.4444444444443
-0.765,-0.715,3522.222222222222
-0.775,-0.725,3525.0
-0.785,-0.735,3527.777777777778
-0.81,-0.74,3530.5555555555557
-0.82,-0.745,3533.3333333333335
-0.83,-0.735,3536.1111111111113
-0.835,-0.74,3538.8888888888887
-0.84,-0.74,3541.6666666666665
-0.855,-0.72,3544.4444444444443
-0.845,-0.735,3547.222222222222
-0.85,-0.73,3550.0
-0.85,-0.715,3552.777777777778
-0.845,-0.72,3555.5555555555557
-0.855,-0.715,3558.3333333333335
-0.85,-0.735,3561.1111111111113
-0.86,-0.74,3563.8888888888887
-0.875,-0.74,3566.6666666666665
-0.87,-0.745,3569.4444444444443
-0.875,-0.745,3572.222222222222
-0.875,-0.725,3575.0
-0.88,-0.71,3577.777777777778
-0.875,-0.71,3580.5555555555557
-0.86,-0.705,3583.3333333333335
-0.855,-0.715,3586.1111111111113
-0.85,-0.705,3588.8888888888887
-0.84,-0.71,3591.6666666666665
-0.845,-0.715,3594.4444444444443
-0.85,-0.715,3597.222222222222
-0.85,-0.725,3600.0
-0.855,-0.715,3602.777777777778
-0.85,-0.72,3605.5555555555557
-0.855,-0.695,3608.3333333333335
-0.845,-0.695,3611.1111111111113
-0.835,-0.695,3613.8888888888887
-0.83,-0.69,3616.6666666666665
-0.83,-0.675,3619.4444444444443
-0.81,-0.685,3622.222222222222
-0.805,-0.69,3625.0
-0.815,-0.695,3627.777777777778
-0.835,-0.7,3630.5555555555557
-0.845,-0.685,3633.3333333333335
-0.835,-0.69,3636.1111111111113
-0.84,-0.7,3638.8888888888887
-0.83,-0.7,3641.6666666666665
-0.81,-0.69,3644.4444444444443
-0.81,-0.68,3647.222222222222
-0.805,-0.68,3650.0
-0.78,-0.665,3652.777777777778
-0.79,-0.67,3655.5555555555557
-0.78,-0.67,3658.3333333333335
-0.795,-0.69,3661.1111111111113
-0.795,-0.685,3663.8888888888887
-0.785,-0.7,3666.6666666666665
-0.795,-0.7,3669.4444444444443
-0.81,-0.715,3672.222222222222
-0.8,-0.705,3675.0
-0.79,-0.69,3677.777777777778
-0.795,-0.68,3680.5555555555557
-0.795,-0.665,3683.3333333333335
-0.775,-0.66,3686.1111111111113
-0.765,-0.675,3688.8888888888887
-0.765,-0.68,3691.6666666666665
-0.76,-0.685,3694.4444444444443
-0.765,-0.7,3697.222222222222
-0.76,-0.705,3700.0
-0.77,-0.705,3702.777777777778
-0.78,-0.7,3705.5555555555557
-0.775,-0.71,3708.3333333333335
-0.76,-0.685,3711.1111111111113
-0.765,-0.685,3713.8888888888887
-0.755,-0.67,3716.6666666666665
-0.755,-0.67,3719.4444444444443
-0.74,-0.685,3722.222222222222
-0.745,-0.69,3725.0
-0.745,-0.7,3727.777777777778
-0.75,-0.695,3730.5555555555557
-0.76,-0.705,3733.3333333333335
-0.765,-0.71,3736.1111111111113
-0.77,-0.715,3738.8888888888887
-0.755,-0.715,3741.6666666666665
-0.755,-0.7,3744.4444444444443
-0.75,-0.7,3747.222222222222
-0.745,-0.685,3750.0
-0.74,-0.685,3752.777777777778
-0.745,-0.695,3755.5555555555557
-0.75,-0.7,3758.3333333333335
-0.745,-0.705,3761.1111111111113
-0.75,-0.715,3763.8888888888887
-0.74,-0.7,3766.6666666666665
-0.735,-0.715,3769.4444444444443
-0.745,-0.71,3772.222222222222
-0.75,-0.7,3775.0
-0.755,-0.695,3777.777777777778
-0.745,-0.695,3780.5555555555557
-0.73,-0.68,3783.3333333333335
-0.73,-0.685,3786.1111111111113
-0.72,-0.695,3788.8888888888887
-0.725,-0.69,3791.6666666666665
-0.715,-0.7,3794.4444444444443
-0.725,-0.705,3797.222222222222
-0.73,-0.705,3800.0
-0.735,-0.705,3802.777777777778
-0.73,-0.71,3805.5555555555557
-0.73,-0.695,3808.3333333333335
-0.735,-0.68,3811.1111111111113
-0.715,-0.675,3813.8888888888887
-0.705,-0.67,3816.6666666666665
-0.705,-0.675,3819.4444444444443
-0.695,-0.675,3822.222222222222
-0.695,-0.69,3825.0
-0.69,-0.7,3827.777777777778
-0.7,-0.7,3830.5555555555557
-0.705,-0.71,3833.3333333333335
-0.705,-0.72,3836.1111111111113
-0.71,-0.71,3838.8888888888887
-0.72,-0.71,3841.6666666666665
-0.72,-0.715,3844.4444444444443
-0.72,-0.71,3847.222222222222
-0.69,-0.71,3850.0
-0.68,-0.7,3852.777777777778
-0.685,-0.7,3855.5555555555557
-0.685,-0.7,3858.3333333333335
-0.685,-0.7,3861.1111111111113
-0.69,-0.71,3863.8888888888887
-0.69,-0.71,3866.6666666666665
-0.695,-0.72,3869.4444444444443
-0.705,-0.725,3872.222222222222
-0.7,-0.73,3875.0
-0.695,-0.72,3877.777777777778
-0.68,-0.705,3880.5555555555557
-0.67,-0.705,3883.3333333333335
-0.66,-0.705,3886.1111111111113
-0.67,-0.695,3888.8888888888887
-0.655,-0.715,3891.6666666666665
-0.655,-0.71,3894.4444444444443
-0.68,-0.705,3897.222222222222
-0.675,-0.725,3900.0
-0.685,-0.735,3902.777777777778
-0.68,-0.74,3905.5555555555557
-0.69,-0.74,3908.3333333333335
-0.68,-0.73,3911.1111111111113
-0.68,-0.715,3913.8888888888887
-0.67,-0.715,3916.6666666666665
-0.655,-0.7,3919.4444444444443
-0.66,-0.715,3922.222222222222
-0.67,-0.705,3925.0
-0.665,-0.72,3927.777777777778
-0.675,-0.73,3930.5555555555557
-0.68,-0.73,3933.3333333333335
-0.68,-0.725,3936.1111111111113
-0.67,-0.74,3938.8888888888887
-0.665,-0.73,3941.6666666666665
-0.665,-0.73,3944.4444444444443
-0.65,-0.72,3947.222222222222
-0.645,-0.725,3950.0
-0.63,-0.715,3952.777777777778
-0.63,-0.73,3955.5555555555557
-0.635,-0.725,3958.3333333333335
-0.645,-0.73,3961.1111111111113
-0.655,-0.745,3963.8888888888887
-0.655,-0.755,3966.6666666666665
-0.66,-0.755,3969.4444444444443
-0.665,-0.755,3972.222222222222
-0.65,-0.76,3975.0
-0.65,-0.74,3977.777777777778
-0.64,-0.73,3980.5555555555557
-0.65,-0.72,3983.3333333333335
-0.635,-0.72,3986.1111111111113
-0.62,-0.725,3988.8888888888887
-0.63,-0.725,3991.6666666666665
-0.635,-0.74,3994.4444444444443
-0.65,-0.745,3997.222222222222
-0.655,-0.74,4000.0
-0.655,-0.75,4002.777777777778
-0.655,-0.755,4005.5555555555557
-0.65,-0.75,4008.3333333333335
-0.64,-0.74,4011.1111111111113
-0.63,-0.75,4013.8888888888887
-0.625,-0.74,4016.6666666666665
-0.625,-0.73,4019.4444444444443
-0.63,-0.73,4022.222222222222
-0.63,-0.745,4025.0
-0.615,-0.75,4027.777777777778
-0.63,-0.75,4030.5555555555557
-0.63,-0.76,4033.3333333333335
-0.63,-0.755,4036.1111111111113
-0.64,-0.765,4038.8888888888887
-0.645,-0.76,4041.6666666666665
-0.62,-0.75,4044.4444444444443
-0.62,-0.75,4047.222222222222
-0.595,-0.745,4050.0
-0.605,-0.735,4052.777777777778
-0.59,-0.74,4055.5555555555557
-0.6,-0.74,4058.3333333333335
-0.595,-0.75,4061.1111111111113
-0.61,-0.76,4063.8888888888887
-0.625,-0.765,4066.6666666666665
-0.625,-0.77,4069.4444444444443
-0.61,-0.765,4072.222222222222
-0.605,-0.755,4075.0
-0.605,-0.765,4077.777777777778
-0.595,-0.755,4080.5555555555557
-0.585,-0.75,4083.3333333333335
-0.575,-0.745,4086.1111111111113
-0.555,-0.75,4088.8888888888887
-0.56,-0.765,4091.6666666666665
-0.555,-0.765,4094.4444444444443
-0.56,-0.765,4097.222222222223
-0.565,-0.765,4100.0
-0.58,-0.77,4102.777777777777
-0.58,-0.765,4105.555555555556
-0.575,-0.77,4108.333333333333
-0.565,-0.755,4111.111111111111
-0.56,-0.74,4113.888888888889
-0.53,-0.745,4116.666666666667
-0.505,-0.73,4119.444444444444
-0.49,-0.73,4122.222222222223
-0.495,-0.75,4125.0
-0.485,-0.755,4127.777777777777
-0.5,-0.755,4130.555555555556
-0.51,-0.76,4133.333333333333
-0.52,-0.775,4136.111111111111
-0.535,-0.765,4138.888888888889
-0.555,-0.755,4141.666666666667
-0.545,-0.75,4144.444444444444
-0.535,-0.765,4147.222222222223
-0.535,-0.745,4150.0
-0.525,-0.735,4152.777777777777
-0.525,-0.72,4155.555555555556
-0.52,-0.735,4158.333333333333
-0.535,-0.74,4161.111111111111
-0.535,-0.73,4163.888888888889
-0.525,-0.735,4166.666666666667
-0.51,-0.73,4169.444444444444
-0.485,-0.725,4172.222222222223
-0.49,-0.715,4175.0
-0.48,-0.725,4177.777777777777
-0.48,-0.715,4180.555555555556
-0.48,-0.72,4183.333333333333
-0.485,-0.715,4186.111111111111
-0.505,-0.735,4188.888888888889
-0.53,-0.755,4191.666666666667
-0.54,-0.77,4194.444444444444
-0.565,-0.79,4197.222222222223
-0.575,-0.8,4200.0
-0.595,-0.805,4202.777777777777
-0.595,-0.81,4205.555555555556
-0.595,-0.8,4208.333333333333
-0.585,-0.775,4211.111111111111
-0.58,-0.78,4213.888888888889
-0.57,-0.77,4216.666666666667
-0.56,-0.765,4219.444444444444
-0.555,-0.77,4222.222222222223
-0.555,-0.79,4225.0
-0.565,-0.815,4227.777777777777
-0.57,-0.835,4230.555555555556
-0.585,-0.86,4233.333333333333
-0.61,-0.885,4236.111111111111
-0.6,-0.875,4238.888888888889
-0.57,-0.815,4241.666666666667
-0.515,-0.7,4244.444444444444
-0.44,-0.595,4247.222222222223
-0.35,-0.48,4250.0
-0.26,-0.41,4252.777777777777
-0.185,-0.41,4255.555555555556
-0.165,-0.475,4258.333333333333
-0.165,-0.595,4261.111111111111
-0.23,-0.83,4263.888888888889
-0.325,-1.11,4266.666666666667
-0.46,-1.355,4269.444444444444
-0.56,-1.525,4272.222222222223
-0.57,-1.535,4275.0
-0.47,-1.415,4277.777777777777
-0.275,-1.195,4280.555555555556
-0.02,-0.97,4283.333333333333
0.26,-0.76,4286.111111111111
0.52,-0.595,4288.888888888889
0.76,-0.495,4291.666666666667
0.98,-0.435,4294.444444444444
1.17,-0.4,4297.222222222223
1.345,-0.39,4300.0
1.475,-0.4,4302.777777777777
1.555,-0.42,4305.555555555556
1.6,-0.47,4308.333333333333
1.615,-0.55,4311.111111111111
1.55,-0.655,4313.888888888889
1.48,-0.71,4316.666666666667
1.375,-0.75,4319.444444444444
1.21,-0.805,4322.222222222223
0.995,-0.81,4325.0
0.795,-0.795,4327.777777777777
0.595,-0.79,4330.555555555556
0.4,-0.775,4333.333333333333
0.21,-0.755,4336.111111111111
0.0,-0.75,4338.888888888889
-0.19,-0.755,4341.666666666667
-0.38,-0.79,4344.444444444444
-0.55,-0.845,4347.222222222223
-0.675,-0.88,4350.0
-0.76,-0.89,4352.777777777777
-0.8,-0.9,4355.555555555556
-0.81,-0.87,4358.333333333333
-0.815,-0.84,4361.111111111111
-0.8,-0.81,4363.888888888889
-0.78,-0.8,4366.666666666667
-0.765,-0.78,4369.444444444444
-0.755,-0.77,4372.222222222223
-0.74,-0.75,4375.0
-0.72,-0.72,4377.777777777777
-0.705,-0.68,4380.555555555556
-0.675,-0.67,4383.333333333333
-0.67,-0.655,4386.111111111111
-0.655,-0.65,4388.888888888889
-0.66,-0.665,4391.666666666667
-0.665,-0.66,4394.444444444444
-0.67,-0.665,4397.222222222223
-0.68,-0.665,4400.0
-0.695,-0.66,4402.777777777777
-0.705,-0.66,4405.555555555556
-0.705,-0.66,4408.333333333333
-0.705,-0.655,4411.111111111111
-0.695,-0.645,4413.888888888889
-0.67,-0.65,4416.666666666667
-0.665,-0.625,4419.444444444444
-0.66,-0.64,4422.222222222223
-0.665,-0.64,4425.0
-0.68,-0.65,4427.777777777777
-0.69,-0.655,4430.555555555556
-0.685,-0.665,4433.333333333333
-0.695,-0.67,4436.111111111111
-0.7,-0.66,4438.888888888889
-0.7,-0.67,4441.666666666667
-0.7,-0.655,4444.444444444444
-0.695,-0.665,4447.222222222223
-0.69,-0.655,4450.0
-0.69,-0.65,4452.777777777777
-0.675,-0.65,4455.555555555556
-0.68,-0.65,4458.333333333333
-0.69,-0.65,4461.111111111111
-0.69,-0.66,4463.888888888889
-0.7,-0.665,4466.666666666667
-0.705,-0.675,4469.444444444444
-0.715,-0.67,4472.222222222223
-0.71,-0.665,4475.0
-0.715,-0.66,4477.777777777777
-0.7,-0.655,4480.555555555556
-0.695,-0.64,4483.333333333333
-0.7,-0.635,4486.111111111111
-0.69,-0.63,4488.888888888889
-0.69,-0.65,4491.666666666667
-0.705,-0.655,4494.444444444444
-0.71,-0.665,4497.222222222223
-0.72,-0.67,4500.0
-0.73,-0.695,4502.777777777777
-0.745,-0.68,4505.555555555556
-0.745,-0.68,4508.333333333333
-0.745,-0.685,4511.111111111111
-0.73,-0.675,4513.888888888889
-0.74,-0.665,4516.666666666667
-0.745,-0.66,4519.444444444444
-0.72,-0.66,4522.222222222223
-0.725,-0.675,4525.0
-0.75,-0.69,4527.777777777777
-0.75,-0.695,4530.555555555556
-0.755,-0.705,4533.333333333333
-0.765,-0.71,4536.111111111111
-0.77,-0.705,4538.888888888889
-0.77,-0.71,4541.666666666667
-0.78,-0.71,4544.444444444444
-0.775,-0.705,4547.222222222223
-0.785,-0.705,4550.0
-0.775,-0.705,4552.777777777777
-0.775,-0.73,4555.555555555556
-0.78,-0.73,4558.333333333333
-0.795,-0.74,4561.111111111111
-0.805,-0.77,4563.888888888889
-0.82,-0.77,4566.666666666667
-0.825,-0.79,4569.444444444444
-0.82,-0.805,4572.222222222223
-0.825,-0.795,4575.0
-0.835,-0.8,4577.777777777777
-0.825,-0.795,4580.555555555556
-0.815,-0.795,4583.333333333333
-0.82,-0.795,4586.111111111111
-0.815,-0.795,4588.888888888889
-0.825,-0.81,4591.666666666667
-0.84,-0.825,4594.444444444444
-0.83,-0.84,4597.222222222223
-0.835,-0.86,4600.0
-0.845,-0.87,4602.777777777777
-0.84,-0.885,4605.555555555556
-0.84,-0.85,4608.333333333333
-0.83,-0.87,4611.111111111111
-0.83,-0.865,4613.888888888889
-0.815,-0.865,4616.666666666667
-0.8,-0.845,4619.444444444444
-0.79,-0.86,4622.222222222223
-0.79,-0.88,4625.0
-0.78,-0.875,4627.777777777777
-0.785,-0.89,4630.555555555556
-0.78,-0.91,4633.333333333333
-0.775,-0.9,4636.111111111111
-0.765,-0.89,4638.888888888889
-0.745,-0.88,4641.666666666667
-0.725,-0.87,4644.444444444444
-0.705,-0.88,4647.222222222223
-0.675,-0.86,4650.0
-0.66,-0.865,4652.777777777777
-0.65,-0.855,4655.555555555556
-0.64,-0.865,4658.333333333333
-0.62,-0.87,4661.111111111111
-0.595,-0.87,4663.888888888889
-0.585,-0.88,4666.666666666667
-0.58,-0.885,4669.444444444444
-0.58,-0.875,4672.222222222223
-0.555,-0.855,4675.0
-0.54,-0.845,4677.777777777777
-0.535,-0.845,4680.555555555556
-0.52,-0.84,4683.333333333333
-0.49,-0.835,4686.111111111111
-0.47,-0.82,4688.888888888889
-0.465,-0.83,4691.666666666667
-0.455,-0.84,4694.444444444444
-0.455,-0.835,4697.222222222223
-0.46,-0.85,4700.0
-0.475,-0.85,4702.777777777777
-0.455,-0.845,4705.555555555556
-0.465,-0.835,4708.333333333333
-0.455,-0.83,4711.111111111111
-0.45,-0.84,4713.888888888889
-0.445,-0.83,4716.666666666667
-0.45,-0.835,4719.444444444444
-0.45,-0.84,4722.222222222223
-0.45,-0.84,4725.0
-0.455,-0.85,4727.777777777777
-0.48,-0.865,4730.555555555556
-0.505,-0.87,4733.333333333333
-0.51,-0.87,4736.111111111111
-0.52,-0.865,4738.888888888889
-0.535,-0.86,4741.666666666667
-0.545,-0.845,4744.444444444444
-0.55,-0.855,4747.222222222223
-0.555,-0.86,4750.0
-0.555,-0.85,4752.777777777777
-0.565,-0.86,4755.555555555556
-0.58,-0.86,4758.333333333333
-0.585,-0.855,4761.111111111111
-0.615,-0.875,4763.888888888889
-0.62,-0.885,4766.666666666667
-0.645,-0.885,4769.444444444444
-0.655,-0.895,4772.222222222223
-0.655,-0.875,4775.0
-0.665,-0.875,4777.777777777777
-0.66,-0.86,4780.555555555556
-0.655,-0.845,4783.333333333333
-0.645,-0.845,4786.111111111111
-0.65,-0.85,4788.888888888889
-0.655,-0.855,4791.666666666667
-0.665,-0.86,4794.444444444444
-0.675,-0.86,4797.222222222223
-0.68,-0.88,4800.0
-0.69,-0.88,4802.777777777777
-0.695,-0.875,4805.555555555556
-0.69,-0.875,4808.333333333333
-0.68,-0.86,4811.111111111111
-0.675,-0.85,4813.888888888889
-0.665,-0.84,4816.666666666667
-0.65,-0.84,4819.444444444444
-0.635,-0.83,4822.222222222223
-0.65,-0.83,4825.0
-0.64,-0.835,4827.777777777777
-0.65,-0.83,4830.555555555556
-0.65,-0.825,4833.333333333333
-0.655,-0.835,4836.111111111111
-0.65,-0.835,4838.888888888889
-0.645,-0.82,4841.666666666667
-0.65,-0.815,4844.444444444444
-0.635,-0.8,4847.222222222223
-0.615,-0.785,4850.0
-0.62,-0.775,4852.777777777777
-0.605,-0.77,4855.555555555556
-0.62,-0.775,4858.333333333333
-0.615,-0.79,4861.111111111111
-0.625,-0.81,4863.888888888889
-0.61,-0.805,4866.666666666667
-0.62,-0.805,4869.444444444444
-0.62,-0.79,4872.222222222223
-0.625,-0.775,4875.0
-0.63,-0.77,4877.777777777777
-0.615,-0.75,4880.555555555556
-0.595,-0.745,4883.333333333333
-0.595,-0.75,4886.111111111111
-0.575,-0.74,4888.888888888889
-0.59,-0.755,4891.666666666667
-0.58,-0.755,4894.444444444444
-0.58,-0.77,4897.222222222223
-0.59,-0.77,4900.0
-0.595,-0.775,4902.777777777777
-0.59,-0.77,4905.555555555556
-0.59,-0.755,4908.333333333333
-0.58,-0.75,4911.111111111111
-0.57,-0.73,4913.888888888889
-0.565,-0.735,4916.666666666667
-0.56,-0.72,4919.444444444444
-0.55,-0.73,4922.222222222223
-0.565,-0.73,4925.0
-0.575,-0.75,4927.777777777777
-0.57,-0.75,4930.555555555556
-0.58,-0.755,4933.333333333333
-0.575,-0.76,4936.111111111111
-0.595,-0.755,4938.888888888889
-0.595,-0.745,4941.666666666667
-0.58,-0.735,4944.444444444444
-0.575,-0.745,4947.222222222223
-0.57,-0.74,4950.0
-0.565,-0.725,4952.777777777777
-0.56,-0.735,4955.555555555556
-0.55,-0.73,4958.333333333333
-0.555,-0.72,4961.111111111111
-0.57,-0.74,4963.888888888889
-0.565,-0.735,4966.666666666667
-0.58,-0.74,4969.444444444444
-0.575,-0.735,4972.222222222223
-0.585,-0.735,4975.0
-0.58,-0.73,4977.777777777777
-0.58,-0.73,4980.555555555556
-0.565,-0.71,4983.333333333333
-0.555,-0.71,4986.111111111111
-0.55,-0.705,4988.888888888889
-0.555,-0.71,4991.666666666667
-0.555,-0.705,4994.444444444444
-0.565,-0.715,4997.222222222223
-0.56,-0.725,5000.0
-0.57,-0.725,5002.777777777777
-0.57,-0.73,5005.555555555556
-0.575,-0.735,5008.333333333333
-0.57,-0.725,5011.111111111111
-0.575,-0.71,5013.888888888889
-0.555,-0.7,5016.666666666667
-0.56,-0.685,5019.444444444444
-0.555,-0.685,5022.222222222223
-0.55,-0.69,5025.0
-0.56,-0.69,5027.777777777777
-0.57,-0.705,5030.555555555556
-0.565,-0.705,5033.333333333333
-0.575,-0.71,5036.111111111111
-0.58,-0.7,5038.888888888889
-0.565,-0.7,5041.666666666667
-0.56,-0.69,5044.444444444444
-0.555,-0.685,5047.222222222223
-0.555,-0.68,5050.0
-0.545,-0.665,5052.777777777777
-0.55,-0.665,5055.555555555556
-0.55,-0.685,5058.333333333333
-0.55,-0.69,5061.111111111111
-0.575,-0.7,5063.888888888889
-0.565,-0.71,5066.666666666667
-0.565,-0.715,5069.444444444444
-0.57,-0.71,5072.222222222223
-0.565,-0.705,5075.0
-0.565,-0.69,5077.777777777777
-0.555,-0.69,5080.555555555556
-0.54,-0.68,5083.333333333333
-0.555,-0.675,5086.111111111111
-0.55,-0.68,5088.888888888889
-0.56,-0.68,5091.666666666667
-0.56,-0.68,5094.444444444444
-0.555,-0.69,5097.222222222223
-0.575,-0.705,5100.0
-0.57,-0.69,5102.777777777777
-0.575,-0.695,5105.555555555556
-0.58,-0.685,5108.333333333333
-0.57,-0.665,5111.111111111111
-0.565,-0.65,5113.888888888889
-0.55,-0.66,5116.666666666667
-0.545,-0.65,5119.444444444444
-0.535,-0.66,5122.222222222223
-0.545,-0.66,5125.0
-0.54,-0.68,5127.777777777777
-0.555,-0.69,5130.555555555556
-0.555,-0.695,5133.333333333333
-0.565,-0.69,5136.111111111111
-0.56,-0.68,5138.888888888889
-0.56,-0.68,5141.666666666667
-0.56,-0.675,5144.444444444444
-0.555,-0.655,5147.222222222223
-0.565,-0.67,5150.0
-0.555,-0.645,5152.777777777777
-0.55,-0.66,5155.555555555556
-0.555,-0.655,5158.333333333333
-0.555,-0.675,5161.111111111111
-0.55,-0.68,5163.888888888889
-0.555,-0.68,5166.666666666667
-0.565,-0.675,5169.444444444444
-0.56,-0.67,5172.222222222223
-0.55,-0.675,5175.0
-0.555,-0.665,5177.777777777777
-0.56,-0.68,5180.555555555556
-0.57,-0.665,5183.333333333333
-0.565,-0.665,5186.111111111111
-0.56,-0.645,5188.888888888889
-0.55,-0.655,5191.666666666667
-0.555,-0.64,5194.444444444444
-0.555,-0.67,5197.222222222223
-0.55,-0.675,5200.0
-0.57,-0.665,5202.777777777777
-0.565,-0.67,5205.555555555556
-0.57,-0.675,5208.333333333333
-0.565,-0.675,5211.111111111111
-0.56,-0.665,5213.888888888889
-0.555,-0.66,5216.666666666667
-0.55,-0.645,5219.444444444444
-0.545,-0.635,5222.222222222223
-0.55,-0.635,5225.0
-0.555,-0.645,5227.777777777777
-0.555,-0.645,5230.555555555556
-0.565,-0.655,5233.333333333333
-0.565,-0.655,5236.111111111111
-0.57,-0.655,5238.888888888889
-0.585,-0.66,5241.666666666667
-0.575,-0.645,5244.444444444444
-0.57,-0.645,5247.222222222223
-0.55,-0.65,5250.0
-0.55,-0.625,5252.777777777777
-0.535,-0.625,5255.555555555556
-0.55,-0.635,5258.333333333333
-0.56,-0.645,5261.111111111111
-0.555,-0.645,5263.888888888889
-0.565,-0.66,5266.666666666667
-0.565,-0.66,5269.444444444444
-0.565,-0.65,5272.222222222223
-0.57,-0.645,5275.0
-0.56,-0.65,5277.777777777777
-0.565,-0.63,5280.555555555556
-0.55,-0.62,5283.333333333333
-0.54,-0.62,5286.111111111111
-0.535,-0.615,5288.888888888889
-0.54,-0.625,5291.666666666667
-0.55,-0.635,5294.444444444444
-0.55,-0.635,5297.222222222223
-0.57,-0.635,5300.0
-0.565,-0.64,5302.777777777777
-0.565,-0.64,5305.555555555556
-0.56,-0.62,5308.333333333333
-0.55,-0.62,5311.111111111111
-0.53,-0.62,5313.888888888889
-0.54,-0.62,5316.666666666667
-0.53,-0.61,5319.444444444444
-0.525,-0.62,5322.222222222223
-0.535,-0.64,5325.0
-0.535,-0.62,5327.777777777777
-0.55,-0.645,5330.555555555556
-0.54,-0.64,5333.333333333333
-0.54,-0.625,5336.111111111111
-0.53,-0.62,5338.888888888889
-0.52,-0.62,5341.666666666667
-0.51,-0.615,5344.444444444444
-0.495,-0.605,5347.222222222223
-0.485,-0.59,5350.0
-0.48,-0.57,5352.777777777777
-0.485,-0.58,5355.555555555556
-0.49,-0.58,5358.333333333333
-0.5,-0.59,5361.111111111111
-0.515,-0.595,5363.888888888889
-0.53,-0.605,5366.666666666667
-0.53,-0.605,5369.444444444444
-0.55,-0.6,5372.222222222223
-0.545,-0.585,5375.0
-0.555,-0.58,5377.777777777777
-0.545,-0.565,5380.555555555556
-0.53,-0.56,5383.333333333333
-0.505,-0.535,5386.111111111111
-0.49,-0.535,5388.888888888889
-0.48,-0.545,5391.666666666667
-0.495,-0.54,5394.444444444444
-0.49,-0.55,5397.222222222223
-0.505,-0.57,5400.0
-0.525,-0.57,5402.777777777777
-0.535,-0.57,5405.555555555556
-0.545,-0.57,5408.333333333333
-0.555,-0.58,5411.111111111111
-0.565,-0.575,5413.888888888889
-0.56,-0.58,5416.666666666667
-0.565,-0.59,5419.444444444444
-0.57,-0.59,5422.222222222223
-0.585,-0.6,5425.0
-0.58,-0.6,5427.777777777777
-0.59,-0.615,5430.555555555556
-0.6,-0.61,5433.333333333333
-0.6,-0.625,5436.111111111111
-0.6,-0.625,5438.888888888889
-0.595,-0.62,5441.666666666667
-0.6,-0.615,5444.444444444444
-0.58,-0.62,5447.222222222223
-0.595,-0.625,5450.0
-0.585,-0.635,5452.777777777777
-0.6,-0.64,5455.555555555556
-0.59,-0.61,5458.333333333333
-0.55,-0.51,5461.111111111111
-0.475,-0.385,5463.888888888889
-0.38,-0.275,5466.666666666667
-0.3,-0.19,5469.444444444444
-0.23,-0.18,5472.222222222223
-0.185,-0.25,5475.0
-0.185,-0.405,5477.777777777777
-0.26,-0.695,5480.555555555556
-0.42,-1.005,5483.333333333333
-0.59,-1.28,5486.111111111111
-0.69,-1.435,5488.888888888889
-0.685,-1.435,5491.666666666667
-0.57,-1.3,5494.444444444444
-0.36,-1.095,5497.222222222223
-0.11,-0.89,5500.0
0.15,-0.72,5502.777777777777
0.39,-0.585,5505.555555555556
0.615,-0.515,5508.333333333333
0.82,-0.48,5511.111111111111
1.0,-0.47,5513.888888888889
1.14,-0.46,5516.666666666667
1.24,-0.46,5519.444444444444
1.285,-0.495,5522.222222222223
1.275,-0.55,5525.0
1.225,-0.585,5527.777777777777
1.155,-0.595,5530.555555555556
1.035,-0.59,5533.333333333333
0.88,-0.575,5536.111111111111
0.695,-0.565,5538.888888888889
0.49,-0.535,5541.666666666667
0.3,-0.51,5544.444444444444
0.11,-0.495,5547.222222222223
-0.09,-0.495,5550.0
-0.295,-0.52,5552.777777777777
-0.475,-0.575,5555.555555555556
-0.635,-0.605,5558.333333333333
-0.745,-0.63,5561.111111111111
-0.805,-0.64,5563.888888888889
-0.84,-0.62,5566.666666666667
-0.84,-0.59,5569.444444444444
-0.825,-0.545,5572.222222222223
-0.795,-0.515,5575.0
-0.765,-0.49,5577.777777777777
-0.745,-0.485,5580.555555555556
-0.715,-0.45,5583.333333333333
-0.685,-0.44,5586.111111111111
-0.685,-0.43,5588.888888888889
-0.675,-0.43,5591.666666666667
-0.685,-0.425,5594.444444444444
-0.69,-0.415,5597.222222222223
-0.715,-0.43,5600.0
-0.72,-0.425,5602.777777777777
-0.72,-0.435,5605.555555555556
-0.73,-0.435,5608.333333333333
-0.73,-0.41,5611.111111111111
-0.73,-0.415,5613.888888888889
-0.71,-0.405,5616.666666666667
-0.7,-0.385,5619.444444444444
-0.69,-0.375,5622.222222222223
-0.7,-0.38,5625.0
-0.695,-0.385,5627.777777777777
-0.705,-0.39,5630.555555555556
-0.705,-0.405,5633.333333333333
-0.71,-0.405,5636.111111111111
-0.71,-0.405,5638.888888888889
-0.71,-0.39,5641.666666666667
-0.72,-0.39,5644.444444444444
-0.725,-0.38,5647.222222222223
-0.715,-0.365,5650.0
-0.715,-0.345,5652.777777777777
-0.705,-0.36,5655.555555555556
-0.715,-0.37,5658.333333333333
-0.715,-0.37,5661.111111111111
-0.72,-0.39,5663.888888888889
-0.735,-0.385,5666.666666666667
-0.74,-0.395,5669.444444444444
-0.75,-0.395,5672.222222222223
-0.74,-0.395,5675.0
-0.76,-0.385,5677.777777777777
-0.765,-0.38,5680.555555555556
-0.74,-0.365,5683.333333333333
-0.74,-0.355,5686.111111111111
-0.735,-0.35,5688.888888888889
-0.74,-0.355,5691.666666666667
-0.755,-0.38,5694.444444444444
-0.765,-0.395,5697.222222222223
-0.77,-0.4,5700.0
-0.785,-0.41,5702.777777777777
-0.785,-0.405,5705.555555555556
-0.79,-0.4,5708.333333333333
-0.785,-0.385,5711.111111111111
-0.795,-0.385,5713.888888888889
-0.785,-0.385,5716.666666666667
-0.795,-0.38,5719.444444444444
-0.8,-0.395,5722.222222222223
-0.79,-0.395,5725.0
-0.81,-0.41,5727.777777777777
-0.81,-0.425,5730.555555555556
-0.82,-0.44,5733.333333333333
-0.825,-0.445,5736.111111111111
-0.84,-0.455,5738.888888888889
-0.86,-0.44,5741.666666666667
-0.84,-0.445,5744.444444444444
-0.845,-0.45,5747.222222222223
-0.845,-0.45,5750.0
-0.845,-0.455,5752.777777777777
-0.845,-0.46,5755.555555555556
-0.855,-0.47,5758.333333333333
-0.865,-0.485,5761.111111111111
-0.875,-0.5,5763.888888888889
-0.885,-0.515,5766.666666666667
-0.9,-0.525,5769.444444444444
-0.925,-0.52,5772.222222222223
-0.93,-0.535,5775.0
-0.925,-0.55,5777.777777777777
-0.915,-0.545,5780.555555555556
-0.915,-0.55,5783.333333333333
-0.905,-0.55,5786.111111111111
-0.91,-0.57,5788.888888888889
-0.915,-0.575,5791.666666666667
-0.925,-0.585,5794.444444444444
-0.94,-0.6,5797.222222222223
-0.955,-0.615,5800.0
-0.945,-0.615,5802.777777777777
-0.96,-0.62,5805.555555555556
-0.95,-0.63,5808.333333333333
-0.945,-0.64,5811.111111111111
-0.935,-0.63,5813.888888888889
-0.935,-0.635,5816.666666666667
-0.92,-0.635,5819.444444444444
-0.895,-0.64,5822.222222222223
-0.9,-0.655,5825.0
-0.89,-0.655,5827.777777777777
-0.89,-0.675,5830.555555555556
-0.885,-0.675,5833.333333333333
-0.885,-0.68,5836.111111111111
-0.865,-0.69,5838.888888888889
-0.84,-0.695,5841.666666666667
-0.825,-0.685,5844.444444444444
-0.8,-0.675,5847.222222222223
-0.79,-0.67,5850.0
-0.77,-0.665,5852.777777777777
-0.74,-0.655,5855.555555555556
-0.73,-0.665,5858.333333333333
-0.72,-0.665,5861.111111111111
-0.705,-0.665,5863.888888888889
-0.7,-0.67,5866.666666666667
-0.69,-0.665,5869.444444444444
-0.67,-0.65,5872.222222222223
-0.66,-0.65,5875.0
-0.65,-0.635,5877.777777777777
-0.625,-0.63,5880.555555555556
-0.605,-0.615,5883.333333333333
-0.59,-0.605,5886.111111111111
-0.58,-0.61,5888.888888888889
-0.565,-0.605,5891.666666666667
-0.555,-0.61,5894.444444444444
-0.56,-0.615,5897.222222222223
-0.565,-0.61,5900.0
-0.555,-0.62,5902.777777777777
-0.565,-0.605,5905.555555555556
-0.565,-0.605,5908.333333333333
-0.57,-0.585,5911.111111111111
-0.565,-0.585,5913.888888888889
-0.59,-0.565,5916.666666666667
-0.575,-0.57,5919.444444444444
-0.57,-0.56,5922.222222222223
-0.57,-0.555,5925.0
-0.585,-0.575,5927.777777777777
-0.605,-0.59,5930.555555555556
-0.62,-0.595,5933.333333333333
-0.645,-0.585,5936.111111111111
-0.65,-0.585,5938.888888888889
-0.655,-0.585,5941.666666666667
-0.66,-0.565,5944.444444444444
-0.665,-0.55,5947.222222222223
-0.66,-0.555,5950.0
-0.675,-0.55,5952.777777777777
-0.68,-0.545,5955.555555555556
-0.7,-0.55,5958.333333333333
-0.695,-0.555,5961.111111111111
-0.725,-0.56,5963.888888888889
-0.72,-0.575,5966.666666666667
-0.72,-0.56,5969.444444444444
-0.74,-0.57,5972.222222222223
-0.745,-0.56,5975.0
-0.745,-0.545,5977.777777777777
-0.73,-0.545,5980.555555555556
-0.73,-0.545,5983.333333333333
-0.72,-0.53,5986.111111111111
-0.715,-0.545,5988.888888888889
-0.73,-0.53,5991.666666666667
-0.74,-0.54,5994.444444444444
-0.74,-0.555,5997.222222222223
-0.76,-0.565,6000.0
-0.765,-0.555,6002.777777777777
-0.76,-0.565,6005.555555555556
-0.755,-0.55,6008.333333333333
-0.765,-0.535,6011.111111111111
-0.76,-0.52,6013.888888888889
-0.74,-0.52,6016.666666666667
-0.735,-0.51,6019.444444444444
-0.725,-0.525,6022.222222222223
-0.725,-0.52,6025.0
-0.725,-0.525,6027.777777777777
-0.725,-0.525,6030.555555555556
-0.73,-0.53,6033.333333333333
-0.74,-0.54,6036.111111111111
-0.735,-0.53,6038.888888888889
-0.735,-0.52,6041.666666666667
-0.745,-0.51,6044.444444444444
-0.725,-0.51,6047.222222222223
-0.72,-0.51,6050.0
-0.725,-0.495,6052.777777777777
-0.705,-0.475,6055.555555555556
-0.7,-0.48,6058.333333333333
-0.71,-0.49,6061.111111111111
-0.715,-0.485,6063.888888888889
-0.715,-0.495,6066.666666666667
-0.715,-0.49,6069.444444444444
-0.735,-0.495,6072.222222222223
-0.73,-0.505,6075.0
-0.725,-0.48,6077.777777777777
-0.715,-0.475,6080.555555555556
-0.7,-0.47,6083.333333333333
-0.69,-0.465,6086.111111111111
-0.695,-0.455,6088.888888888889
-0.705,-0.46,6091.666666666667
-0.705,-0.46,6094.444444444444
-0.71,-0.48,6097.222222222223
-0.705,-0.48,6100.0
-0.705,-0.49,6102.777777777777
-0.715,-0.485,6105.555555555556
-0.705,-0.485,6108.333333333333
-0.7,-0.495,6111.111111111111
-0.705,-0.48,6113.888888888889
-0.69,-0.455,6116.666666666667
-0.68,-0.45,6119.444444444444
-0.67,-0.455,6122.222222222223
-0.68,-0.45,6125.0
-0.68,-0.45,6127.777777777777
-0.69,-0.465,6130.555555555556
-0.685,-0.46,6133.333333333333
-0.7,-0.475,6136.111111111111
-0.7,-0.485,6138.888888888889
-0.7,-0.46,6141.666666666667
-0.71,-0.465,6144.444444444444
-0.7,-0.455,6147.222222222223
-0.685,-0.45,6150.0
-0.69,-0.445,6152.777777777777
-0.675,-0.425,6155.555555555556
-0.675,-0.42,6158.333333333333
-0.685,-0.44,6161.111111111111
-0.685,-0.44,6163.888888888889
-0.685,-0.445,6166.666666666667
-0.705,-0.45,6169.444444444444
-0.71,-0.45,6172.222222222223
-0.71,-0.46,6175.0
-0.71,-0.445,6177.777777777777
-0.705,-0.44,6180.555555555556
-0.7,-0.43,6183.333333333333
-0.705,-0.425,6186.111111111111
-0.69,-0.425,6188.888888888889
-0.675,-0.42,6191.666666666667
-0.68,-0.43,6194.444444444444
-0.685,-0.44,6197.222222222223
-0.695,-0.45,6200.0
-0.705,-0.46,6202.777777777777
-0.71,-0.455,6205.555555555556
-0.705,-0.45,6208.333333333333
-0.705,-0.435,6211.111111111111
-0.695,-0.43,6213.888888888889
-0.7,-0.415,6216.666666666667
-0.68,-0.41,6219.444444444444
-0.675,-0.415,6222.222222222223
-0.69,-0.41,6225.0
-0.7,-0.42,6227.777777777777
-0.685,-0.42,6230.555555555556
-0.7,-0.425,6233.333333333333
-0.69,-0.43,6236.111111111111
-0.695,-0.445,6238.888888888889
-0.71,-0.44,6241.666666666667
-0.71,-0.425,6244.444444444444
-0.69,-0.425,6247.222222222223
-0.695,-0.425,6250.0
-0.685,-0.415,6252.777777777777
-0.67,-0.4,6255.555555555556
-0.675,-0.41,6258.333333333333
-0.685,-0.415,6261.111111111111
-0.685,-0.425,6263.888888888889
-0.685,-0.44,6266.666666666667
-0.7,-0.44,6269.444444444444
-0.705,-0.44,6272.222222222223
-0.715,-0.425,6275.0
-0.71,-0.435,6277.777777777777
-0.705,-0.42,6280.555555555556
-0.695,-0.4,6283.333333333333
-0.695,-0.4,6286.111111111111
-0.695,-0.4,6288.888888888889
-0.69,-0.415,6291.666666666667
-0.69,-0.415,6294.444444444444
-0.69,-0.43,6297.222222222223
-0.695,-0.435,6300.0
-0.7,-0.435,6302.777777777777
-0.715,-0.43,6305.555555555556
-0.715,-0.43,6308.333333333333
-0.715,-0.42,6311.111111111111
-0.715,-0.405,6313.888888888889
-0.715,-0.41,6316.666666666667
-0.7,-0.41,6319.444444444444
-0.675,-0.41,6322.222222222223
-0.685,-0.42,6325.0
-0.69,-0.42,6327.777777777777
-0.695,-0.435,6330.555555555556
-0.715,-0.44,6333.333333333333
-0.72,-0.445,6336.111111111111
-0.725,-0.445,6338.888888888889
-0.72,-0.44,6341.666666666667
-0.71,-0.425,6344.444444444444
-0.715,-0.425,6347.222222222223
-0.71,-0.4,6350.0
-0.705,-0.395,6352.777777777777
-0.71,-0.41,6355.555555555556
-0.705,-0.425,6358.333333333333
-0.705,-0.435,6361.111111111111
-0.71,-0.435,6363.888888888889
-0.705,-0.445,6366.666666666667
-0.705,-0.435,6369.444444444444
-0.71,-0.43,6372.222222222223
-0.705,-0.425,6375.0
-0.7,-0.415,6377.777777777777
-0.695,-0.415,6380.555555555556
-0.685,-0.405,6383.333333333333
-0.685,-0.395,6386.111111111111
-0.675,-0.41,6388.888888888889
-0.675,-0.425,6391.666666666667
-0.685,-0.41,6394.444444444444
-0.695,-0.425,6397.222222222223
-0.7,-0.435,6400.0
-0.7,-0.44,6402.777777777777
-0.72,-0.435,6405.555555555556
-0.705,-0.425,6408.333333333333
-0.7,-0.42,6411.111111111111
-0.695,-0.42,6413.888888888889
-0.68,-0.42,6416.666666666667
-0.68,-0.405,6419.444444444444
-0.675,-0.4,6422.222222222223
-0.675,-0.415,6425.0
-0.695,-0.425,6427.777777777777
-0.695,-0.43,6430.555555555556
-0.705,-0.435,6433.333333333333
-0.72,-0.435,6436.111111111111
-0.72,-0.425,6438.888888888889
-0.715,-0.425,6441.666666666667
-0.725,-0.425,6444.444444444444
-0.7,-0.41,6447.222222222223
-0.705,-0.41,6450.0
-0.695,-0.405,6452.777777777777
-0.69,-0.405,6455.555555555556
-0.705,-0.41,6458.333333333333
-0.7,-0.42,6461.111111111111
-0.705,-0.425,6463.888888888889
-0.695,-0.43,6466.666666666667
-0.705,-0.43,6469.444444444444
-0.72,-0.44,6472.222222222223
-0.715,-0.44,6475.0
-0.72,-0.42,6477.777777777777
-0.71,-0.405,6480.555555555556
-0.7,-0.41,6483.333333333333
-0.695,-0.4,6486.111111111111
-0.685,-0.415,6488.888888888889
-0.69,-0.4,6491.666666666667
-0.7,-0.42,6494.444444444444
-0.7,-0.41,6497.222222222223
-0.71,-0.425,6500.0
-0.73,-0.43,6502.777777777777
-0.735,-0.425,6505.555555555556
-0.73,-0.415,6508.333333333333
-0.715,-0.41,6511.111111111111
-0.71,-0.405,6513.888888888889
-0.71,-0.415,6516.666666666667
-0.705,-0.405,6519.444444444444
-0.69,-0.41,6522.222222222223
-0.69,-0.415,6525.0
-0.705,-0.42,6527.777777777777
-0.71,-0.44,6530.555555555556
-0.715,-0.43,6533.333333333333
-0.72,-0.43,6536.111111111111
-0.725,-0.435,6538.888888888889
-0.725,-0.425,6541.666666666667
-0.72,-0.415,6544.444444444444
-0.715,-0.425,6547.222222222223
-0.71,-0.405,6550.0
-0.71,-0.4,6552.777777777777
-0.71,-0.395,6555.555555555556
-0.7,-0.41,6558.333333333333
-0.705,-0.395,6561.111111111111
-0.705,-0.41,6563.888888888889
-0.7,-0.425,6566.666666666667
-0.7,-0.425,6569.444444444444
-0.705,-0.435,6572.222222222223
-0.705,-0.425,6575.0
-0.695,-0.42,6577.777777777777
-0.695,-0.42,6580.555555555556
-0.695,-0.405,6583.333333333333
-0.69,-0.39,6586.111111111111
-0.69,-0.405,6588.888888888889
-0.685,-0.4,6591.666666666667
-0.685,-0.405,6594.444444444444
-0.665,-0.405,6597.222222222223
-0.67,-0.41,6600.0
-0.675,-0.425,6602.777777777777
-0.655,-0.43,6605.555555555556
-0.66,-0.435,6608.333333333333
-0.655,-0.425,6611.111111111111
-0.655,-0.41,6613.888888888889
-0.65,-0.4,6616.666666666667
-0.655,-0.39,6619.444444444444
-0.65,-0.385,6622.222222222223
-0.665,-0.385,6625.0
-0.67,-0.39,6627.777777777777
-0.69,-0.39,6630.555555555556
-0.685,-0.41,6633.333333333333
-0.7,-0.425,6636.111111111111
-0.705,-0.415,6638.888888888889
-0.71,-0.405,6641.666666666667
-0.695,-0.39,6644.444444444444
-0.675,-0.375,6647.222222222223
-0.66,-0.34,6650.0
-0.64,-0.335,6652.777777777777
-0.625,-0.32,6655.555555555556
-0.625,-0.34,6658.333333333333
-0.625,-0.36,6661.111111111111
-0.64,-0.365,6663.888888888889
-0.66,-0.375,6666.666666666667
-0.685,-0.385,6669.444444444444
-0.7,-0.4,6672.222222222223
-0.72,-0.405,6675.0
-0.74,-0.415,6677.777777777777
-0.74,-0.415,6680.555555555556
-0.74,-0.4,6683.333333333333
-0.745,-0.395,6686.111111111111
-0.73,-0.395,6688.888888888889
-0.73,-0.4,6691.666666666667
-0.73,-0.42,6694.444444444444
-0.745,-0.42,6697.222222222223
-0.75,-0.425,6700.0
-0.755,-0.435,6702.777777777777
-0.76,-0.44,6705.555555555556
-0.765,-0.45,6708.333333333333
-0.765,-0.45,6711.111111111111
-0.77,-0.455,6713.888888888889
-0.775,-0.47,6716.666666666667
-0.765,-0.45,6719.444444444444
-0.73,-0.38,6722.222222222223
-0.675,-0.27,6725.0
-0.595,-0.16,6727.777777777777
-0.495,-0.08,6730.555555555556
-0.435,-0.025,6733.333333333333
-0.38,-0.05,6736.111111111111
-0.36,-0.16,6738.888888888889
-0.39,-0.335,6741.666666666667
-0.48,-0.6,6744.444444444444
-0.615,-0.885,6747.222222222223
-0.725,-1.095,6750.0
-0.79,-1.19,6752.777777777777
-0.74,-1.13,6755.555555555556
-0.6,-0.945,6758.333333333333
-0.37,-0.72,6761.111111111111
-0.105,-0.485,6763.888888888889
0.17,-0.295,6766.666666666667
0.445,-0.16,6769.444444444444
0.69,-0.075,6772.222222222223
0.92,-0.035,6775.0
1.12,-0.005,6777.777777777777
1.3,-0.01,6780.555555555556
1.395,-0.035,6783.333333333333
1.445,-0.085,6786.111111111111
1.43,-0.185,6788.888888888889
1.35,-0.28,6791.666666666667
1.23,-0.35,6794.444444444444
1.03,-0.42,6797.222222222223
0.79,-0.45,6800.0
0.535,-0.435,6802.777777777777
0.295,-0.425,6805.555555555556
0.065,-0.385,6808.333333333333
-0.15,-0.36,6811.111111111111
-0.39,-0.355,6813.888888888889
-0.615,-0.4,6816.666666666667
-0.79,-0.44,6819.444444444444
-0.92,-0.48,6822.222222222223
-1.005,-0.505,6825.0
-1.045,-0.495,6827.777777777777
-1.055,-0.48,6830.555555555556
-1.04,-0.445,6833.333333333333
-1.02,-0.42,6836.111111111111
-1.005,-0.39,6838.888888888889
-0.99,-0.35,6841.666666666667
-0.965,-0.31,6844.444444444444
-0.94,-0.31,6847.222222222223
-0.915,-0.27,6850.0
-0.9,-0.265,6852.777777777777
-0.9,-0.27,6855.555555555556
-0.9,-0.285,6858.333333333333
-0.905,-0.295,6861.111111111111
-0.915,-0.29,6863.888888888889
-0.91,-0.31,6866.666666666667
-0.92,-0.305,6869.444444444444
-0.925,-0.305,6872.222222222223
-0.92,-0.305,6875.0
-0.925,-0.285,6877.777777777777
-0.93,-0.285,6880.555555555556
-0.905,-0.26,6883.333333333333
-0.91,-0.265,6886.111111111111
-0.895,-0.265,6888.888888888889
-0.9,-0.265,6891.666666666667
-0.905,-0.27,6894.444444444444
-0.91,-0.285,6897.222222222223
-0.915,-0.285,6900.0
-0.93,-0.295,6902.777777777777
-0.92,-0.285,6905.555555555556
-0.94,-0.285,6908.333333333333
-0.925,-0.275,6911.111111111111
-0.93,-0.27,6913.888888888889
-0.93,-0.25,6916.666666666667
-0.93,-0.255,6919.444444444444
-0.91,-0.24,6922.222222222223
-0.92,-0.255,6925.0
-0.92,-0.26,6927.777777777777
-0.925,-0.27,6930.555555555556
-0.95,-0.275,6933.333333333333
-0.94,-0.27,6936.111111111111
-0.945,-0.27,6938.888888888889
-0.95,-0.27,6941.666666666667
-0.945,-0.245,6944.444444444444
-0.945,-0.255,6947.222222222223
-0.95,-0.25,6950.0
-0.95,-0.255,6952.777777777777
-0.93,-0.25,6955.555555555556
-0.935,-0.255,6958.333333333333
-0.945,-0.26,6961.111111111111
-0.955,-0.28,6963.888888888889
-0.965,-0.275,6966.666666666667
-0.975,-0.285,6969.444444444444
-0.98,-0.28,6972.222222222223
-1.005,-0.295,6975.0
-1.0,-0.29,6977.777777777777
-1.0,-0.285,6980.555555555556
-0.975,-0.29,6983.333333333333
-0.97,-0.29,6986.111111111111
-0.975,-0.295,6988.888888888889
-0.975,-0.295,6991.666666666667
-0.99,-0.295,6994.444444444444
-1.0,-0.31,6997.222222222223
-1.015,-0.325,7000.0
-1.025,-0.335,7002.777777777777
-1.03,-0.35,7005.555555555556
-1.045,-0.355,7008.333333333333
-1.04,-0.345,7011.111111111111
-1.04,-0.345,7013.888888888889
-1.03,-0.34,7016.666666666667
-1.03,-0.34,7019.444444444444
-1.03,-0.345,7022.222222222223
-1.03,-0.35,7025.0
-1.05,-0.37,7027.777777777777
-1.055,-0.395,7030.555555555556
-1.07,-0.415,7033.333333333333
-1.08,-0.43,7036.111111111111
-1.09,-0.445,7038.888888888889
-1.095,-0.445,7041.666666666667
-1.1,-0.45,7044.444444444444
-1.09,-0.445,7047.222222222223
-1.095,-0.435,7050.0
-1.085,-0.43,7052.777777777777
-1.075,-0.445,7055.555555555556
-1.085,-0.45,7058.333333333333
-1.095,-0.465,7061.111111111111
-1.1,-0.465,7063.888888888889
-1.09,-0.49,7066.666666666667
-1.105,-0.5,7069.444444444444
-1.1,-0.51,7072.222222222223
-1.1,-0.52,7075.0
-1.09,-0.53,7077.777777777777
-1.09,-0.52,7080.555555555556
-1.065,-0.51,7083.333333333333
-1.05,-0.5,7086.111111111111
-1.04,-0.495,7088.888888888889
-1.025,-0.505,7091.666666666667
-1.015,-0.515,7094.444444444444
-1.005,-0.52,7097.222222222223
-1.0,-0.53,7100.0
-0.995,-0.535,7102.777777777777
-0.99,-0.535,7105.555555555556
-0.975,-0.535,7108.333333333333
-0.96,-0.515,7111.111111111111
-0.945,-0.51,7113.888888888889
-0.92,-0.495,7116.666666666667
-0.895,-0.48,7119.444444444444
-0.875,-0.48,7122.222222222223
-0.86,-0.485,7125.0
-0.845,-0.49,7127.777777777777
-0.835,-0.495,7130.555555555556
-0.83,-0.5,7133.333333333333
-0.825,-0.505,7136.111111111111
-0.81,-0.505,7138.888888888889
-0.805,-0.485,7141.666666666667
-0.795,-0.48,7144.444444444444
-0.775,-0.47,7147.222222222223
-0.78,-0.47,7150.0
-0.77,-0.46,7152.777777777777
-0.75,-0.455,7155.555555555556
-0.745,-0.475,7158.333333333333
-0.74,-0.48,7161.111111111111
-0.745,-0.48,7163.888888888889
-0.75,-0.5,7166.666666666667
-0.745,-0.48,7169.444444444444
-0.745,-0.495,7172.222222222223
-0.75,-0.48,7175.0
-0.755,-0.485,7177.777777777777
-0.75,-0.465,7180.555555555556
-0.75,-0.465,7183.333333333333
-0.745,-0.47,7186.111111111111
-0.755,-0.46,7188.888888888889
-0.77,-0.48,7191.666666666667
-0.775,-0.48,7194.444444444444
-0.785,-0.49,7197.222222222223
-0.8,-0.505,7200.0
-0.825,-0.51,7202.777777777777
-0.835,-0.505,7205.555555555556
-0.85,-0.505,7208.333333333333
-0.865,-0.505,7211.111111111111
-0.87,-0.485,7213.888888888889
-0.875,-0.48,7216.666666666667
-0.88,-0.485,7219.444444444444
-0.88,-0.485,7222.222222222223
-0.895,-0.5,7225.0
-0.9,-0.505,7227.777777777777
-0.91,-0.52,7230.555555555556
-0.915,-0.53,7233.333333333333
-0.935,-0.535,7236.111111111111
-0.935,-0.54,7238.888888888889
-0.955,-0.54,7241.666666666667
-0.97,-0.53,7244.444444444444
-0.955,-0.53,7247.222222222223
-0.95,-0.515,7250.0
-0.955,-0.505,7252.777777777777
-0.94,-0.525,7255.555555555556
-0.945,-0.51,7258.333333333333
-0.95,-0.51,7261.111111111111
-0.965,-0.53,7263.888888888889
-0.98,-0.52,7266.666666666667
-0.975,-0.53,7269.444444444444
-0.98,-0.515,7272.222222222223
-0.98,-0.52,7275.0
-0.975,-0.505,7277.777777777777
-0.975,-0.505,7280.555555555556
-0.95,-0.49,7283.333333333333
-0.935,-0.49,7286.111111111111
-0.935,-0.48,7288.888888888889
-0.94,-0.49,7291.666666666667
-0.94,-0.495,7294.444444444444
-0.93,-0.505,7297.222222222223
-0.94,-0.515,7300.0
-0.945,-0.515,7302.777777777777
-0.955,-0.505,7305.555555555556
-0.945,-0.495,7308.333333333333
-0.935,-0.475,7311.111111111111
-0.935,-0.485,7313.888888888889
-0.92,-0.485,7316.666666666667
-0.915,-0.465,7319.444444444444
-0.9,-0.46,7322.222222222223
-0.895,-0.47,7325.0
-0.91,-0.455,7327.777777777777
-0.925,-0.46,7330.555555555556
-0.925,-0.475,7333.333333333333
-0.91,-0.47,7336.111111111111
-0.915,-0.47,7338.888888888889
-0.905,-0.455,7341.666666666667
-0.895,-0.45,7344.444444444444
-0.9,-0.435,7347.222222222223
-0.89,-0.44,7350.0
-0.88,-0.435,7352.777777777777
-0.875,-0.435,7355.555555555556
-0.875,-0.435,7358.333333333333
-0.875,-0.43,7361.111111111111
-0.885,-0.44,7363.888888888889
-0.88,-0.44,7366.666666666667
-0.885,-0.45,7369.444444444444
-0.895,-0.445,7372.222222222223
-0.89,-0.435,7375.0
-0.88,-0.43,7377.777777777777
-0.88,-0.435,7380.555555555556
-0.865,-0.44,7383.333333333333
-0.86,-0.43,7386.111111111111
-0.855,-0.43,7388.888888888889
-0.865,-0.43,7391.666666666667
-0.865,-0.425,7394.444444444444
-0.875,-0.43,7397.222222222223
-0.87,-0.425,7400.0
-0.88,-0.435,7402.777777777777
-0.885,-0.445,7405.555555555556
-0.88,-0.445,7408.333333333333
-0.875,-0.44,7411.111111111111
-0.87,-0.43,7413.888888888889
-0.855,-0.42,7416.666666666667
-0.865,-0.43,7419.444444444444
-0.86,-0.42,7422.222222222223
-0.855,-0.42,7425.0
-0.855,-0.415,7427.777777777777
-0.85,-0.425,7430.555555555556
-0.865,-0.425,7433.333333333333
-0.875,-0.44,7436.111111111111
-0.875,-0.455,7438.888888888889
-0.88,-0.45,7441.666666666667
-0.87,-0.435,7444.444444444444
-0.875,-0.435,7447.222222222223
-0.87,-0.43,7450.0
-0.865,-0.41,7452.777777777777
-0.84,-0.4,7455.555555555556
-0.84,-0.39,7458.333333333333
-0.845,-0.39,7461.111111111111
-0.855,-0.405,7463.888888888889
-0.865,-0.415,7466.666666666667
-0.88,-0.435,7469.444444444444
-0.875,-0.44,7472.222222222223
-0.885,-0.425,7475.0
-0.875,-0.415,7477.777777777777
-0.86,-0.4,7480.555555555556
-0.86,-0.41,7483.333333333333
-0.855,-0.395,7486.111111111111
-0.84,-0.385,7488.888888888889
-0.835,-0.41,7491.666666666667
-0.835,-0.41,7494.444444444444
-0.845,-0.41,7497.222222222223
-0.86,-0.435,7500.0
-0.88,-0.445,7502.777777777777
-0.88,-0.44,7505.555555555556
-0.88,-0.435,7508.333333333333
-0.865,-0.42,7511.111111111111
-0.855,-0.405,7513.888888888889
-0.845,-0.395,7516.666666666667
-0.835,-0.395,7519.444444444444
-0.83,-0.39,7522.222222222223
-0.82,-0.4,7525.0
-0.835,-0.4,7527.777777777777
-0.85,-0.415,7530.555555555556
-0.845,-0.415,7533.333333333333
-0.85,-0.415,7536.111111111111
-0.865,-0.41,7538.888888888889
-0.865,-0.405,7541.666666666667
-0.86,-0.405,7544.444444444444
-0.86,-0.395,7547.222222222223
-0.855,-0.385,7550.0
-0.84,-0.385,7552.777777777777
-0.84,-0.38,7555.555555555556
-0.845,-0.395,7558.333333333333
-0.845,-0.415,7561.111111111111
-0.855,-0.415,7563.888888888889
-0.865,-0.42,7566.666666666667
-0.87,-0.425,7569.444444444444
-0.87,-0.415,7572.222222222223
-0.885,-0.405,7575.0
-0.87,-0.395,7577.777777777777
-0.865,-0.39,7580.555555555556
-0.845,-0.385,7583.333333333333
-0.83,-0.38,7586.111111111111
-0.825,-0.38,7588.888888888889
-0.825,-0.38,7591.666666666667
-0.835,-0.38,7594.444444444444
-0.835,-0.385,7597.222222222223
-0.85,-0.4,7600.0
-0.855,-0.395,7602.777777777777
-0.85,-0.41,7605.555555555556
-0.85,-0.415,7608.333333333333
-0.855,-0.395,7611.111111111111
-0.85,-0.395,7613.888888888889
-0.835,-0.395,7616.666666666667
-0.835,-0.4,7619.444444444444
-0.84,-0.4,7622.222222222223
-0.835,-0.395,7625.0
-0.83,-0.38,7627.777777777777
-0.825,-0.385,7630.555555555556
-0.835,-0.38,7633.333333333333
-0.845,-0.405,7636.111111111111
-0.85,-0.405,7638.888888888889
-0.865,-0.395,7641.666666666667
-0.86,-0.405,7644.444444444444
-0.85,-0.4,7647.222222222223
-0.835,-0.395,7650.0
-0.845,-0.38,7652.777777777777
-0.825,-0.37,7655.555555555556
-0.825,-0.39,7658.333333333333
-0.82,-0.36,7661.111111111111
-0.825,-0.38,7663.888888888889
-0.84,-0.39,7666.666666666667
-0.845,-0.385,7669.444444444444
-0.86,-0.39,7672.222222222223
-0.855,-0.405,7675.0
-0.855,-0.395,7677.777777777777
-0.855,-0.385,7680.555555555556
-0.845,-0.37,7683.333333333333
-0.845,-0.365,7686.111111111111
-0.83,-0.36,7688.888888888889
-0.825,-0.37,7691.666666666667
-0.83,-0.38,7694.444444444444
-0.835,-0.385,7697.222222222223
-0.835,-0.4,7700.0
-0.85,-0.405,7702.777777777777
-0.855,-0.4,7705.555555555556
-0.86,-0.39,7708.333333333333
-0.855,-0.375,7711.111111111111
-0.845,-0.365,7713.888888888889
-0.83,-0.355,7716.666666666667
-0.83,-0.35,7719.444444444444
-0.82,-0.355,7722.222222222223
-0.83,-0.365,7725.0
-0.83,-0.36,7727.777777777777
-0.825,-0.37,7730.555555555556
-0.83,-0.38,7733.333333333333
-0.845,-0.385,7736.111111111111
-0.85,-0.39,7738.888888888889
-0.86,-0.38,7741.666666666667
-0.865,-0.385,7744.444444444444
-0.845,-0.355,7747.222222222223
-0.845,-0.345,7750.0
-0.825,-0.355,7752.777777777777
-0.805,-0.36,7755.555555555556
-0.815,-0.37,7758.333333333333
-0.82,-0.375,7761.111111111111
-0.825,-0.38,7763.888888888889
-0.83,-0.39,7766.666666666667
-0.83,-0.385,7769.444444444444
-0.84,-0.4,7772.222222222223
-0.84,-0.39,7775.0
-0.835,-0.385,7777.777777777777
-0.83,-0.39,7780.555555555556
-0.825,-0.375,7783.333333333333
-0.82,-0.37,7786.111111111111
-0.8,-0.37,7788.888888888889
-0.795,-0.375,7791.666666666667
-0.8,-0.385,7794.444444444444
-0.805,-0.39,7797.222222222223
-0.82,-0.405,7800.0
-0.825,-0.41,7802.777777777777
-0.835,-0.405,7805.555555555556
-0.84,-0.39,7808.333333333333
-0.835,-0.385,7811.111111111111
-0.825,-0.38,7813.888888888889
-0.81,-0.38,7816.666666666667
-0.795,-0.375,7819.444444444444
-0.765,-0.36,7822.222222222223
-0.76,-0.37,7825.0
-0.755,-0.375,7827.777777777777
-0.765,-0.385,7830.555555555556
-0.77,-0.385,7833.333333333333
-0.775,-0.39,7836.111111111111
-0.795,-0.39,7838.888888888889
-0.81,-0.39,7841.666666666667
-0.82,-0.375,7844.444444444444
-0.81,-0.38,7847.222222222223
-0.8,-0.355,7850.0
-0.79,-0.35,7852.777777777777
-0.78,-0.335,7855.555555555556
-0.795,-0.335,7858.333333333333
-0.8,-0.335,7861.111111111111
-0.78,-0.33,7863.888888888889
-0.775,-0.345,7866.666666666667
-0.785,-0.345,7869.444444444444
-0.775,-0.355,7872.222222222223
-0.775,-0.36,7875.0
-0.78,-0.37,7877.777777777777
-0.79,-0.355,7880.555555555556
-0.795,-0.365,7883.333333333333
-0.815,-0.365,7886.111111111111
-0.83,-0.365,7888.888888888889
-0.845,-0.39,7891.666666666667
-0.855,-0.405,7894.444444444444
-0.87,-0.43,7897.222222222223
-0.87,-0.43,7900.0
-0.875,-0.42,7902.777777777777
-0.88,-0.44,7905.555555555556
-0.89,-0.42,7908.333333333333
-0.895,-0.42,7911.111111111111
-0.885,-0.415,7913.888888888889
-0.875,-0.415,7916.666666666667
-0.865,-0.405,7919.444444444444
-0.86,-0.425,7922.222222222223
-0.875,-0.425,7925.0
-0.875,-0.44,7927.777777777777
-0.885,-0.47,7930.555555555556
-0.9,-0.485,7933.333333333333
-0.91,-0.485,7936.111111111111
-0.89,-0.44,7938.888888888889
-0.85,-0.35,7941.666666666667
-0.78,-0.23,7944.444444444444
-0.68,-0.11,7947.222222222223
-0.58,-0.02,7950.0
-0.5,0.035,7952.777777777777
-0.445,0.035,7955.555555555556
-0.42,-0.03,7958.333333333333
-0.435,-0.19,7961.111111111111
-0.505,-0.42,7963.888888888889
-0.64,-0.7,7966.666666666667
-0.795,-0.975,7969.444444444444
-0.955,-1.195,7972.222222222223
-1.04,-1.31,7975.0
-1.04,-1.28,7977.777777777777
-0.91,-1.16,7980.555555555556
-0.72,-0.98,7983.333333333333
-0.47,-0.805,7986.111111111111
-0.215,-0.635,7988.888888888889
0.0,-0.52,7991.666666666667
0.19,-0.435,7994.444444444444
0.39,-0.395,7997.222222222223
0.565,-0.365,8000.0
0.73,-0.355,8002.777777777777
0.855,-0.345,8005.555555555556
0.965,-0.355,8008.333333333333
1.015,-0.375,8011.111111111111
1.01,-0.41,8013.888888888889
0.97,-0.425,8016.666666666667
0.91,-0.42,8019.444444444444
0.81,-0.395,8022.222222222223
0.655,-0.385,8025.0
0.47,-0.38,8027.777777777777
0.285,-0.37,8030.555555555556
0.085,-0.36,8033.333333333333
-0.1,-0.36,8036.111111111111
-0.295,-0.37,8038.888888888889
-0.515,-0.4,8041.666666666667
-0.73,-0.43,8044.444444444444
-0.885,-0.455,8047.222222222223
-0.99,-0.48,8050.0
-1.07,-0.49,8052.777777777777
-1.1,-0.47,8055.555555555556
-1.105,-0.445,8058.333333333333
-1.095,-0.42,8061.111111111111
-1.075,-0.39,8063.888888888889
-1.05,-0.365,8066.666666666667
-1.03,-0.345,8069.444444444444
-1.025,-0.335,8072.222222222223
-1.015,-0.32,8075.0
-1.01,-0.31,8077.777777777777
-1.005,-0.28,8080.555555555556
-0.99,-0.265,8083.333333333333
-0.975,-0.26,8086.111111111111
-0.97,-0.27,8088.888888888889
-0.96,-0.265,8091.666666666667
-0.975,-0.275,8094.444444444444
-0.985,-0.285,8097.222222222223
-1.005,-0.295,8100.0
-1.005,-0.295,8102.777777777777
-1.01,-0.3,8105.555555555556
-1.0,-0.295,8108.333333333333
-1.0,-0.295,8111.111111111111
-1.0,-0.28,8113.888888888889
-0.99,-0.28,8116.666666666667
-0.985,-0.27,8119.444444444444
-0.98,-0.26,8122.222222222223
-0.985,-0.25,8125.0
-0.98,-0.265,8127.777777777777
-0.99,-0.275,8130.555555555556
-1.0,-0.28,8133.333333333333
-1.005,-0.295,8136.111111111111
-1.01,-0.295,8138.888888888889
-1.01,-0.3,8141.666666666667
-1.02,-0.28,8144.444444444444
-1.025,-0.27,8147.222222222223
-1.0,-0.26,8150.0
-1.02,-0.255,8152.777777777777
-1.01,-0.245,8155.555555555556
-0.99,-0.245,8158.333333333333
-1.0,-0.265,8161.111111111111
-1.005,-0.28,8163.888888888889
-1.025,-0.29,8166.666666666667
-1.02,-0.295,8169.444444444444
-1.04,-0.285,8172.222222222223
-1.06,-0.285,8175.0
-1.035,-0.28,8177.777777777777
-1.045,-0.27,8180.555555555556
-1.045,-0.27,8183.333333333333
-1.045,-0.28,8186.111111111111
-1.03,-0.28,8188.888888888889
-1.035,-0.285,8191.666666666667
-1.03,-0.275,8194.444444444445
-1.025,-0.29,8197.222222222223
-1.045,-0.295,8200.0
-1.05,-0.305,8202.777777777777
-1.07,-0.315,8205.555555555555
-1.07,-0.31,8208.333333333334
-1.075,-0.295,8211.111111111111
-1.08,-0.29,8213.888888888889
-1.07,-0.29,8216.666666666666
-1.08,-0.285,8219.444444444445
-1.07,-0.275,8222.222222222223
-1.08,-0.3,8225.0
-1.08,-0.32,8227.777777777777
-1.09,-0.335,8230.555555555555
-1.1,-0.34,8233.333333333334
-1.11,-0.345,8236.111111111111
-1.125,-0.355,8238.888888888889
-1.13,-0.355,8241.666666666666
-1.135,-0.355,8244.444444444445
-1.125,-0.34,8247.222222222223
-1.14,-0.35,8250.0
-1.15,-0.355,8252.777777777777
-1.145,-0.385,8255.555555555555
-1.14,-0.38,8258.333333333334
-1.145,-0.395,8261.111111111111
-1.155,-0.41,8263.888888888889
-1.165,-0.43,8266.666666666666
-1.17,-0.44,8269.444444444445
-1.185,-0.455,8272.222222222223
-1.19,-0.47,8275.0
-1.19,-0.46,8277.777777777777
-1.2,-0.465,8280.555555555555
-1.195,-0.47,8283.333333333334
-1.19,-0.475,8286.111111111111
-1.195,-0.485,8288.888888888889
-1.2,-0.5,8291.666666666666
-1.2,-0.515,8294.444444444445
-1.2,-0.54,8297.222222222223
-1.21,-0.545,8300.0
-1.225,-0.57,8302.777777777777
-1.22,-0.565,8305.555555555555
-1.225,-0.58,8308.333333333334
-1.225,-0.58,8311.111111111111
-1.215,-0.58,8313.888888888889
-1.205,-0.59,8316.666666666666
-1.19,-0.595,8319.444444444445
-1.185,-0.6,8322.222222222223
-1.17,-0.6,8325.0
-1.175,-0.62,8327.777777777777
-1.17,-0.64,8330.555555555555
-1.165,-0.645,8333.333333333334
-1.165,-0.655,8336.111111111111
-1.155,-0.65,8338.888888888889
-1.14,-0.65,8341.666666666666
-1.125,-0.64,8344.444444444445
-1.11,-0.65,8347.222222222223
-1.095,-0.64,8350.0
-1.08,-0.64,8352.777777777777
-1.045,-0.63,8355.555555555555
-1.03,-0.64,8358.333333333334
-1.02,-0.64,8361.111111111111
-1.01,-0.655,8363.888888888889
-1.0,-0.665,8366.666666666666
-0.985,-0.655,8369.444444444445
-0.975,-0.66,8372.222222222223
-0.96,-0.655,8375.0
-0.94,-0.66,8377.777777777777
-0.93,-0.63,8380.555555555555
-0.905,-0.625,8383.333333333334
-0.905,-0.62,8386.111111111111
-0.885,-0.605,8388.888888888889
-0.88,-0.61,8391.666666666666
-0.86,-0.61,8394.444444444445
-0.855,-0.605,8397.222222222223
-0.855,-0.62,8400.0
-0.86,-0.62,8402.777777777777
-0.855,-0.61,8405.555555555555
-0.85,-0.605,8408.333333333334
-0.85,-0.595,8411.111111111111
-0.85,-0.58,8413.888888888889
-0.84,-0.57,8416.666666666666
-0.84,-0.555,8419.444444444445
-0.82,-0.555,8422.222222222223
-0.84,-0.57,8425.0
-0.845,-0.57,8427.777777777777
-0.865,-0.58,8430.555555555555
-0.88,-0.575,8433.333333333334
-0.89,-0.585,8436.111111111111
-0.905,-0.6,8438.888888888889
-0.915,-0.585,8441.666666666666
-0.925,-0.585,8444.444444444445
-0.925,-0.565,8447.222222222223
-0.93,-0.56,8450.0
-0.935,-0.55,8452.777777777777
-0.94,-0.545,8455.555555555555
-0.95,-0.55,8458.333333333334
-0.97,-0.565,8461.111111111111
-0.975,-0.565,8463.888888888889
-0.99,-0.585,8466.666666666666
-1.0,-0.575,8469.444444444445
-1.025,-0.58,8472.222222222223
-1.02,-0.575,8475.0
-1.02,-0.57,8477.777777777777
-1.025,-0.555,8480.555555555555
-1.02,-0.56,8483.333333333334
-1.015,-0.555,8486.111111111111
-1.005,-0.55,8488.888888888889
-1.015,-0.55,8491.666666666666
-1.025,-0.545,8494.444444444445
-1.025,-0.57,8497.222222222223
-1.035,-0.585,8500.0
-1.04,-0.585,8502.777777777777
-1.045,-0.57,8505.555555555555
-1.045,-0.58,8508.333333333334
-1.05,-0.565,8511.111111111111
-1.045,-0.555,8513.888888888889
-1.025,-0.57,8516.666666666666
-1.025,-0.56,8519.444444444445
-1.015,-0.555,8522.222222222223
-1.02,-0.555,8525.0
-1.02,-0.555,8527.777777777777
-1.02,-0.575,8530.555555555555
-1.01,-0.57,8533.333333333334
-1.025,-0.575,8536.111111111111
-1.025,-0.57,8538.888888888889
-1.025,-0.56,8541.666666666666
-1.02,-0.555,8544.444444444445
-1.01,-0.545,8547.222222222223
-1.005,-0.535,8550.0
-0.99,-0.54,8552.777777777777
-0.98,-0.53,8555.555555555555
-0.98,-0.515,8558.333333333334
-0.985,-0.52,8561.111111111111
-0.995,-0.54,8563.888888888889
-1.005,-0.53,8566.666666666666
-0.995,-0.535,8569.444444444445
-1.01,-0.545,8572.222222222223
-0.99,-0.54,8575.0
-0.99,-0.535,8577.777777777777
-1.0,-0.525,8580.555555555555
-0.985,-0.53,8583.333333333334
-0.99,-0.53,8586.111111111111
-0.975,-0.515,8588.888888888889
-0.97,-0.52,8591.666666666666
-0.975,-0.515,8594.444444444445
-0.98,-0.52,8597.222222222223
-0.98,-0.535,8600.0
-0.985,-0.54,8602.777777777777
-0.985,-0.55,8605.555555555555
-0.99,-0.545,8608.333333333334
-0.995,-0.53,8611.111111111111
-0.98,-0.535,8613.888888888889
-0.975,-0.52,8616.666666666666
-0.965,-0.51,8619.444444444445
-0.96,-0.505,8622.222222222223
-0.96,-0.51,8625.0
-0.965,-0.505,8627.777777777777
-0.97,-0.525,8630.555555555555
-0.98,-0.54,8633.333333333334
-0.985,-0.55,8636.111111111111
-0.995,-0.55,8638.888888888889
-0.995,-0.545,8641.666666666666
-1.0,-0.535,8644.444444444445
-0.98,-0.525,8647.222222222223
-0.97,-0.53,8650.0
-0.965,-0.52,8652.777777777777
-0.955,-0.51,8655.555555555555
-0.95,-0.515,8658.333333333334
-0.97,-0.52,8661.111111111111
-0.975,-0.53,8663.888888888889
-0.97,-0.535,8666.666666666666
-1.0,-0.54,8669.444444444445
-0.985,-0.555,8672.222222222223
-0.985,-0.55,8675.0
-0.99,-0.545,8677.777777777777
-0.985,-0.53,8680.555555555555
-0.97,-0.52,8683.333333333334
-0.965,-0.51,8686.111111111111
-0.95,-0.515,8688.888888888889
-0.96,-0.515,8691.666666666666
-0.955,-0.535,8694.444444444445
-0.965,-0.53,8697.222222222223
-0.97,-0.54,8700.0
-0.985,-0.545,8702.777777777777
-0.985,-0.54,8705.555555555555
-0.98,-0.55,8708.333333333334
-0.995,-0.54,8711.111111111111
-0.97,-0.53,8713.888888888889
-0.96,-0.54,8716.666666666666
-0.96,-0.515,8719.444444444445
-0.96,-0.52,8722.222222222223
-0.965,-0.515,8725.0
-0.98,-0.535,8727.777777777777
-0.975,-0.535,8730.555555555555
-0.975,-0.545,8733.333333333334
-0.98,-0.56,8736.111111111111
-0.98,-0.555,8738.888888888889
-0.98,-0.545,8741.666666666666
-0.975,-0.54,8744.444444444445
-0.985,-0.535,8747.222222222223
-0.98,-0.53,8750.0
-0.97,-0.53,8752.777777777777
-0.965,-0.53,8755.555555555555
-0.955,-0.525,8758.333333333334
-0.96,-0.53,8761.111111111111
-0.97,-0.545,8763.888888888889
-0.975,-0.54,8766.666666666666
-0.98,-0.555,8769.444444444445
-0.98,-0.56,8772.222222222223
-0.98,-0.55,8775.0
-0.98,-0.54,8777.777777777777
-0.98,-0.545,8780.555555555555
-0.97,-0.545,8783.333333333334
-0.965,-0.53,8786.111111111111
-0.96,-0.535,8788.888888888889
-0.96,-0.545,8791.666666666666
-0.96,-0.555,8794.444444444445
-0.97,-0.545,8797.222222222223
-0.975,-0.555,8800.0
-0.975,-0.56,8802.777777777777
-0.985,-0.56,8805.555555555555
-0.995,-0.565,8808.333333333334
-0.98,-0.555,8811.111111111111
-0.975,-0.555,8813.888888888889
-0.985,-0.54,8816.666666666666
-0.975,-0.54,8819.444444444445
-0.965,-0.54,8822.222222222223
-0.96,-0.54,8825.0
-0.965,-0.55,8827.777777777777
-0.98,-0.555,8830.555555555555
-0.975,-0.55,8833.333333333334
-0.99,-0.56,8836.111111111111
-1.0,-0.565,8838.888888888889
-1.0,-0.565,8841.666666666666
-0.97,-0.57,8844.444444444445
-0.975,-0.56,8847.222222222223
-0.975,-0.545,8850.0
-0.955,-0.54,8852.777777777777
-0.96,-0.525,8855.555555555555
-0.955,-0.53,8858.333333333334
-0.97,-0.53,8861.111111111111
-0.975,-0.545,8863.888888888889
-0.985,-0.53,8866.666666666666
-0.995,-0.555,8869.444444444445
-0.995,-0.56,8872.222222222223
-0.995,-0.57,8875.0
-1.005,-0.56,8877.777777777777
-0.985,-0.545,8880.555555555555
-0.98,-0.53,8883.333333333334
-0.975,-0.535,8886.111111111111
-0.955,-0.52,8888.888888888889
-0.95,-0.525,8891.666666666666
-0.97,-0.545,8894.444444444445
-0.97,-0.55,8897.222222222223
-0.97,-0.55,8900.0
-0.98,-0.56,8902.777777777777
-0.985,-0.565,8905.555555555555
-0.98,-0.565,8908.333333333334
-0.99,-0.55,8911.111111111111
-0.97,-0.535,8913.888888888889
-0.965,-0.535,8916.666666666666
-0.96,-0.525,8919.444444444445
-0.95,-0.525,8922.222222222223
-0.955,-0.535,8925.0
-0.955,-0.535,8927.777777777777
-0.96,-0.545,8930.555555555555
-0.97,-0.555,8933.333333333334
-0.975,-0.555,8936.111111111111
-0.985,-0.555,8938.888888888889
-0.985,-0.55,8941.666666666666
-0.97,-0.555,8944.444444444445
-0.97,-0.54,8947.222222222223
-0.97,-0.53,8950.0
-0.955,-0.52,8952.777777777777
-0.945,-0.53,8955.555555555555
-0.94,-0.54,8958.333333333334
-0.945,-0.555,8961.111111111111
-0.95,-0.555,8963.888888888889
-0.95,-0.56,8966.666666666666
-0.965,-0.565,8969.444444444445
-0.96,-0.565,8972.222222222223
-0.965,-0.56,8975.0
-0.95,-0.55,8977.777777777777
-0.96,-0.555,8980.555555555555
-0.96,-0.545,8983.333333333334
-0.95,-0.545,8986.111111111111
-0.935,-0.53,8988.888888888889
-0.925,-0.535,8991.666666666666
-0.92,-0.525,8994.444444444445
-0.925,-0.535,8997.222222222223
-0.92,-0.535,9000.0
-0.915,-0.535,9002.777777777777
-0.915,-0.54,9005.555555555555
-0.91,-0.545,9008.333333333334
-0.91,-0.53,9011.111111111111
-0.905,-0.54,9013.888888888889
-0.905,-0.535,9016.666666666666
-0.905,-0.53,9019.444444444445
-0.9,-0.525,9022.222222222223
-0.9,-0.535,9025.0
-0.91,-0.535,9027.777777777777
-0.93,-0.54,9030.555555555555
-0.94,-0.54,9033.333333333334
-0.94,-0.54,9036.111111111111
-0.955,-0.53,9038.888888888889
-0.96,-0.535,9041.666666666666
-0.945,-0.535,9044.444444444445
-0.935,-0.51,9047.222222222223
-0.915,-0.495,9050.0
-0.9,-0.485,9052.777777777777
-0.87,-0.485,9055.555555555555
-0.865,-0.47,9058.333333333334
-0.87,-0.49,9061.111111111111
-0.89,-0.49,9063.888888888889
-0.89,-0.52,9066.666666666666
-0.91,-0.52,9069.444444444445
-0.94,-0.55,9072.222222222223
-0.965,-0.555,9075.0
-0.98,-0.555,9077.777777777777
-0.985,-0.55,9080.555555555555
-0.99,-0.57,9083.333333333334
-1.0,-0.56,9086.111111111111
-0.985,-0.555,9088.888888888889
-0.985,-0.565,9091.666666666666
-0.995,-0.565,9094.444444444445
-0.98,-0.57,9097.222222222223
-0.995,-0.57,9100.0
-0.99,-0.595,9102.777777777777
-0.995,-0.595,9105.555555555555
-1.01,-0.615,9108.333333333334
-1.015,-0.625,9111.111111111111
-1.025,-0.63,9113.888888888889
-1.025,-0.61,9116.666666666666
-1.005,-0.56,9119.444444444445
-0.95,-0.455,9122.222222222223
-0.88,-0.35,9125.0
-0.77,-0.25,9127.777777777777
-0.69,-0.19,9130.555555555555
-0.635,-0.19,9133.333333333334
-0.59,-0.25,9136.111111111111
-0.605,-0.41,9138.888888888889
-0.655,-0.655,9141.666666666666
-0.79,-0.945,9144.444444444445
-0.93,-1.185,9147.222222222223
-1.015,-1.31,9150.0
-1.01,-1.275,9152.777777777777
-0.88,-1.125,9155.555555555555
-0.665,-0.89,9158.333333333334
-0.39,-0.665,9161.111111111111
-0.105,-0.465,9163.888888888889
0.165,-0.33,9166.666666666666
0.435,-0.225,9169.444444444445
0.66,-0.19,9172.222222222223
0.855,-0.16,9175.0
1.035,-0.15,9177.777777777777
1.165,-0.16,9180.555555555555
1.25,-0.2,9183.333333333334
1.26,-0.29,9186.111111111111
1.21,-0.385,9188.888888888889
1.115,-0.48,9191.666666666666
0.955,-0.535,9194.444444444445
0.75,-0.585,9197.222222222223
0.51,-0.595,9200.0
0.26,-0.58,9202.777777777777
0.015,-0.55,9205.555555555555
-0.22,-0.51,9208.333333333334
-0.44,-0.495,9211.111111111111
-0.66,-0.515,9213.888888888889
-0.85,-0.54,9216.666666666666
-1.005,-0.6,9219.444444444445
-1.125,-0.64,9222.222222222223
-1.205,-0.645,9225.0
-1.245,-0.65,9227.777777777777
-1.25,-0.61,9230.555555555555
-1.255,-0.6,9233.333333333334
-1.25,-0.565,9236.111111111111
-1.225,-0.53,9238.888888888889
-1.205,-0.515,9241.666666666666
-1.185,-0.495,9244.444444444445
-1.165,-0.47,9247.222222222223
-1.145,-0.445,9250.0
-1.125,-0.435,9252.777777777777
-1.11,-0.415,9255.555555555555
-1.1,-0.415,9258.333333333334
-1.105,-0.42,9261.111111111111
-1.115,-0.42,9263.888888888889
-1.13,-0.425,9266.666666666666
-1.15,-0.425,9269.444444444445
-1.15,-0.425,9272.222222222223
-1.155,-0.43,9275.0
-1.145,-0.41,9277.777777777777
-1.14,-0.405,9280.555555555555
-1.135,-0.405,9283.333333333334
-1.14,-0.4,9286.111111111111
-1.13,-0.38,9288.888888888889
-1.12,-0.395,9291.666666666666
-1.115,-0.39,9294.444444444445
-1.125,-0.395,9297.222222222223
-1.14,-0.405,9300.0
-1.135,-0.405,9302.777777777777
-1.16,-0.405,9305.555555555555
-1.165,-0.41,9308.333333333334
-1.17,-0.4,9311.111111111111
-1.15,-0.4,9313.888888888889
-1.15,-0.375,9316.666666666666
-1.14,-0.375,9319.444444444445
-1.13,-0.365,9322.222222222223
-1.135,-0.37,9325.0
-1.14,-0.375,9327.777777777777
-1.14,-0.39,9330.555555555555
-1.155,-0.405,9333.333333333334
-1.165,-0.415,9336.111111111111
-1.17,-0.42,9338.888888888889
-1.175,-0.41,9341.666666666666
-1.175,-0.405,9344.444444444445
-1.175,-0.39,9347.222222222223
-1.17,-0.395,9350.0
-1.15,-0.39,9352.777777777777
-1.145,-0.375,9355.555555555555
-1.15,-0.39,9358.333333333334
-1.16,-0.395,9361.111111111111
-1.165,-0.415,9363.888888888889
-1.18,-0.425,9366.666666666666
-1.18,-0.435,9369.444444444445
-1.185,-0.445,9372.222222222223
-1.2,-0.44,9375.0
-1.205,-0.44,9377.777777777777
-1.205,-0.43,9380.555555555555
-1.195,-0.43,9383.333333333334
-1.205,-0.415,9386.111111111111
-1.19,-0.415,9388.888888888889
-1.19,-0.43,9391.666666666666
-1.2,-0.445,9394.444444444445
-1.205,-0.46,9397.222222222223
-1.215,-0.465,9400.0
-1.235,-0.47,9402.777777777777
-1.25,-0.485,9405.555555555555
-1.245,-0.495,9408.333333333334
-1.265,-0.48,9411.111111111111
-1.245,-0.48,9413.888888888889
-1.255,-0.485,9416.666666666666
-1.255,-0.485,9419.444444444445
-1.25,-0.475,9422.222222222223
-1.25,-0.49,9425.0
-1.245,-0.5,9427.777777777777
-1.265,-0.525,9430.555555555555
-1.275,-0.53,9433.333333333334
-1.275,-0.535,9436.111111111111
-1.3,-0.555,9438.888888888889
-1.3,-0.565,9441.666666666666
-1.3,-0.565,9444.444444444445
-1.305,-0.56,9447.222222222223
-1.305,-0.555,9450.0
-1.295,-0.56,9452.777777777777
-1.295,-0.575,9455.555555555555
-1.305,-0.585,9458.333333333334
-1.295,-0.59,9461.111111111111
-1.3,-0.61,9463.888888888889
-1.31,-0.625,9466.666666666666
-1.31,-0.635,9469.444444444445
-1.315,-0.64,9472.222222222223
-1.315,-0.645,9475.0
-1.31,-0.635,9477.777777777777
-1.3,-0.64,9480.555555555555
-1.295,-0.64,9483.333333333334
-1.28,-0.625,9486.111111111111
-1.27,-0.625,9488.888888888889
-1.25,-0.64,9491.666666666666
-1.225,-0.655,9494.444444444445
-1.23,-0.655,9497.222222222223
-1.205,-0.665,9500.0
-1.21,-0.665,9502.777777777777
-1.19,-0.665,9505.555555555555
-1.17,-0.66,9508.333333333334
-1.17,-0.66,9511.111111111111
-1.15,-0.645,9513.888888888889
-1.12,-0.63,9516.666666666666
-1.115,-0.615,9519.444444444445
-1.08,-0.605,9522.222222222223
-1.07,-0.605,9525.0
-1.055,-0.61,9527.777777777777
-1.05,-0.615,9530.555555555555
-1.035,-0.62,9533.333333333334
-1.02,-0.625,9536.111111111111
-1.015,-0.62,9538.888888888889
-1.005,-0.63,9541.666666666666
-1.01,-0.62,9544.444444444445
-0.985,-0.615,9547.222222222223
-0.975,-0.59,9550.0
-0.96,-0.59,9552.777777777777
-0.935,-0.59,9555.555555555555
-0.93,-0.585,9558.333333333334
-0.94,-0.6,9561.111111111111
-0.935,-0.605,9563.888888888889
-0.935,-0.61,9566.666666666666
-0.94,-0.615,9569.444444444445
-0.95,-0.625,9572.222222222223
-0.95,-0.62,9575.0
-0.965,-0.61,9577.777777777777
-0.96,-0.605,9580.555555555555
-0.97,-0.605,9583.333333333334
-0.97,-0.61,9586.111111111111
-0.965,-0.61,9588.888888888889
-0.975,-0.625,9591.666666666666
-0.99,-0.63,9594.444444444445
-0.99,-0.645,9597.222222222223
-1.015,-0.64,9600.0
-1.025,-0.655,9602.777777777777
-1.045,-0.65,9605.555555555555
-1.06,-0.645,9608.333333333334
-1.06,-0.635,9611.111111111111
-1.065,-0.625,9613.888888888889
-1.075,-0.62,9616.666666666666
-1.07,-0.625,9619.444444444445
-1.075,-0.63,9622.222222222223
-1.075,-0.63,9625.0
-1.095,-0.63,9627.777777777777
-1.09,-0.645,9630.555555555555
-1.095,-0.66,9633.333333333334
-1.12,-0.655,9636.111111111111
-1.125,-0.655,9638.888888888889
-1.125,-0.66,9641.666666666666
-1.125,-0.65,9644.444444444445
-1.13,-0.64,9647.222222222223
-1.125,-0.63,9650.0
-1.13,-0.63,9652.777777777777
-1.12,-0.62,9655.555555555555
-1.115,-0.62,9658.333333333334
-1.12,-0.615,9661.111111111111
-1.115,-0.615,9663.888888888889
-1.125,-0.635,9666.666666666666
-1.125,-0.635,9669.444444444445
-1.135,-0.645,9672.222222222223
-1.14,-0.645,9675.0
-1.135,-0.645,9677.777777777777
-1.13,-0.615,9680.555555555555
-1.12,-0.62,9683.333333333334
-1.115,-0.605,9686.111111111111
-1.105,-0.605,9688.888888888889
-1.105,-0.605,9691.666666666666
-1.11,-0.605,9694.444444444445
-1.1,-0.61,9697.222222222223
-1.1,-0.61,9700.0
-1.095,-0.625,9702.777777777777
-1.095,-0.63,9705.555555555555
-1.09,-0.61,9708.333333333334
-1.085,-0.59,9711.111111111111
-1.075,-0.58,9713.888888888889
-1.065,-0.565,9716.666666666666
-1.055,-0.57,9719.444444444445
-1.055,-0.57,9722.222222222223
-1.06,-0.565,9725.0
-1.07,-0.58,9727.777777777777
-1.045,-0.585,9730.555555555555
-1.06,-0.585,9733.333333333334
-1.065,-0.595,9736.111111111111
-1.06,-0.59,9738.888888888889
-1.06,-0.575,9741.666666666666
-1.065,-0.565,9744.444444444445
-1.05,-0.54,9747.222222222223
-1.04,-0.545,9750.0
-1.035,-0.535,9752.777777777777
-1.03,-0.53,9755.555555555555
-1.025,-0.545,9758.333333333334
-1.025,-0.555,9761.111111111111
-1.025,-0.57,9763.888888888889
-1.03,-0.565,9766.666666666666
-1.03,-0.57,9769.444444444445
-1.05,-0.565,9772.222222222223
-1.05,-0.55,9775.0
-1.05,-0.56,9777.777777777777
-1.045,-0.545,9780.555555555555
-1.03,-0.535,9783.333333333334
-1.03,-0.54,9786.111111111111
-1.02,-0.525,9788.888888888889
-1.02,-0.525,9791.666666666666
-1.02,-0.545,9794.444444444445
-1.03,-0.545,9797.222222222223
-1.04,-0.545,9800.0
-1.03,-0.56,9802.777777777777
-1.04,-0.55,9805.555555555555
-1.045,-0.555,9808.333333333334
-1.04,-0.555,9811.111111111111
-1.04,-0.545,9813.888888888889
-1.03,-0.52,9816.666666666666
-1.025,-0.51,9819.444444444445
-1.01,-0.5,9822.222222222223
-1.0,-0.515,9825.0
-1.0,-0.51,9827.777777777777
-1.005,-0.515,9830.555555555555
-1.015,-0.53,9833.333333333334
-1.025,-0.54,9836.111111111111
-1.03,-0.545,9838.888888888889
-1.035,-0.54,9841.666666666666
-1.03,-0.53,9844.444444444445
-1.025,-0.52,9847.222222222223
-1.015,-0.51,9850.0
-1.01,-0.5,9852.777777777777
-1.0,-0.49,9855.555555555555
-0.99,-0.5,9858.333333333334
-0.995,-0.505,9861.111111111111
-0.995,-0.5,9863.888888888889
-1.005,-0.515,9866.666666666666
-1.01,-0.53,9869.444444444445
-1.01,-0.525,9872.222222222223
-1.015,-0.535,9875.0
-1.025,-0.54,9877.777777777777
-1.015,-0.53,9880.555555555555
-1.005,-0.52,9883.333333333334
-1.01,-0.505,9886.111111111111
-1.0,-0.5,9888.888888888889
-1.005,-0.49,9891.666666666666
-1.0,-0.495,9894.444444444445
-1.015,-0.51,9897.222222222223
-1.035,-0.51,9900.0
-1.025,-0.525,9902.777777777777
-1.035,-0.545,9905.555555555555
-1.03,-0.55,9908.333333333334
-1.01,-0.53,9911.111111111111
-1.01,-0.53,9913.888888888889
-1.02,-0.505,9916.666666666666
-1.015,-0.51,9919.444444444445
-0.995,-0.505,9922.222222222223
-0.98,-0.51,9925.0
-0.98,-0.51,9927.777777777777
-0.98,-0.53,9930.555555555555
-0.995,-0.54,9933.333333333334
-1.0,-0.535,9936.111111111111
-1.0,-0.545,9938.888888888889
-1.005,-0.54,9941.666666666666
-1.005,-0.525,9944.444444444445
-1.0,-0.52,9947.222222222223
-0.985,-0.52,9950.0
-0.98,-0.525,9952.777777777777
-0.975,-0.505,9955.555555555555
-0.975,-0.53,9958.333333333334
-0.97,-0.515,9961.111111111111
-0.98,-0.53,9963.888888888889
-0.99,-0.545,9966.666666666666
-1.0,-0.54,9969.444444444445
-0.995,-0.545,9972.222222222223
-1.0,-0.545,9975.0
-1.0,-0.535,9977.777777777777
-0.99,-0.525,9980.555555555555
-0.985,-0.52,9983.333333333334
-0.97,-0.52,9986.111111111111
-0.955,-0.51,9988.888888888889
-0.97,-0.52,9991.666666666666
-0.97,-0.515,9994.444444444445
-0.97,-0.525,9997.222222222223
-0.985,-0.525,10000.0
-0.985,-0.55,10002.777777777777
-0.98,-0.535,10005.555555555555
-0.99,-0.525,10008.333333333334
-0.985,-0.52,10011.111111111111
-0.985,-0.515,10013.888888888889
-0.975,-0.51,10016.666666666666
-0.965,-0.49,10019.444444444445
-0.965,-0.495,10022.222222222223
-0.955,-0.495,10025.0
-0.965,-0.515,10027.777777777777
-0.965,-0.52,10030.555555555555
-0.97,-0.535,10033.333333333334
-0.98,-0.55,10036.111111111111
-0.975,-0.535,10038.888888888889
-0.985,-0.545,10041.666666666666
-0.985,-0.535,10044.444444444445
-0.975,-0.52,10047.222222222223
-0.97,-0.52,10050.0
-0.965,-0.505,10052.777777777777
-0.95,-0.495,10055.555555555555
-0.95,-0.505,10058.333333333334
-0.95,-0.51,10061.111111111111
-0.96,-0.525,10063.888888888889
-0.97,-0.54,10066.666666666666
-0.97,-0.54,10069.444444444445
-0.98,-0.54,10072.222222222223
-0.965,-0.53,10075.0
-0.975,-0.53,10077.777777777777
-0.965,-0.515,10080.555555555555
-0.96,-0.495,10083.333333333334
-0.95,-0.485,10086.111111111111
-0.95,-0.485,10088.888888888889
-0.95,-0.5,10091.666666666666
-0.955,-0.495,10094.444444444445
-0.95,-0.51,10097.222222222223
-0.96,-0.52,10100.0
-0.97,-0.525,10102.777777777777
-0.965,-0.52,10105.555555555555
-0.96,-0.53,10108.333333333334
-0.96,-0.515,10111.111111111111
-0.955,-0.51,10113.888888888889
-0.955,-0.5,10116.666666666666
-0.955,-0.515,10119.444444444445
-0.95,-0.5,10122.222222222223
-0.94,-0.51,10125.0
-0.935,-0.5,10127.777777777777
-0.945,-0.51,10130.555555555555
-0.945,-0.505,10133.333333333334
-0.95,-0.51,10136.111111111111
-0.96,-0.505,10138.888888888889
-0.95,-0.515,10141.666666666666
-0.96,-0.52,10144.444444444445
-0.955,-0.51,10147.222222222223
-0.96,-0.515,10150.0
-0.945,-0.505,10152.777777777777
-0.93,-0.5,10155.555555555555
-0.935,-0.515,10158.333333333334
-0.925,-0.52,10161.111111111111
-0.93,-0.525,10163.888888888889
-0.93,-0.51,10166.666666666666
-0.925,-0.53,10169.444444444445
-0.93,-0.53,10172.222222222223
-0.93,-0.525,10175.0
-0.925,-0.52,10177.777777777777
-0.925,-0.53,10180.555555555555
-0.92,-0.52,10183.333333333334
-0.925,-0.505,10186.111111111111
-0.915,-0.505,10188.888888888889
-0.92,-0.51,10191.666666666666
-0.915,-0.5,10194.444444444445
-0.89,-0.505,10197.222222222223
-0.9,-0.505,10200.0
-0.885,-0.52,10202.777777777777
-0.895,-0.52,10205.555555555555
-0.885,-0.515,10208.333333333334
-0.875,-0.51,10211.111111111111
-0.875,-0.515,10213.888888888889
-0.86,-0.505,10216.666666666666
-0.855,-0.5,10219.444444444445
-0.865,-0.48,10222.222222222223
-0.86,-0.49,10225.0
-0.885,-0.5,10227.777777777777
-0.885,-0.495,10230.555555555555
-0.89,-0.495,10233.333333333334
-0.895,-0.49,10236.111111111111
-0.9,-0.49,10238.888888888889
-0.905,-0.485,10241.666666666666
-0.9,-0.475,10244.444444444445
-0.895,-0.475,10247.222222222223
-0.885,-0.465,10250.0
-0.86,-0.45,10252.777777777777
-0.85,-0.445,10255.555555555555
-0.835,-0.44,10258.333333333334
-0.83,-0.445,10261.111111111111
-0.835,-0.45,10263.888888888889
-0.865,-0.465,10266.666666666666
-0.87,-0.47,10269.444444444445
-0.885,-0.49,10272.222222222223
-0.9,-0.49,10275.0
-0.91,-0.49,10277.777777777777
-0.93,-0.495,10280.555555555555
-0.94,-0.51,10283.333333333334
-0.94,-0.505,10286.111111111111
-0.935,-0.485,10288.888888888889
-0.93,-0.475,10291.666666666666
-0.96,-0.49,10294.444444444445
-0.96,-0.515,10297.222222222223
-0.965,-0.515,10300.0
-0.96,-0.525,10302.777777777777
-0.97,-0.53,10305.555555555555
-0.955,-0.535,10308.333333333334
-0.965,-0.525,10311.111111111111
-0.95,-0.53,10313.888888888889
-0.935,-0.53,10316.666666666666
-0.935,-0.535,10319.444444444445
-0.945,-0.55,10322.222222222223
-0.945,-0.575,10325.0
-0.96,-0.565,10327.777777777777
-0.95,-0.53,10330.555555555555
-0.92,-0.445,10333.333333333334
-0.86,-0.335,10336.111111111111
-0.78,-0.215,10338.888888888889
-0.685,-0.13,10341.666666666666
-0.6,-0.095,10344.444444444445
-0.535,-0.105,10347.222222222223
-0.5,-0.215,10350.0
-0.535,-0.435,10352.777777777777
-0.64,-0.715,10355.555555555555
-0.81,-1.04,10358.333333333334
-0.97,-1.285,10361.111111111111
-1.07,-1.39,10363.888888888889
-1.035,-1.34,10366.666666666666
-0.915,-1.17,10369.444444444445
-0.705,-0.98,10372.222222222223
-0.43,-0.785,10375.0
-0.155,-0.615,10377.777777777777
0.09,-0.5,10380.555555555555
0.33,-0.43,10383.333333333334
0.53,-0.415,10386.111111111111
0.71,-0.41,10388.888888888889
0.85,-0.405,10391.666666666666
0.935,-0.425,10394.444444444445
0.985,-0.46,10397.222222222223
0.98,-0.505,10400.0
0.945,-0.535,10402.777777777777
0.86,-0.525,10405.555555555555
0.75,-0.51,10408.333333333334
0.605,-0.485,10411.111111111111
0.405,-0.465,10413.888888888889
0.205,-0.43,10416.666666666666
0.015,-0.425,10419.444444444445
-0.19,-0.42,10422.222222222223
-0.4,-0.435,10425.0
-0.65,-0.485,10427.777777777777
-0.825,-0.525,10430.555555555555
-0.985,-0.565,10433.333333333334
-1.1,-0.595,10436.111111111111
-1.165,-0.595,10438.888888888889
-1.19,-0.575,10441.666666666666
-1.175,-0.525,10444.444444444445
-1.135,-0.48,10447.222222222223
-1.095,-0.445,10450.0
-1.065,-0.425,10452.777777777777
-1.04,-0.4,10455.555555555555
-1.02,-0.4,10458.333333333334
-1.02,-0.39,10461.111111111111
-1.015,-0.38,10463.888888888889
-1.015,-0.38,10466.666666666666
-1.04,-0.375,10469.444444444445
-1.04,-0.38,10472.222222222223
-1.05,-0.375,10475.0
-1.06,-0.375,10477.777777777777
-1.05,-0.355,10480.555555555555
-1.025,-0.34,10483.333333333334
-1.02,-0.355,10486.111111111111
-1.01,-0.35,10488.888888888889
-1.005,-0.34,10491.666666666666
-1.01,-0.34,10494.444444444445
-1.015,-0.345,10497.222222222223
-1.03,-0.345,10500.0
-1.04,-0.355,10502.777777777777
-1.035,-0.335,10505.555555555555
-1.04,-0.35,10508.333333333334
-1.035,-0.35,10511.111111111111
-1.03,-0.35,10513.888888888889
-1.03,-0.34,10516.666666666666
-1.03,-0.325,10519.444444444445
-1.02,-0.32,10522.222222222223
-1.005,-0.32,10525.0
-1.025,-0.32,10527.777777777777
-1.02,-0.33,10530.555555555555
-1.03,-0.345,10533.333333333334
-1.04,-0.355,10536.111111111111
-1.05,-0.35,10538.888888888889
-1.055,-0.365,10541.666666666666
-1.055,-0.35,10544.444444444445
-1.055,-0.335,10547.222222222223
-1.045,-0.34,10550.0
-1.055,-0.325,10552.777777777777
-1.05,-0.325,10555.555555555555
-1.045,-0.33,10558.333333333334
-1.045,-0.335,10561.111111111111
-1.055,-0.345,10563.888888888889
-1.06,-0.35,10566.666666666666
-1.07,-0.36,10569.444444444445
-1.08,-0.36,10572.222222222223
-1.075,-0.375,10575.0
-1.085,-0.375,10577.777777777777
-1.085,-0.375,10580.555555555555
-1.08,-0.375,10583.333333333334
-1.075,-0.365,10586.111111111111
-1.075,-0.375,10588.888888888889
-1.07,-0.375,10591.666666666666
-1.085,-0.39,10594.444444444445
-1.095,-0.405,10597.222222222223
-1.125,-0.42,10600.0
-1.145,-0.41,10602.777777777777
-1.135,-0.435,10605.555555555555
-1.135,-0.425,10608.333333333334
-1.135,-0.425,10611.111111111111
-1.145,-0.43,10613.888888888889
-1.145,-0.43,10616.666666666666
-1.14,-0.43,10619.444444444445
-1.15,-0.435,10622.222222222223
-1.14,-0.455,10625.0
-1.16,-0.46,10627.777777777777
-1.155,-0.47,10630.555555555555
-1.165,-0.5,10633.333333333334
-1.17,-0.51,10636.111111111111
-1.19,-0.515,10638.888888888889
-1.195,-0.52,10641.666666666666
-1.195,-0.525,10644.444444444445
-1.195,-0.525,10647.222222222223
-1.2,-0.53,10650.0
-1.19,-0.54,10652.777777777777
-1.19,-0.535,10655.555555555555
-1.2,-0.56,10658.333333333334
-1.21,-0.575,10661.111111111111
-1.225,-0.59,10663.888888888889
-1.215,-0.6,10666.666666666666
-1.22,-0.61,10669.444444444445
-1.24,-0.625,10672.222222222223
-1.235,-0.625,10675.0
-1.23,-0.62,10677.777777777777
-1.225,-0.62,10680.555555555555
-1.22,-0.625,10683.333333333334
-1.205,-0.635,10686.111111111111
-1.2,-0.645,10688.888888888889
-1.185,-0.655,10691.666666666666
-1.18,-0.665,10694.444444444445
-1.185,-0.675,10697.222222222223
-1.18,-0.685,10700.0
-1.175,-0.685,10702.777777777777
-1.18,-0.705,10705.555555555555
-1.175,-0.7,10708.333333333334
-1.165,-0.705,10711.111111111111
-1.135,-0.715,10713.888888888889
-1.13,-0.7,10716.666666666666
-1.1,-0.7,10719.444444444445
-1.08,-0.705,10722.222222222223
-1.05,-0.7,10725.0
-1.035,-0.695,10727.777777777777
-1.035,-0.705,10730.555555555555
-1.02,-0.705,10733.333333333334
-1.015,-0.715,10736.111111111111
-1.005,-0.7,10738.888888888889
-0.98,-0.71,10741.666666666666
-0.96,-0.705,10744.444444444445
-0.945,-0.675,10747.222222222223
-0.935,-0.67,10750.0
-0.915,-0.65,10752.777777777777
-0.885,-0.65,10755.555555555555
-0.875,-0.64,10758.333333333334
-0.88,-0.65,10761.111111111111
-0.86,-0.645,10763.888888888889
-0.865,-0.64,10766.666666666666
-0.86,-0.65,10769.444444444445
-0.87,-0.645,10772.222222222223
-0.875,-0.65,10775.0
-0.87,-0.645,10777.777777777777
-0.86,-0.635,10780.555555555555
-0.86,-0.62,10783.333333333334
-0.855,-0.615,10786.111111111111
-0.85,-0.605,10788.888888888889
-0.845,-0.595,10791.666666666666
-0.86,-0.605,10794.444444444445
-0.875,-0.62,10797.222222222223
-0.885,-0.62,10800.0
-0.895,-0.63,10802.777777777777
-0.905,-0.625,10805.555555555555
-0.92,-0.62,10808.333333333334
-0.935,-0.6,10811.111111111111
-0.945,-0.61,10813.888888888889
-0.945,-0.6,10816.666666666666
-0.95,-0.6,10819.444444444445
-0.945,-0.575,10822.222222222223
-0.945,-0.585,10825.0
-0.965,-0.6,10827.777777777777
-0.985,-0.605,10830.555555555555
-0.995,-0.62,10833.333333333334
-0.995,-0.625,10836.111111111111
-1.01,-0.625,10838.888888888889
-1.02,-0.61,10841.666666666666
-1.03,-0.61,10844.444444444445
-1.02,-0.61,10847.222222222223
-1.01,-0.595,10850.0
-1.01,-0.6,10852.777777777777
-1.01,-0.59,10855.555555555555
-1.005,-0.595,10858.333333333334
-0.995,-0.605,10861.111111111111
-1.01,-0.615,10863.888888888889
-1.015,-0.625,10866.666666666666
-1.015,-0.62,10869.444444444445
-1.035,-0.62,10872.222222222223
-1.025,-0.625,10875.0
-1.03,-0.605,10877.777777777777
-1.035,-0.595,10880.555555555555
-1.03,-0.59,10883.333333333334
-1.015,-0.59,10886.111111111111
-1.0,-0.575,10888.888888888889
-0.995,-0.585,10891.666666666666
-1.0,-0.585,10894.444444444445
-0.99,-0.6,10897.222222222223
-1.005,-0.6,10900.0
-1.0,-0.605,10902.777777777777
-0.995,-0.61,10905.555555555555
-0.995,-0.605,10908.333333333334
-1.01,-0.6,10911.111111111111
-1.0,-0.585,10913.888888888889
-0.975,-0.57,10916.666666666666
-0.975,-0.56,10919.444444444445
-0.965,-0.56,10922.222222222223
-0.96,-0.565,10925.0
-0.96,-0.57,10927.777777777777
-0.96,-0.575,10930.555555555555
-0.97,-0.58,10933.333333333334
-0.975,-0.57,10936.111111111111
-0.995,-0.575,10938.888888888889
-0.975,-0.575,10941.666666666666
-0.98,-0.58,10944.444444444445
-0.97,-0.55,10947.222222222223
-0.965,-0.55,10950.0
-0.96,-0.545,10952.777777777777
-0.945,-0.535,10955.555555555555
-0.945,-0.545,10958.333333333334
-0.945,-0.555,10961.111111111111
-0.94,-0.55,10963.888888888889
-0.955,-0.56,10966.666666666666
-0.945,-0.56,10969.444444444445
-0.955,-0.57,10972.222222222223
-0.965,-0.565,10975.0
-0.95,-0.56,10977.777777777777
-0.95,-0.555,10980.555555555555
-0.94,-0.555,10983.333333333334
-0.935,-0.535,10986.111111111111
-0.92,-0.535,10988.888888888889
-0.915,-0.53,10991.666666666666
-0.915,-0.535,10994.444444444445
-0.925,-0.535,10997.222222222223
-0.93,-0.545,11000.0
-0.925,-0.55,11002.777777777777
-0.93,-0.575,11005.555555555555
-0.935,-0.56,11008.333333333334
-0.94,-0.555,11011.111111111111
-0.94,-0.55,11013.888888888889
-0.935,-0.54,11016.666666666666
-0.925,-0.545,11019.444444444445
-0.925,-0.54,11022.222222222223
-0.92,-0.535,11025.0
-0.92,-0.545,11027.777777777777
-0.92,-0.545,11030.555555555555
-0.925,-0.555,11033.333333333334
-0.93,-0.55,11036.111111111111
-0.925,-0.555,11038.888888888889
-0.935,-0.56,11041.666666666666
-0.93,-0.555,11044.444444444445
-0.945,-0.545,11047.222222222223
-0.94,-0.545,11050.0
-0.92,-0.54,11052.777777777777
-0.915,-0.525,11055.555555555555
-0.925,-0.525,11058.333333333334
-0.93,-0.535,11061.111111111111
-0.92,-0.545,11063.888888888889
-0.93,-0.555,11066.666666666666
-0.94,-0.56,11069.444444444445
-0.95,-0.57,11072.222222222223
-0.94,-0.565,11075.0
-0.945,-0.55,11077.777777777777
-0.945,-0.545,11080.555555555555
-0.93,-0.53,11083.333333333334
-0.925,-0.535,11086.111111111111
-0.93,-0.525,11088.888888888889
-0.9,-0.54,11091.666666666666
-0.91,-0.535,11094.444444444445
-0.91,-0.545,11097.222222222223
-0.915,-0.55,11100.0
-0.92,-0.56,11102.777777777777
-0.93,-0.55,11105.555555555555
-0.925,-0.56,11108.333333333334
-0.925,-0.57,11111.111111111111
-0.925,-0.545,11113.888888888889
-0.925,-0.535,11116.666666666666
-0.915,-0.535,11119.444444444445
-0.905,-0.53,11122.222222222223
-0.895,-0.54,11125.0
-0.91,-0.545,11127.777777777777
-0.915,-0.555,11130.555555555555
