MLII,V1,time_ms
0.35,0.105,0.0
0.35,0.105,2.7777777777777777
0.35,0.105,5.555555555555555
0.35,0.105,8.333333333333334
0.35,0.105,11.11111111111111
0.35,0.105,13.88888888888889
0.35,0.105,16.666666666666668
0.35,0.105,19.444444444444443
0.35,0.105,22.22222222222222
0.02,0.115,25.0
-0.21,0.09,27.77777777777778
-0.33,0.075,30.555555555555557
-0.37,0.095,33.333333333333336
-0.335,0.115,36.111111111111114
-0.285,0.09,38.888888888888886
-0.23,0.085,41.666666666666664
-0.215,0.09,44.44444444444444
-0.2,0.085,47.22222222222222
-0.19,0.07,50.0
-0.2,0.075,52.77777777777778
-0.2,0.09,55.55555555555556
-0.21,0.095,58.333333333333336
-0.23,0.07,61.111111111111114
-0.25,0.03,63.888888888888886
-0.255,0.04,66.66666666666667
-0.245,0.07,69.44444444444444
-0.24,0.065,72.22222222222223
-0.215,0.04,75.0
-0.235,0.04,77.77777777777777
-0.23,0.045,80.55555555555556
-0.23,0.04,83.33333333333333
-0.205,0.015,86.11111111111111
-0.18,0.04,88.88888888888889
-0.165,0.05,91.66666666666667
-0.195,0.06,94.44444444444444
-0.21,0.04,97.22222222222223
-0.215,0.03,100.0
-0.195,0.06,102.77777777777777
-0.17,0.085,105.55555555555556
-0.155,0.07,108.33333333333333
-0.175,0.045,111.11111111111111
-0.195,0.05,113.88888888888889
-0.21,0.065,116.66666666666667
-0.2,0.09,119.44444444444444
-0.2,0.08,122.22222222222223
-0.195,0.075,125.0
-0.185,0.075,127.77777777777777
-0.185,0.05,130.55555555555554
-0.18,0.045,133.33333333333334
-0.175,0.065,136.11111111111111
-0.175,0.07,138.88888888888889
-0.165,0.085,141.66666666666666
-0.14,0.075,144.44444444444446
-0.12,0.045,147.22222222222223
-0.115,0.06,150.0
-0.13,0.075,152.77777777777777
-0.155,0.06,155.55555555555554
-0.19,0.035,158.33333333333334
-0.19,0.04,161.11111111111111
-0.185,0.055,163.88888888888889
-0.18,0.07,166.66666666666666
-0.16,0.06,169.44444444444446
-0.14,0.07,172.22222222222223
-0.13,0.07,175.0
-0.11,0.07,177.77777777777777
-0.12,0.055,180.55555555555554
-0.13,0.04,183.33333333333334
-0.13,0.05,186.11111111111111
-0.125,0.08,188.88888888888889
-0.095,0.085,191.66666666666666
-0.095,0.06,194.44444444444446
-0.09,0.05,197.22222222222223
-0.08,0.065,200.0
-0.075,0.08,202.77777777777777
-0.07,0.07,205.55555555555554
-0.075,0.05,208.33333333333334
-0.065,0.065,211.11111111111111
-0.055,0.06,213.88888888888889
-0.06,0.075,216.66666666666666
-0.055,0.055,219.44444444444446
-0.04,0.06,222.22222222222223
-0.03,0.08,225.0
-0.02,0.065,227.77777777777777
-0.015,0.05,230.55555555555554
-0.015,0.04,233.33333333333334
-0.01,0.065,236.11111111111111
0.015,0.095,238.88888888888889
0.035,0.075,241.66666666666666
0.025,0.05,244.44444444444446
0.015,0.065,247.22222222222223
0.015,0.07,250.0
0.025,0.06,252.77777777777777
0.025,0.055,255.55555555555554
0.04,0.05,258.3333333333333
0.04,0.07,261.1111111111111
0.03,0.065,263.8888888888889
0.015,0.065,266.6666666666667
0.02,0.07,269.44444444444446
0.035,0.085,272.22222222222223
0.045,0.09,275.0
0.05,0.06,277.77777777777777
0.025,0.035,280.55555555555554
0.02,0.055,283.3333333333333
0.02,0.085,286.1111111111111
0.01,0.095,288.8888888888889
0.01,0.08,291.6666666666667
0.0,0.08,294.44444444444446
-0.005,0.075,297.22222222222223
-0.025,0.075,300.0
-0.02,0.07,302.77777777777777
-0.03,0.07,305.55555555555554
-0.03,0.085,308.3333333333333
-0.035,0.075,311.1111111111111
-0.045,0.06,313.8888888888889
-0.055,0.055,316.6666666666667
-0.06,0.085,319.44444444444446
-0.065,0.105,322.22222222222223
-0.075,0.085,325.0
-0.08,0.06,327.77777777777777
-0.075,0.045,330.55555555555554
-0.075,0.06,333.3333333333333
-0.075,0.085,336.1111111111111
-0.07,0.09,338.8888888888889
-0.075,0.075,341.6666666666667
-0.08,0.085,344.44444444444446
-0.09,0.09,347.22222222222223
-0.1,0.095,350.0
-0.095,0.08,352.77777777777777
-0.095,0.075,355.55555555555554
-0.085,0.08,358.3333333333333
-0.095,0.095,361.1111111111111
-0.1,0.08,363.8888888888889
-0.1,0.085,366.6666666666667
-0.115,0.085,369.44444444444446
-0.115,0.095,372.22222222222223
-0.13,0.09,375.0
-0.14,0.06,377.77777777777777
-0.15,0.05,380.55555555555554
-0.16,0.085,383.3333333333333
-0.145,0.1,386.1111111111111
-0.155,0.095,388.8888888888889
-0.16,0.08,391.6666666666667
-0.17,0.09,394.44444444444446
-0.185,0.085,397.22222222222223
-0.175,0.085,400.0
-0.17,0.08,402.77777777777777
-0.165,0.075,405.55555555555554
-0.17,0.09,408.3333333333333
-0.17,0.105,411.1111111111111
-0.165,0.07,413.8888888888889
-0.18,0.075,416.6666666666667
-0.18,0.08,419.44444444444446
-0.2,0.105,422.22222222222223
-0.2,0.095,425.0
-0.215,0.075,427.77777777777777
-0.205,0.045,430.55555555555554
-0.21,0.065,433.3333333333333
-0.205,0.1,436.1111111111111
-0.21,0.09,438.8888888888889
-0.22,0.075,441.6666666666667
-0.225,0.08,444.44444444444446
-0.225,0.08,447.22222222222223
-0.24,0.075,450.0
-0.225,0.06,452.77777777777777
-0.21,0.055,455.55555555555554
-0.205,0.085,458.3333333333333
-0.195,0.095,461.1111111111111
-0.19,0.07,463.8888888888889
-0.2,0.065,466.6666666666667
-0.19,0.09,469.44444444444446
-0.19,0.105,472.22222222222223
-0.185,0.115,475.0
-0.17,0.075,477.77777777777777
-0.17,0.07,480.55555555555554
-0.175,0.09,483.3333333333333
-0.165,0.11,486.1111111111111
-0.165,0.105,488.8888888888889
-0.185,0.09,491.6666666666667
-0.185,0.085,494.44444444444446
-0.205,0.09,497.22222222222223
-0.205,0.085,500.0
-0.21,0.08,502.77777777777777
-0.195,0.06,505.55555555555554
-0.195,0.09,508.3333333333333
-0.19,0.09,511.1111111111111
-0.195,0.06,513.8888888888889
-0.195,0.065,516.6666666666666
-0.195,0.065,519.4444444444445
-0.185,0.09,522.2222222222222
-0.175,0.085,525.0
-0.175,0.045,527.7777777777778
-0.2,0.025,530.5555555555555
-0.225,0.04,533.3333333333334
-0.25,0.07,536.1111111111111
-0.24,0.055,538.8888888888889
-0.24,0.03,541.6666666666666
-0.24,0.02,544.4444444444445
-0.25,0.02,547.2222222222222
-0.26,0.03,550.0
-0.27,0.015,552.7777777777778
-0.28,-0.015,555.5555555555555
-0.305,0.0,558.3333333333334
-0.335,0.015,561.1111111111111
-0.35,0.0,563.8888888888889
-0.34,-0.025,566.6666666666666
-0.285,-0.03,569.4444444444445
-0.205,-0.02,572.2222222222222
-0.135,-0.02,575.0
-0.095,-0.055,577.7777777777778
-0.045,-0.08,580.5555555555555
0.01,-0.07,583.3333333333334
0.075,-0.04,586.1111111111111
0.14,-0.055,588.8888888888889
0.175,-0.065,591.6666666666666
0.135,-0.095,594.4444444444445
0.045,-0.08,597.2222222222222
-0.155,-0.065,600.0
-0.425,-0.07,602.7777777777778
-0.71,-0.085,605.5555555555555
-0.915,-0.065,608.3333333333334
-1.09,-0.05,611.1111111111111
-1.255,-0.06,613.8888888888889
-1.395,-0.08,616.6666666666666
-1.465,-0.08,619.4444444444445
-1.505,-0.03,622.2222222222222
-1.49,-0.02,625.0
-1.45,-0.025,627.7777777777778
-1.39,-0.05,630.5555555555555
-1.34,-0.005,633.3333333333334
-1.27,0.03,636.1111111111111
-1.155,0.045,638.8888888888889
-1.025,0.045,641.6666666666666
-0.95,0.025,644.4444444444445
-0.93,0.03,647.2222222222222
-0.93,0.05,650.0
-0.91,0.04,652.7777777777778
-0.885,0.03,655.5555555555555
-0.865,0.015,658.3333333333334
-0.84,0.04,661.1111111111111
-0.8,0.04,663.8888888888889
-0.755,0.025,666.6666666666666
-0.715,0.02,669.4444444444445
-0.66,0.035,672.2222222222222
-0.63,0.055,675.0
-0.58,0.04,677.7777777777778
-0.54,0.01,680.5555555555555
-0.51,0.015,683.3333333333334
-0.465,0.04,686.1111111111111
-0.435,0.07,688.8888888888889
-0.395,0.07,691.6666666666666
-0.365,0.045,694.4444444444445
-0.315,0.055,697.2222222222222
-0.265,0.08,700.0
-0.2,0.09,702.7777777777778
-0.155,0.09,705.5555555555555
-0.09,0.08,708.3333333333334
-0.04,0.09,711.1111111111111
-0.015,0.1,713.8888888888889
-0.01,0.105,716.6666666666666
0.005,0.1,719.4444444444445
0.03,0.1,722.2222222222222
0.055,0.13,725.0
0.08,0.13,727.7777777777778
0.085,0.095,730.5555555555555
0.09,0.09,733.3333333333334
0.11,0.09,736.1111111111111
0.11,0.135,738.8888888888889
0.13,0.14,741.6666666666666
0.15,0.115,744.4444444444445
0.155,0.1,747.2222222222222
0.15,0.115,750.0
0.18,0.15,752.7777777777778
0.185,0.135,755.5555555555555
0.205,0.115,758.3333333333334
0.22,0.11,761.1111111111111
0.235,0.125,763.8888888888889
0.235,0.15,766.6666666666666
0.255,0.135,769.4444444444445
0.27,0.125,772.2222222222222
0.29,0.15,775.0
0.29,0.14,777.7777777777778
0.3,0.125,780.5555555555555
0.3,0.105,783.3333333333334
0.305,0.115,786.1111111111111
0.325,0.155,788.8888888888889
0.315,0.165,791.6666666666666
0.31,0.13,794.4444444444445
0.315,0.12,797.2222222222222
0.315,0.145,800.0
0.345,0.16,802.7777777777778
0.36,0.155,805.5555555555555
0.37,0.125,808.3333333333334
0.375,0.125,811.1111111111111
0.375,0.13,813.8888888888889
0.365,0.155,816.6666666666666
0.375,0.14,819.4444444444445
0.385,0.13,822.2222222222222
0.41,0.145,825.0
0.405,0.14,827.7777777777778
0.4,0.125,830.5555555555555
0.4,0.1,833.3333333333334
0.405,0.13,836.1111111111111
0.4,0.16,838.8888888888889
0.41,0.15,841.6666666666666
0.395,0.13,844.4444444444445
0.4,0.105,847.2222222222222
0.385,0.14,850.0
0.39,0.15,852.7777777777778
0.395,0.14,855.5555555555555
0.385,0.12,858.3333333333334
0.38,0.135,861.1111111111111
0.355,0.125,863.8888888888889
0.355,0.13,866.6666666666666
0.355,0.11,869.4444444444445
0.35,0.125,872.2222222222222
0.325,0.14,875.0
0.3,0.12,877.7777777777778
0.28,0.09,880.5555555555555
0.25,0.1,883.3333333333334
0.25,0.11,886.1111111111111
0.25,0.135,888.8888888888889
0.25,0.13,891.6666666666666
0.235,0.1,894.4444444444445
0.21,0.095,897.2222222222222
0.175,0.115,900.0
0.165,0.13,902.7777777777778
0.16,0.115,905.5555555555555
0.145,0.095,908.3333333333334
0.14,0.105,911.1111111111111
0.145,0.12,913.8888888888889
0.13,0.11,916.6666666666666
0.1,0.1,919.4444444444445
0.08,0.11,922.2222222222222
0.04,0.125,925.0
0.015,0.12,927.7777777777778
-0.01,0.085,930.5555555555555
-0.025,0.08,933.3333333333334
-0.025,0.105,936.1111111111111
-0.03,0.125,938.8888888888889
-0.04,0.1,941.6666666666666
-0.045,0.085,944.4444444444445
-0.07,0.1,947.2222222222222
-0.105,0.105,950.0
-0.08,0.1,952.7777777777778
-0.075,0.09,955.5555555555555
-0.085,0.09,958.3333333333334
-0.09,0.115,961.1111111111111
-0.11,0.1,963.8888888888889
-0.13,0.085,966.6666666666666
-0.12,0.105,969.4444444444445
-0.115,0.12,972.2222222222222
-0.125,0.115,975.0
-0.15,0.09,977.7777777777778
-0.17,0.075,980.5555555555555
-0.16,0.095,983.3333333333334
-0.16,0.105,986.1111111111111
-0.15,0.1,988.8888888888889
-0.155,0.09,991.6666666666666
-0.16,0.095,994.4444444444445
-0.17,0.09,997.2222222222222
-0.185,0.08,1000.0
-0.18,0.07,1002.7777777777778
-0.18,0.1,1005.5555555555555
-0.19,0.1,1008.3333333333334
-0.18,0.11,1011.1111111111111
-0.17,0.06,1013.8888888888889
-0.16,0.075,1016.6666666666666
-0.14,0.105,1019.4444444444445
-0.14,0.115,1022.2222222222222
-0.145,0.08,1025.0
-0.17,0.07,1027.7777777777778
-0.18,0.075,1030.5555555555557
-0.175,0.1,1033.3333333333333
-0.16,0.095,1036.111111111111
-0.155,0.09,1038.888888888889
-0.155,0.1,1041.6666666666667
-0.165,0.12,1044.4444444444443
-0.15,0.095,1047.2222222222222
-0.155,0.065,1050.0
-0.15,0.09,1052.7777777777778
-0.145,0.115,1055.5555555555557
-0.145,0.105,1058.3333333333333
-0.165,0.09,1061.111111111111
-0.195,0.075,1063.888888888889
-0.205,0.1,1066.6666666666667
-0.19,0.105,1069.4444444444443
-0.18,0.09,1072.2222222222222
-0.165,0.075,1075.0
-0.17,0.1,1077.7777777777778
-0.16,0.09,1080.5555555555557
-0.17,0.08,1083.3333333333333
-0.165,0.085,1086.111111111111
-0.17,0.1,1088.888888888889
-0.17,0.11,1091.6666666666667
-0.17,0.075,1094.4444444444443
-0.17,0.035,1097.2222222222222
-0.185,0.07,1100.0
-0.19,0.095,1102.7777777777778
-0.18,0.095,1105.5555555555557
-0.18,0.07,1108.3333333333333
-0.18,0.09,1111.111111111111
-0.175,0.08,1113.888888888889
-0.2,0.07,1116.6666666666667
-0.21,0.055,1119.4444444444443
-0.2,0.075,1122.2222222222222
-0.2,0.105,1125.0
-0.21,0.08,1127.7777777777778
-0.215,0.055,1130.5555555555557
-0.21,0.06,1133.3333333333333
-0.2,0.09,1136.111111111111
-0.175,0.075,1138.888888888889
-0.16,0.06,1141.6666666666667
-0.145,0.05,1144.4444444444443
-0.145,0.07,1147.2222222222222
-0.135,0.085,1150.0
-0.14,0.075,1152.7777777777778
-0.135,0.06,1155.5555555555557
-0.13,0.08,1158.3333333333333
-0.12,0.095,1161.111111111111
-0.115,0.07,1163.888888888889
-0.11,0.06,1166.6666666666667
-0.105,0.075,1169.4444444444443
-0.1,0.105,1172.2222222222222
-0.095,0.105,1175.0
-0.11,0.065,1177.7777777777778
-0.14,0.07,1180.5555555555557
-0.175,0.095,1183.3333333333333
-0.18,0.105,1186.111111111111
-0.18,0.09,1188.888888888889
-0.18,0.075,1191.6666666666667
-0.165,0.095,1194.4444444444443
-0.175,0.09,1197.2222222222222
-0.175,0.07,1200.0
-0.175,0.07,1202.7777777777778
-0.165,0.09,1205.5555555555557
-0.165,0.11,1208.3333333333333
-0.165,0.08,1211.111111111111
-0.175,0.03,1213.888888888889
-0.165,0.06,1216.6666666666667
-0.16,0.085,1219.4444444444443
-0.155,0.09,1222.2222222222222
-0.15,0.07,1225.0
-0.155,0.075,1227.7777777777778
-0.16,0.08,1230.5555555555557
-0.16,0.08,1233.3333333333333
-0.155,0.06,1236.111111111111
-0.145,0.075,1238.888888888889
-0.15,0.095,1241.6666666666667
-0.15,0.09,1244.4444444444443
-0.185,0.075,1247.2222222222222
-0.2,0.06,1250.0
-0.2,0.09,1252.7777777777778
-0.195,0.105,1255.5555555555557
-0.19,0.085,1258.3333333333333
-0.19,0.065,1261.111111111111
-0.195,0.075,1263.888888888889
-0.2,0.1,1266.6666666666667
-0.195,0.095,1269.4444444444443
-0.185,0.08,1272.2222222222222
-0.175,0.08,1275.0
-0.175,0.095,1277.7777777777778
-0.155,0.09,1280.5555555555557
-0.17,0.06,1283.3333333333333
-0.17,0.07,1286.111111111111
-0.165,0.09,1288.888888888889
-0.15,0.105,1291.6666666666667
-0.16,0.075,1294.4444444444443
-0.165,0.05,1297.2222222222222
-0.175,0.075,1300.0
-0.17,0.105,1302.7777777777778
-0.17,0.105,1305.5555555555557
-0.185,0.085,1308.3333333333333
-0.215,0.07,1311.111111111111
-0.225,0.085,1313.888888888889
-0.19,0.09,1316.6666666666667
-0.125,0.075,1319.4444444444443
-0.04,0.08,1322.2222222222222
0.05,0.1,1325.0
0.125,0.105,1327.7777777777778
0.215,0.065,1330.5555555555557
0.32,0.055,1333.3333333333333
0.415,0.1,1336.111111111111
0.5,0.11,1338.888888888889
0.605,0.105,1341.6666666666667
0.725,0.09,1344.4444444444443
0.845,0.095,1347.2222222222222
0.94,0.11,1350.0
1.06,0.125,1352.7777777777778
1.11,0.12,1355.5555555555557
1.1,0.1,1358.3333333333333
1.005,0.115,1361.111111111111
0.86,0.12,1363.888888888889
0.615,0.115,1366.6666666666667
0.24,0.12,1369.4444444444443
-0.11,0.15,1372.2222222222222
-0.335,0.175,1375.0
-0.46,0.155,1377.7777777777778
-0.515,0.135,1380.5555555555557
-0.54,0.135,1383.3333333333333
-0.51,0.16,1386.111111111111
-0.44,0.17,1388.888888888889
-0.385,0.14,1391.6666666666667
-0.36,0.13,1394.4444444444443
-0.35,0.125,1397.2222222222222
-0.335,0.145,1400.0
-0.32,0.14,1402.7777777777778
-0.295,0.13,1405.5555555555557
-0.3,0.115,1408.3333333333333
-0.3,0.135,1411.111111111111
-0.325,0.12,1413.888888888889
-0.335,0.1,1416.6666666666667
-0.335,0.09,1419.4444444444443
-0.335,0.115,1422.2222222222222
-0.325,0.13,1425.0
-0.31,0.115,1427.7777777777778
-0.3,0.08,1430.5555555555557
-0.28,0.085,1433.3333333333333
-0.26,0.11,1436.111111111111
-0.24,0.12,1438.888888888889
-0.245,0.095,1441.6666666666667
-0.26,0.08,1444.4444444444443
-0.27,0.085,1447.2222222222222
-0.28,0.1,1450.0
-0.28,0.11,1452.7777777777778
-0.275,0.085,1455.5555555555557
-0.27,0.09,1458.3333333333333
-0.275,0.085,1461.111111111111
-0.28,0.095,1463.888888888889
-0.255,0.09,1466.6666666666667
-0.25,0.08,1469.4444444444443
-0.24,0.075,1472.2222222222222
-0.235,0.105,1475.0
-0.235,0.09,1477.7777777777778
-0.235,0.07,1480.5555555555557
-0.24,0.055,1483.3333333333333
-0.235,0.075,1486.111111111111
-0.235,0.105,1488.888888888889
-0.23,0.095,1491.6666666666667
-0.24,0.07,1494.4444444444443
-0.225,0.055,1497.2222222222222
-0.23,0.085,1500.0
-0.225,0.105,1502.7777777777778
-0.21,0.11,1505.5555555555557
-0.195,0.085,1508.3333333333333
-0.215,0.085,1511.111111111111
-0.22,0.095,1513.888888888889
-0.24,0.09,1516.6666666666667
-0.23,0.08,1519.4444444444443
-0.23,0.08,1522.2222222222222
-0.215,0.095,1525.0
-0.21,0.1,1527.7777777777778
-0.21,0.08,1530.5555555555557
-0.22,0.065,1533.3333333333333
-0.205,0.075,1536.111111111111
-0.18,0.09,1538.888888888889
-0.185,0.1,1541.6666666666667
-0.19,0.085,1544.4444444444443
-0.19,0.05,1547.2222222222222
-0.195,0.065,1550.0
-0.16,0.09,1552.7777777777778
-0.14,0.12,1555.5555555555557
-0.13,0.09,1558.3333333333333
-0.125,0.07,1561.111111111111
-0.13,0.07,1563.888888888889
-0.14,0.095,1566.6666666666667
-0.13,0.095,1569.4444444444443
-0.12,0.09,1572.2222222222222
-0.125,0.08,1575.0
-0.125,0.08,1577.7777777777778
-0.145,0.095,1580.5555555555557
-0.125,0.1,1583.3333333333333
-0.12,0.085,1586.111111111111
-0.125,0.085,1588.888888888889
-0.115,0.095,1591.6666666666667
-0.12,0.1,1594.4444444444443
-0.14,0.09,1597.2222222222222
-0.15,0.06,1600.0
-0.145,0.065,1602.7777777777778
-0.135,0.095,1605.5555555555557
-0.11,0.105,1608.3333333333333
-0.105,0.085,1611.111111111111
-0.1,0.055,1613.888888888889
-0.085,0.06,1616.6666666666667
-0.095,0.085,1619.4444444444443
-0.08,0.095,1622.2222222222222
-0.065,0.09,1625.0
-0.07,0.06,1627.7777777777778
-0.07,0.065,1630.5555555555557
-0.075,0.105,1633.3333333333333
-0.07,0.095,1636.111111111111
-0.06,0.085,1638.888888888889
-0.055,0.08,1641.6666666666667
-0.05,0.09,1644.4444444444443
-0.075,0.1,1647.2222222222222
-0.065,0.1,1650.0
-0.065,0.08,1652.7777777777778
-0.07,0.1,1655.5555555555557
-0.08,0.11,1658.3333333333333
-0.08,0.11,1661.111111111111
-0.08,0.07,1663.888888888889
-0.08,0.065,1666.6666666666667
-0.08,0.1,1669.4444444444443
-0.08,0.11,1672.2222222222222
-0.075,0.105,1675.0
-0.09,0.085,1677.7777777777778
-0.09,0.07,1680.5555555555557
-0.085,0.1,1683.3333333333333
-0.09,0.12,1686.111111111111
-0.075,0.11,1688.888888888889
-0.075,0.07,1691.6666666666667
-0.07,0.08,1694.4444444444443
-0.075,0.1,1697.2222222222222
-0.09,0.105,1700.0
-0.075,0.085,1702.7777777777778
-0.065,0.09,1705.5555555555557
-0.07,0.09,1708.3333333333333
-0.07,0.1,1711.111111111111
-0.085,0.1,1713.888888888889
-0.09,0.095,1716.6666666666667
-0.09,0.065,1719.4444444444443
-0.08,0.09,1722.2222222222222
-0.1,0.1,1725.0
-0.105,0.105,1727.7777777777778
-0.115,0.075,1730.5555555555557
-0.12,0.06,1733.3333333333333
-0.115,0.085,1736.111111111111
-0.1,0.12,1738.888888888889
-0.105,0.115,1741.6666666666667
-0.12,0.075,1744.4444444444443
-0.14,0.065,1747.2222222222222
-0.14,0.1,1750.0
-0.115,0.115,1752.7777777777778
-0.07,0.105,1755.5555555555557
-0.075,0.09,1758.3333333333333
-0.09,0.1,1761.111111111111
-0.105,0.1,1763.888888888889
-0.115,0.11,1766.6666666666667
-0.11,0.105,1769.4444444444443
-0.11,0.11,1772.2222222222222
-0.13,0.115,1775.0
-0.135,0.115,1777.7777777777778
-0.15,0.09,1780.5555555555557
-0.13,0.08,1783.3333333333333
-0.125,0.09,1786.111111111111
-0.125,0.12,1788.888888888889
-0.14,0.11,1791.6666666666667
-0.155,0.085,1794.4444444444443
-0.155,0.075,1797.2222222222222
-0.155,0.095,1800.0
-0.155,0.095,1802.7777777777778
-0.145,0.1,1805.5555555555557
-0.13,0.09,1808.3333333333333
-0.13,0.08,1811.111111111111
-0.13,0.09,1813.888888888889
-0.12,0.105,1816.6666666666667
-0.11,0.09,1819.4444444444443
-0.09,0.085,1822.2222222222222
-0.07,0.1,1825.0
-0.06,0.105,1827.7777777777778
-0.08,0.085,1830.5555555555557
-0.075,0.075,1833.3333333333333
-0.05,0.085,1836.111111111111
-0.015,0.12,1838.888888888889
0.005,0.115,1841.6666666666667
0.02,0.1,1844.4444444444443
0.02,0.08,1847.2222222222222
0.04,0.09,1850.0
0.06,0.095,1852.7777777777778
0.08,0.1,1855.5555555555557
0.105,0.085,1858.3333333333333
0.11,0.07,1861.111111111111
0.095,0.065,1863.888888888889
0.12,0.065,1866.6666666666667
0.2,0.065,1869.4444444444443
0.265,0.045,1872.2222222222222
0.265,0.04,1875.0
0.22,0.045,1877.7777777777778
0.2,0.015,1880.5555555555557
0.19,0.005,1883.3333333333333
0.15,0.01,1886.111111111111
0.035,0.04,1888.888888888889
-0.225,0.03,1891.6666666666667
-0.625,0.02,1894.4444444444443
-1.09,-0.005,1897.2222222222222
-1.475,0.01,1900.0
-1.745,0.025,1902.7777777777778
-1.895,0.025,1905.5555555555557
-1.955,0.015,1908.3333333333333
-1.995,0.01,1911.111111111111
-2.01,0.02,1913.888888888889
-2.0,0.025,1916.6666666666667
-1.965,0.03,1919.4444444444443
-1.905,0.04,1922.2222222222222
-1.845,0.05,1925.0
-1.75,0.065,1927.7777777777778
-1.605,0.05,1930.5555555555557
-1.475,0.05,1933.3333333333333
-1.35,0.075,1936.111111111111
-1.275,0.12,1938.888888888889
-1.235,0.105,1941.6666666666667
-1.18,0.09,1944.4444444444443
-1.105,0.085,1947.2222222222222
-1.035,0.105,1950.0
-0.94,0.11,1952.7777777777778
-0.83,0.095,1955.5555555555557
-0.77,0.105,1958.3333333333333
-0.715,0.105,1961.111111111111
-0.665,0.11,1963.888888888889
-0.605,0.1,1966.6666666666667
-0.52,0.1,1969.4444444444443
-0.465,0.11,1972.2222222222222
-0.42,0.115,1975.0
-0.4,0.1,1977.7777777777778
-0.39,0.09,1980.5555555555557
-0.375,0.09,1983.3333333333333
-0.34,0.115,1986.111111111111
-0.305,0.13,1988.888888888889
-0.27,0.115,1991.6666666666667
-0.19,0.115,1994.4444444444443
-0.125,0.12,1997.2222222222222
-0.06,0.12,2000.0
-0.005,0.125,2002.7777777777778
0.05,0.125,2005.5555555555557
0.11,0.145,2008.3333333333333
0.15,0.155,2011.111111111111
0.185,0.145,2013.888888888889
0.21,0.135,2016.6666666666667
0.23,0.155,2019.4444444444443
0.26,0.17,2022.2222222222222
0.285,0.165,2025.0
0.325,0.145,2027.7777777777778
0.33,0.14,2030.5555555555557
0.325,0.15,2033.3333333333333
0.35,0.175,2036.111111111111
0.39,0.175,2038.888888888889
0.43,0.17,2041.6666666666667
0.47,0.17,2044.4444444444443
0.465,0.17,2047.2222222222222
0.485,0.145,2050.0
0.505,0.15,2052.777777777778
0.52,0.165,2055.5555555555557
0.54,0.175,2058.3333333333335
0.56,0.15,2061.1111111111113
0.585,0.14,2063.8888888888887
0.6,0.16,2066.6666666666665
0.62,0.16,2069.4444444444443
0.645,0.16,2072.222222222222
0.655,0.15,2075.0
0.675,0.165,2077.777777777778
0.68,0.17,2080.5555555555557
0.695,0.16,2083.3333333333335
0.715,0.175,2086.1111111111113
0.755,0.19,2088.8888888888887
0.785,0.195,2091.6666666666665
0.805,0.175,2094.4444444444443
0.795,0.155,2097.222222222222
0.805,0.17,2100.0
0.82,0.195,2102.777777777778
0.84,0.195,2105.5555555555557
0.865,0.18,2108.3333333333335
0.855,0.17,2111.1111111111113
0.85,0.17,2113.8888888888887
0.835,0.17,2116.6666666666665
0.83,0.165,2119.4444444444443
0.835,0.19,2122.222222222222
0.825,0.19,2125.0
0.8,0.18,2127.777777777778
0.79,0.16,2130.5555555555557
0.77,0.17,2133.3333333333335
0.78,0.185,2136.1111111111113
0.77,0.185,2138.8888888888887
0.755,0.16,2141.6666666666665
0.715,0.165,2144.4444444444443
0.68,0.165,2147.222222222222
0.665,0.18,2150.0
0.64,0.185,2152.777777777778
0.615,0.19,2155.5555555555557
0.605,0.19,2158.3333333333335
0.585,0.18,2161.1111111111113
0.56,0.155,2163.8888888888887
0.53,0.165,2166.6666666666665
0.495,0.195,2169.4444444444443
0.46,0.2,2172.222222222222
0.435,0.19,2175.0
0.4,0.18,2177.777777777778
0.36,0.165,2180.5555555555557
0.325,0.175,2183.3333333333335
0.29,0.17,2186.1111111111113
0.275,0.17,2188.8888888888887
0.245,0.185,2191.6666666666665
0.205,0.18,2194.4444444444443
0.185,0.16,2197.222222222222
0.185,0.17,2200.0
0.175,0.18,2202.777777777778
0.165,0.185,2205.5555555555557
0.155,0.175,2208.3333333333335
0.14,0.165,2211.1111111111113
0.13,0.16,2213.8888888888887
0.11,0.175,2216.6666666666665
0.095,0.16,2219.4444444444443
0.075,0.175,2222.222222222222
0.055,0.185,2225.0
0.035,0.155,2227.777777777778
0.015,0.125,2230.5555555555557
-0.005,0.135,2233.3333333333335
0.01,0.165,2236.1111111111113
0.015,0.175,2238.8888888888887
0.0,0.155,2241.6666666666665
-0.02,0.155,2244.4444444444443
-0.04,0.155,2247.222222222222
-0.055,0.145,2250.0
-0.035,0.125,2252.777777777778
-0.005,0.14,2255.5555555555557
0.005,0.165,2258.3333333333335
-0.005,0.15,2261.1111111111113
-0.025,0.13,2263.8888888888887
-0.02,0.145,2266.6666666666665
-0.01,0.15,2269.4444444444443
-0.015,0.15,2272.222222222222
-0.02,0.135,2275.0
-0.03,0.13,2277.777777777778
-0.045,0.145,2280.5555555555557
-0.06,0.14,2283.3333333333335
-0.065,0.125,2286.1111111111113
-0.06,0.14,2288.8888888888887
-0.05,0.15,2291.6666666666665
-0.06,0.125,2294.4444444444443
-0.085,0.1,2297.222222222222
-0.09,0.125,2300.0
-0.11,0.145,2302.777777777778
-0.105,0.145,2305.5555555555557
-0.095,0.14,2308.3333333333335
-0.085,0.14,2311.1111111111113
-0.075,0.13,2313.8888888888887
-0.08,0.12,2316.6666666666665
-0.095,0.12,2319.4444444444443
-0.095,0.15,2322.222222222222
-0.09,0.16,2325.0
-0.095,0.135,2327.777777777778
-0.115,0.12,2330.5555555555557
-0.115,0.15,2333.3333333333335
-0.12,0.14,2336.1111111111113
-0.11,0.13,2338.8888888888887
-0.095,0.125,2341.6666666666665
-0.105,0.145,2344.4444444444443
-0.11,0.135,2347.222222222222
-0.125,0.13,2350.0
-0.115,0.13,2352.777777777778
-0.09,0.16,2355.5555555555557
-0.095,0.155,2358.3333333333335
-0.11,0.135,2361.1111111111113
-0.125,0.115,2363.8888888888887
-0.135,0.15,2366.6666666666665
-0.13,0.15,2369.4444444444443
-0.125,0.145,2372.222222222222
-0.125,0.135,2375.0
-0.135,0.155,2377.777777777778
-0.145,0.13,2380.5555555555557
-0.155,0.115,2383.3333333333335
-0.145,0.12,2386.1111111111113
-0.13,0.15,2388.8888888888887
-0.135,0.16,2391.6666666666665
-0.14,0.135,2394.4444444444443
-0.155,0.125,2397.222222222222
-0.155,0.14,2400.0
-0.135,0.14,2402.777777777778
-0.125,0.14,2405.5555555555557
-0.13,0.13,2408.3333333333335
-0.135,0.145,2411.1111111111113
-0.145,0.14,2413.8888888888887
-0.165,0.135,2416.6666666666665
-0.19,0.14,2419.4444444444443
-0.175,0.16,2422.222222222222
-0.15,0.155,2425.0
-0.135,0.135,2427.777777777778
-0.125,0.115,2430.5555555555557
-0.145,0.145,2433.3333333333335
-0.11,0.16,2436.1111111111113
-0.09,0.16,2438.8888888888887
-0.07,0.145,2441.6666666666665
-0.075,0.155,2444.4444444444443
-0.09,0.145,2447.222222222222
-0.135,0.135,2450.0
-0.15,0.13,2452.777777777778
-0.155,0.15,2455.5555555555557
-0.155,0.17,2458.3333333333335
-0.12,0.175,2461.1111111111113
-0.1,0.14,2463.8888888888887
-0.08,0.14,2466.6666666666665
-0.065,0.165,2469.4444444444443
-0.075,0.17,2472.222222222222
-0.095,0.155,2475.0
-0.1,0.145,2477.777777777778
-0.095,0.16,2480.5555555555557
-0.085,0.175,2483.3333333333335
-0.08,0.18,2486.1111111111113
-0.08,0.18,2488.8888888888887
-0.08,0.19,2491.6666666666665
-0.095,0.18,2494.4444444444443
-0.12,0.17,2497.222222222222
-0.125,0.145,2500.0
-0.125,0.165,2502.777777777778
-0.125,0.19,2505.5555555555557
-0.13,0.185,2508.3333333333335
-0.135,0.155,2511.1111111111113
-0.13,0.155,2513.8888888888887
-0.13,0.165,2516.6666666666665
-0.12,0.19,2519.4444444444443
-0.115,0.185,2522.222222222222
-0.105,0.155,2525.0
-0.12,0.15,2527.777777777778
-0.145,0.145,2530.5555555555557
-0.135,0.17,2533.3333333333335
-0.11,0.175,2536.1111111111113
-0.11,0.18,2538.8888888888887
-0.11,0.19,2541.6666666666665
-0.125,0.185,2544.4444444444443
-0.105,0.185,2547.222222222222
-0.1,0.16,2550.0
-0.08,0.175,2552.777777777778
-0.05,0.2,2555.5555555555557
-0.03,0.205,2558.3333333333335
-0.07,0.185,2561.1111111111113
-0.12,0.165,2563.8888888888887
-0.185,0.185,2566.6666666666665
-0.215,0.185,2569.4444444444443
-0.22,0.18,2572.222222222222
-0.185,0.15,2575.0
-0.16,0.155,2577.777777777778
-0.16,0.165,2580.5555555555557
-0.145,0.17,2583.3333333333335
-0.15,0.16,2586.1111111111113
-0.13,0.17,2588.8888888888887
-0.14,0.18,2591.6666666666665
-0.15,0.17,2594.4444444444443
-0.17,0.15,2597.222222222222
-0.19,0.145,2600.0
-0.185,0.165,2602.777777777778
-0.17,0.185,2605.5555555555557
-0.175,0.18,2608.3333333333335
-0.165,0.155,2611.1111111111113
-0.16,0.16,2613.8888888888887
-0.18,0.175,2616.6666666666665
-0.175,0.18,2619.4444444444443
-0.185,0.17,2622.222222222222
-0.185,0.16,2625.0
-0.19,0.165,2627.777777777778
-0.205,0.16,2630.5555555555557
-0.21,0.15,2633.3333333333335
-0.215,0.15,2636.1111111111113
-0.215,0.165,2638.8888888888887
-0.18,0.17,2641.6666666666665
-0.125,0.16,2644.4444444444443
-0.075,0.14,2647.222222222222
0.0,0.13,2650.0
0.085,0.15,2652.777777777778
0.19,0.175,2655.5555555555557
0.29,0.17,2658.3333333333335
0.36,0.145,2661.1111111111113
0.44,0.14,2663.8888888888887
0.535,0.16,2666.6666666666665
0.68,0.165,2669.4444444444443
0.8,0.16,2672.222222222222
0.905,0.145,2675.0
0.995,0.165,2677.777777777778
1.025,0.17,2680.5555555555557
1.005,0.165,2683.3333333333335
0.92,0.155,2686.1111111111113
0.79,0.175,2688.8888888888887
0.57,0.205,2691.6666666666665
0.225,0.195,2694.4444444444443
-0.12,0.185,2697.222222222222
-0.335,0.18,2700.0
-0.43,0.19,2702.777777777778
-0.505,0.215,2705.5555555555557
-0.52,0.205,2708.3333333333335
-0.495,0.19,2711.1111111111113
-0.44,0.19,2713.8888888888887
-0.4,0.19,2716.6666666666665
-0.365,0.175,2719.4444444444443
-0.37,0.16,2722.222222222222
-0.385,0.155,2725.0
-0.36,0.18,2727.777777777778
-0.37,0.175,2730.5555555555557
-0.38,0.135,2733.3333333333335
-0.39,0.135,2736.1111111111113
-0.415,0.145,2738.8888888888887
-0.405,0.155,2741.6666666666665
-0.405,0.11,2744.4444444444443
-0.405,0.09,2747.222222222222
-0.415,0.105,2750.0
-0.41,0.13,2752.777777777778
-0.395,0.145,2755.5555555555557
-0.385,0.11,2758.3333333333335
-0.385,0.095,2761.1111111111113
-0.385,0.105,2763.8888888888887
-0.365,0.12,2766.6666666666665
-0.355,0.09,2769.4444444444443
-0.345,0.09,2772.222222222222
-0.335,0.115,2775.0
-0.355,0.09,2777.777777777778
-0.39,0.07,2780.5555555555557
-0.4,0.075,2783.3333333333335
-0.39,0.115,2786.1111111111113
-0.36,0.11,2788.8888888888887
-0.33,0.075,2791.6666666666665
-0.34,0.05,2794.4444444444443
-0.38,0.07,2797.222222222222
-0.395,0.11,2800.0
-0.405,0.105,2802.777777777778
-0.39,0.075,2805.5555555555557
-0.395,0.08,2808.3333333333335
-0.39,0.09,2811.1111111111113
-0.4,0.08,2813.8888888888887
-0.4,0.07,2816.6666666666665
-0.395,0.07,2819.4444444444443
-0.39,0.09,2822.222222222222
-0.385,0.09,2825.0
-0.39,0.065,2827.777777777778
-0.385,0.06,2830.5555555555557
-0.385,0.075,2833.3333333333335
-0.38,0.1,2836.1111111111113
-0.37,0.07,2838.8888888888887
-0.34,0.045,2841.6666666666665
-0.335,0.065,2844.4444444444443
-0.335,0.095,2847.222222222222
-0.33,0.095,2850.0
-0.325,0.085,2852.777777777778
-0.35,0.095,2855.5555555555557
-0.365,0.1,2858.3333333333335
-0.355,0.085,2861.1111111111113
-0.345,0.055,2863.8888888888887
-0.34,0.085,2866.6666666666665
-0.34,0.11,2869.4444444444443
-0.36,0.1,2872.222222222222
-0.35,0.09,2875.0
-0.345,0.09,2877.777777777778
-0.35,0.095,2880.5555555555557
-0.355,0.08,2883.3333333333335
-0.345,0.08,2886.1111111111113
-0.34,0.08,2888.8888888888887
-0.335,0.09,2891.6666666666665
-0.345,0.075,2894.4444444444443
-0.365,0.055,2897.222222222222
-0.35,0.075,2900.0
-0.35,0.095,2902.777777777778
-0.335,0.075,2905.5555555555557
-0.33,0.055,2908.3333333333335
-0.31,0.045,2911.1111111111113
-0.29,0.075,2913.8888888888887
-0.285,0.09,2916.6666666666665
-0.265,0.075,2919.4444444444443
-0.275,0.08,2922.222222222222
-0.28,0.08,2925.0
-0.3,0.08,2927.777777777778
-0.305,0.065,2930.5555555555557
-0.305,0.07,2933.3333333333335
-0.295,0.1,2936.1111111111113
-0.285,0.1,2938.8888888888887
-0.305,0.085,2941.6666666666665
-0.32,0.06,2944.4444444444443
-0.32,0.085,2947.222222222222
-0.305,0.1,2950.0
-0.275,0.1,2952.777777777778
-0.265,0.07,2955.5555555555557
-0.275,0.08,2958.3333333333335
-0.285,0.095,2961.1111111111113
-0.28,0.09,2963.8888888888887
-0.27,0.095,2966.6666666666665
-0.26,0.115,2969.4444444444443
-0.25,0.135,2972.222222222222
-0.255,0.095,2975.0
-0.255,0.07,2977.777777777778
-0.265,0.09,2980.5555555555557
-0.265,0.125,2983.3333333333335
-0.25,0.125,2986.1111111111113
-0.26,0.105,2988.8888888888887
-0.245,0.11,2991.6666666666665
-0.26,0.115,2994.4444444444443
-0.285,0.095,2997.222222222222
-0.29,0.08,3000.0
-0.29,0.105,3002.777777777778
-0.28,0.13,3005.5555555555557
-0.285,0.105,3008.3333333333335
-0.285,0.095,3011.1111111111113
-0.28,0.095,3013.8888888888887
-0.31,0.12,3016.6666666666665
-0.31,0.115,3019.4444444444443
-0.3,0.09,3022.222222222222
-0.285,0.095,3025.0
-0.275,0.1,3027.777777777778
-0.295,0.11,3030.5555555555557
-0.305,0.1,3033.3333333333335
-0.3,0.095,3036.1111111111113
-0.3,0.115,3038.8888888888887
-0.32,0.115,3041.6666666666665
-0.3,0.085,3044.4444444444443
-0.305,0.06,3047.222222222222
-0.315,0.095,3050.0
-0.305,0.12,3052.777777777778
-0.295,0.11,3055.5555555555557
-0.295,0.075,3058.3333333333335
-0.305,0.095,3061.1111111111113
-0.335,0.11,3063.8888888888887
-0.335,0.105,3066.6666666666665
-0.34,0.08,3069.4444444444443
-0.335,0.095,3072.222222222222
-0.335,0.1,3075.0
-0.345,0.1,3077.777777777778
-0.36,0.075,3080.5555555555557
-0.365,0.085,3083.3333333333335
-0.355,0.12,3086.1111111111113
-0.335,0.105,3088.8888888888887
-0.33,0.075,3091.6666666666665
-0.32,0.075,3094.4444444444443
-0.31,0.105,3097.222222222222
-0.295,0.095,3100.0
-0.275,0.09,3102.777777777778
-0.25,0.115,3105.5555555555557
-0.23,0.105,3108.3333333333335
-0.21,0.075,3111.1111111111113
-0.2,0.07,3113.8888888888887
-0.175,0.095,3116.6666666666665
-0.15,0.115,3119.4444444444443
-0.14,0.09,3122.222222222222
-0.145,0.08,3125.0
-0.155,0.075,3127.777777777778
-0.155,0.085,3130.5555555555557
-0.13,0.06,3133.3333333333335
-0.13,0.03,3136.1111111111113
-0.115,0.03,3138.8888888888887
-0.105,0.04,3141.6666666666665
-0.06,0.025,3144.4444444444443
-0.04,-0.01,3147.222222222222
-0.045,0.0,3150.0
-0.085,0.02,3152.777777777778
-0.16,0.015,3155.5555555555557
-0.26,-0.04,3158.3333333333335
-0.43,-0.05,3161.1111111111113
-0.69,-0.03,3163.8888888888887
-1.06,-0.005,3166.6666666666665
-1.425,-0.015,3169.4444444444443
-1.73,-0.035,3172.222222222222
-1.93,-0.02,3175.0
-2.035,0.015,3177.777777777778
-2.065,0.005,3180.5555555555557
-2.06,-0.02,3183.3333333333335
-2.08,0.005,3186.1111111111113
-2.055,0.035,3188.8888888888887
-1.995,0.04,3191.6666666666665
-1.9,0.025,3194.4444444444443
-1.805,0.035,3197.222222222222
-1.705,0.085,3200.0
-1.635,0.11,3202.777777777778
-1.54,0.105,3205.5555555555557
-1.44,0.09,3208.3333333333335
-1.325,0.11,3211.1111111111113
-1.235,0.125,3213.8888888888887
-1.145,0.14,3216.6666666666665
-1.065,0.13,3219.4444444444443
-0.995,0.14,3222.222222222222
-0.94,0.145,3225.0
-0.915,0.135,3227.777777777778
-0.87,0.1,3230.5555555555557
-0.83,0.095,3233.3333333333335
-0.76,0.13,3236.1111111111113
-0.69,0.135,3238.8888888888887
-0.655,0.115,3241.6666666666665
-0.625,0.08,3244.4444444444443
-0.61,0.1,3247.222222222222
-0.585,0.12,3250.0
-0.565,0.115,3252.777777777778
-0.53,0.085,3255.5555555555557
-0.49,0.09,3258.3333333333335
-0.47,0.11,3261.1111111111113
-0.42,0.105,3263.8888888888887
-0.35,0.09,3266.6666666666665
-0.275,0.1,3269.4444444444443
-0.205,0.12,3272.222222222222
-0.155,0.135,3275.0
-0.12,0.11,3277.777777777778
-0.09,0.1,3280.5555555555557
-0.03,0.115,3283.3333333333335
0.02,0.15,3286.1111111111113
0.06,0.145,3288.8888888888887
0.08,0.125,3291.6666666666665
0.095,0.12,3294.4444444444443
0.13,0.15,3297.222222222222
0.15,0.14,3300.0
0.17,0.135,3302.777777777778
0.18,0.135,3305.5555555555557
0.185,0.155,3308.3333333333335
0.21,0.15,3311.1111111111113
0.225,0.125,3313.8888888888887
0.245,0.13,3316.6666666666665
0.27,0.155,3319.4444444444443
0.3,0.155,3322.222222222222
0.315,0.13,3325.0
0.31,0.115,3327.777777777778
0.315,0.125,3330.5555555555557
0.35,0.165,3333.3333333333335
0.37,0.16,3336.1111111111113
0.365,0.135,3338.8888888888887
0.37,0.145,3341.6666666666665
0.385,0.15,3344.4444444444443
0.4,0.16,3347.222222222222
0.425,0.155,3350.0
0.47,0.145,3352.777777777778
0.49,0.165,3355.5555555555557
0.505,0.175,3358.3333333333335
0.505,0.175,3361.1111111111113
0.53,0.145,3363.8888888888887
0.53,0.165,3366.6666666666665
0.535,0.195,3369.4444444444443
0.54,0.185,3372.222222222222
0.545,0.155,3375.0
0.545,0.14,3377.777777777778
0.57,0.145,3380.5555555555557
0.58,0.175,3383.3333333333335
0.57,0.175,3386.1111111111113
0.575,0.15,3388.8888888888887
0.56,0.16,3391.6666666666665
0.55,0.175,3394.4444444444443
0.545,0.18,3397.222222222222
0.555,0.165,3400.0
0.55,0.155,3402.777777777778
0.56,0.155,3405.5555555555557
0.55,0.18,3408.3333333333335
0.53,0.155,3411.1111111111113
0.5,0.14,3413.8888888888887
0.48,0.165,3416.6666666666665
0.465,0.19,3419.4444444444443
0.465,0.165,3422.222222222222
0.44,0.145,3425.0
0.405,0.135,3427.777777777778
0.395,0.155,3430.5555555555557
0.375,0.165,3433.3333333333335
0.36,0.165,3436.1111111111113
0.355,0.14,3438.8888888888887
0.345,0.15,3441.6666666666665
0.29,0.16,3444.4444444444443
0.25,0.145,3447.222222222222
0.22,0.13,3450.0
0.195,0.14,3452.777777777778
0.175,0.16,3455.5555555555557
0.15,0.155,3458.3333333333335
0.12,0.125,3461.1111111111113
0.095,0.125,3463.8888888888887
0.065,0.135,3466.6666666666665
0.055,0.165,3469.4444444444443
0.035,0.155,3472.222222222222
0.02,0.125,3475.0
-0.005,0.115,3477.777777777778
-0.025,0.135,3480.5555555555557
-0.04,0.15,3483.3333333333335
-0.065,0.15,3486.1111111111113
-0.07,0.13,3488.8888888888887
-0.08,0.14,3491.6666666666665
-0.1,0.15,3494.4444444444443
-0.115,0.145,3497.222222222222
-0.135,0.125,3500.0
-0.13,0.135,3502.777777777778
-0.14,0.15,3505.5555555555557
-0.155,0.145,3508.3333333333335
-0.16,0.115,3511.1111111111113
-0.17,0.115,3513.8888888888887
-0.17,0.135,3516.6666666666665
-0.175,0.155,3519.4444444444443
-0.18,0.145,3522.222222222222
-0.205,0.115,3525.0
-0.21,0.115,3527.777777777778
-0.225,0.14,3530.5555555555557
-0.215,0.145,3533.3333333333335
-0.2,0.14,3536.1111111111113
-0.185,0.135,3538.8888888888887
-0.2,0.125,3541.6666666666665
-0.22,0.14,3544.4444444444443
-0.23,0.145,3547.222222222222
-0.23,0.12,3550.0
-0.21,0.12,3552.777777777778
-0.195,0.145,3555.5555555555557
-0.205,0.135,3558.3333333333335
-0.215,0.12,3561.1111111111113
-0.225,0.11,3563.8888888888887
-0.21,0.13,3566.6666666666665
-0.2,0.155,3569.4444444444443
-0.195,0.155,3572.222222222222
-0.2,0.11,3575.0
-0.22,0.115,3577.777777777778
-0.23,0.13,3580.5555555555557
-0.235,0.14,3583.3333333333335
-0.23,0.13,3586.1111111111113
-0.23,0.11,3588.8888888888887
-0.225,0.12,3591.6666666666665
-0.24,0.12,3594.4444444444443
-0.255,0.14,3597.222222222222
-0.25,0.115,3600.0
-0.23,0.125,3602.777777777778
-0.225,0.125,3605.5555555555557
-0.24,0.13,3608.3333333333335
-0.24,0.115,3611.1111111111113
-0.26,0.12,3613.8888888888887
-0.25,0.125,3616.6666666666665
-0.245,0.155,3619.4444444444443
-0.23,0.15,3622.222222222222
-0.215,0.115,3625.0
-0.22,0.105,3627.777777777778
-0.225,0.125,3630.5555555555557
-0.225,0.14,3633.3333333333335
-0.23,0.145,3636.1111111111113
-0.215,0.125,3638.8888888888887
-0.215,0.125,3641.6666666666665
-0.245,0.14,3644.4444444444443
-0.25,0.135,3647.222222222222
-0.245,0.12,3650.0
-0.24,0.135,3652.777777777778
-0.24,0.14,3655.5555555555557
-0.23,0.135,3658.3333333333335
-0.23,0.105,3661.1111111111113
-0.245,0.115,3663.8888888888887
-0.24,0.14,3666.6666666666665
-0.245,0.155,3669.4444444444443
-0.24,0.135,3672.222222222222
-0.245,0.12,3675.0
-0.245,0.13,3677.777777777778
-0.25,0.135,3680.5555555555557
-0.25,0.125,3683.3333333333335
-0.225,0.12,3686.1111111111113
-0.24,0.115,3688.8888888888887
-0.24,0.135,3691.6666666666665
-0.235,0.115,3694.4444444444443
-0.24,0.1,3697.222222222222
-0.24,0.105,3700.0
-0.24,0.135,3702.777777777778
-0.24,0.135,3705.5555555555557
-0.255,0.095,3708.3333333333335
-0.255,0.08,3711.1111111111113
-0.26,0.105,3713.8888888888887
-0.225,0.125,3716.6666666666665
-0.225,0.11,3719.4444444444443
-0.22,0.09,3722.222222222222
-0.215,0.09,3725.0
-0.225,0.11,3727.777777777778
-0.235,0.095,3730.5555555555557
-0.25,0.09,3733.3333333333335
-0.245,0.115,3736.1111111111113
-0.245,0.13,3738.8888888888887
-0.25,0.115,3741.6666666666665
-0.255,0.08,3744.4444444444443
-0.24,0.09,3747.222222222222
-0.215,0.125,3750.0
-0.21,0.125,3752.777777777778
-0.215,0.105,3755.5555555555557
-0.225,0.09,3758.3333333333335
-0.23,0.105,3761.1111111111113
-0.23,0.11,3763.8888888888887
-0.225,0.1,3766.6666666666665
-0.225,0.105,3769.4444444444443
-0.23,0.12,3772.222222222222
-0.225,0.11,3775.0
-0.22,0.085,3777.777777777778
-0.22,0.09,3780.5555555555557
-0.21,0.105,3783.3333333333335
-0.19,0.14,3786.1111111111113
-0.175,0.125,3788.8888888888887
-0.165,0.105,3791.6666666666665
-0.17,0.115,3794.4444444444443
-0.175,0.12,3797.222222222222
-0.17,0.115,3800.0
-0.155,0.13,3802.777777777778
-0.145,0.13,3805.5555555555557
-0.14,0.14,3808.3333333333335
-0.135,0.11,3811.1111111111113
-0.135,0.1,3813.8888888888887
-0.135,0.12,3816.6666666666665
-0.14,0.13,3819.4444444444443
-0.145,0.11,3822.222222222222
-0.155,0.095,3825.0
-0.16,0.095,3827.777777777778
-0.18,0.11,3830.5555555555557
-0.185,0.105,3833.3333333333335
-0.185,0.095,3836.1111111111113
-0.18,0.11,3838.8888888888887
-0.195,0.105,3841.6666666666665
-0.205,0.085,3844.4444444444443
-0.215,0.085,3847.222222222222
-0.22,0.095,3850.0
-0.22,0.125,3852.777777777778
-0.225,0.095,3855.5555555555557
-0.22,0.085,3858.3333333333335
-0.215,0.095,3861.1111111111113
-0.21,0.095,3863.8888888888887
-0.21,0.09,3866.6666666666665
-0.205,0.09,3869.4444444444443
-0.195,0.115,3872.222222222222
-0.2,0.12,3875.0
-0.2,0.105,3877.777777777778
-0.2,0.1,3880.5555555555557
-0.185,0.12,3883.3333333333335
-0.185,0.13,3886.1111111111113
-0.19,0.105,3888.8888888888887
-0.185,0.095,3891.6666666666665
-0.19,0.095,3894.4444444444443
-0.2,0.1,3897.222222222222
-0.21,0.105,3900.0
-0.215,0.11,3902.777777777778
-0.225,0.115,3905.5555555555557
-0.25,0.105,3908.3333333333335
-0.245,0.09,3911.1111111111113
-0.23,0.11,3913.8888888888887
-0.235,0.12,3916.6666666666665
-0.235,0.115,3919.4444444444443
-0.22,0.11,3922.222222222222
-0.215,0.105,3925.0
-0.21,0.105,3927.777777777778
-0.205,0.075,3930.5555555555557
-0.195,0.105,3933.3333333333335
-0.2,0.13,3936.1111111111113
-0.215,0.12,3938.8888888888887
-0.235,0.105,3941.6666666666665
-0.235,0.11,3944.4444444444443
-0.225,0.1,3947.222222222222
-0.17,0.115,3950.0
-0.085,0.11,3952.777777777778
0.015,0.115,3955.5555555555557
0.115,0.13,3958.3333333333335
0.205,0.115,3961.1111111111113
0.295,0.1,3963.8888888888887
0.405,0.115,3966.6666666666665
0.535,0.135,3969.4444444444443
0.685,0.115,3972.222222222222
0.825,0.115,3975.0
0.95,0.125,3977.777777777778
1.05,0.135,3980.5555555555557
1.115,0.145,3983.3333333333335
1.11,0.15,3986.1111111111113
0.995,0.16,3988.8888888888887
0.755,0.155,3991.6666666666665
0.325,0.14,3994.4444444444443
-0.135,0.145,3997.222222222222
-0.42,0.165,4000.0
-0.54,0.19,4002.777777777778
-0.545,0.175,4005.5555555555557
-0.52,0.165,4008.3333333333335
-0.46,0.165,4011.1111111111113
-0.41,0.165,4013.8888888888887
-0.37,0.145,4016.6666666666665
-0.365,0.14,4019.4444444444443
-0.34,0.16,4022.222222222222
-0.35,0.165,4025.0
-0.35,0.14,4027.777777777778
-0.375,0.13,4030.5555555555557
-0.38,0.145,4033.3333333333335
-0.38,0.155,4036.1111111111113
-0.355,0.13,4038.8888888888887
-0.33,0.105,4041.6666666666665
-0.34,0.12,4044.4444444444443
-0.345,0.125,4047.222222222222
-0.325,0.12,4050.0
-0.3,0.115,4052.777777777778
-0.275,0.125,4055.5555555555557
-0.28,0.135,4058.3333333333335
-0.29,0.115,4061.1111111111113
-0.31,0.105,4063.8888888888887
-0.31,0.12,4066.6666666666665
-0.3,0.14,4069.4444444444443
-0.295,0.14,4072.222222222222
-0.3,0.115,4075.0
-0.315,0.11,4077.777777777778
-0.34,0.12,4080.5555555555557
-0.335,0.115,4083.3333333333335
-0.305,0.12,4086.1111111111113
-0.285,0.125,4088.8888888888887
-0.28,0.13,4091.6666666666665
-0.295,0.125,4094.4444444444443
-0.3,0.12,4097.222222222223
-0.295,0.12,4100.0
-0.285,0.14,4102.777777777777
-0.275,0.12,4105.555555555556
-0.285,0.11,4108.333333333333
-0.28,0.125,4111.111111111111
-0.285,0.115,4113.888888888889
-0.27,0.11,4116.666666666667
-0.265,0.125,4119.444444444444
-0.27,0.125,4122.222222222223
-0.27,0.125,4125.0
-0.27,0.1,4127.777777777777
-0.26,0.1,4130.555555555556
-0.24,0.115,4133.333333333333
-0.255,0.14,4136.111111111111
-0.255,0.125,4138.888888888889
-0.255,0.1,4141.666666666667
-0.255,0.105,4144.444444444444
-0.265,0.105,4147.222222222223
-0.26,0.11,4150.0
-0.25,0.105,4152.777777777777
-0.255,0.12,4155.555555555556
-0.255,0.13,4158.333333333333
-0.26,0.105,4161.111111111111
-0.27,0.1,4163.888888888889
-0.255,0.11,4166.666666666667
-0.26,0.13,4169.444444444444
-0.275,0.115,4172.222222222223
-0.26,0.09,4175.0
-0.25,0.085,4177.777777777777
-0.235,0.115,4180.555555555556
-0.225,0.12,4183.333333333333
-0.225,0.115,4186.111111111111
-0.23,0.095,4188.888888888889
-0.22,0.115,4191.666666666667
-0.215,0.095,4194.444444444444
-0.205,0.075,4197.222222222223
-0.195,0.085,4200.0
-0.2,0.12,4202.777777777777
-0.205,0.115,4205.555555555556
-0.22,0.105,4208.333333333333
-0.21,0.095,4211.111111111111
-0.22,0.11,4213.888888888889
-0.21,0.105,4216.666666666667
-0.205,0.1,4219.444444444444
-0.185,0.085,4222.222222222223
-0.195,0.11,4225.0
-0.195,0.125,4227.777777777777
-0.195,0.105,4230.555555555556
-0.175,0.1,4233.333333333333
-0.15,0.12,4236.111111111111
-0.14,0.13,4238.888888888889
-0.145,0.09,4241.666666666667
-0.16,0.07,4244.444444444444
-0.16,0.09,4247.222222222223
-0.145,0.1,4250.0
-0.135,0.105,4252.777777777777
-0.125,0.075,4255.555555555556
-0.125,0.09,4258.333333333333
-0.14,0.095,4261.111111111111
-0.13,0.08,4263.888888888889
-0.11,0.075,4266.666666666667
-0.105,0.1,4269.444444444444
-0.11,0.115,4272.222222222223
-0.13,0.1,4275.0
-0.135,0.08,4277.777777777777
-0.14,0.095,4280.555555555556
-0.14,0.11,4283.333333333333
-0.14,0.115,4286.111111111111
-0.125,0.09,4288.888888888889
-0.125,0.085,4291.666666666667
-0.11,0.105,4294.444444444444
-0.105,0.11,4297.222222222223
-0.125,0.095,4300.0
-0.12,0.12,4302.777777777777
-0.11,0.125,4305.555555555556
-0.11,0.125,4308.333333333333
-0.13,0.085,4311.111111111111
-0.145,0.095,4313.888888888889
-0.145,0.13,4316.666666666667
-0.14,0.12,4319.444444444444
-0.14,0.11,4322.222222222223
-0.135,0.12,4325.0
-0.16,0.11,4327.777777777777
-0.165,0.105,4330.555555555556
-0.165,0.11,4333.333333333333
-0.155,0.11,4336.111111111111
-0.145,0.12,4338.888888888889
-0.155,0.13,4341.666666666667
-0.17,0.125,4344.444444444444
-0.175,0.11,4347.222222222223
-0.16,0.125,4350.0
-0.155,0.135,4352.777777777777
-0.15,0.12,4355.555555555556
-0.165,0.09,4358.333333333333
-0.185,0.095,4361.111111111111
-0.19,0.125,4363.888888888889
-0.18,0.145,4366.666666666667
-0.16,0.13,4369.444444444444
-0.16,0.13,4372.222222222223
-0.16,0.13,4375.0
-0.17,0.125,4377.777777777777
-0.19,0.11,4380.555555555556
-0.175,0.1,4383.333333333333
-0.18,0.13,4386.111111111111
-0.18,0.14,4388.888888888889
-0.165,0.12,4391.666666666667
-0.155,0.11,4394.444444444444
-0.145,0.12,4397.222222222223
-0.11,0.15,4400.0
-0.07,0.15,4402.777777777777
-0.05,0.125,4405.555555555556
-0.025,0.12,4408.333333333333
-0.005,0.145,4411.111111111111
0.0,0.14,4413.888888888889
0.03,0.145,4416.666666666667
0.06,0.14,4419.444444444444
0.075,0.145,4422.222222222223
0.085,0.14,4425.0
0.075,0.105,4427.777777777777
0.09,0.09,4430.555555555556
0.135,0.095,4433.333333333333
0.155,0.11,4436.111111111111
0.145,0.06,4438.888888888889
0.09,0.045,4441.666666666667
-0.025,0.03,4444.444444444444
-0.24,0.02,4447.222222222223
-0.58,-0.005,4450.0
-0.965,-0.015,4452.777777777777
-1.34,-0.005,4455.555555555556
-1.695,0.015,4458.333333333333
-1.98,0.005,4461.111111111111
-2.125,-0.01,4463.888888888889
-2.135,0.015,4466.666666666667
-2.125,0.03,4469.444444444444
-2.09,0.03,4472.222222222223
-2.075,0.01,4475.0
-2.015,0.0,4477.777777777777
-1.95,0.03,4480.555555555556
-1.85,0.07,4483.333333333333
-1.735,0.09,4486.111111111111
-1.645,0.09,4488.888888888889
-1.55,0.095,4491.666666666667
-1.425,0.125,4494.444444444444
-1.29,0.135,4497.222222222223
-1.185,0.12,4500.0
-1.105,0.115,4502.777777777777
-1.035,0.135,4505.555555555556
-0.965,0.14,4508.333333333333
-0.9,0.125,4511.111111111111
-0.83,0.125,4513.888888888889
-0.765,0.14,4516.666666666667
-0.705,0.155,4519.444444444444
-0.66,0.13,4522.222222222223
-0.635,0.1,4525.0
-0.575,0.12,4527.777777777777
-0.52,0.13,4530.555555555556
-0.46,0.13,4533.333333333333
-0.405,0.135,4536.111111111111
-0.35,0.12,4538.888888888889
-0.29,0.145,4541.666666666667
-0.215,0.14,4544.444444444444
-0.16,0.125,4547.222222222223
-0.095,0.13,4550.0
-0.025,0.155,4552.777777777777
0.02,0.18,4555.555555555556
0.075,0.17,4558.333333333333
0.12,0.14,4561.111111111111
0.135,0.15,4563.888888888889
0.18,0.175,4566.666666666667
0.2,0.19,4569.444444444444
0.22,0.155,4572.222222222223
0.25,0.15,4575.0
0.27,0.15,4577.777777777777
0.28,0.165,4580.555555555556
0.295,0.175,4583.333333333333
0.315,0.165,4586.111111111111
0.345,0.165,4588.888888888889
0.36,0.17,4591.666666666667
0.375,0.155,4594.444444444444
0.37,0.15,4597.222222222223
0.39,0.16,4600.0
0.405,0.2,4602.777777777777
0.435,0.195,4605.555555555556
0.455,0.18,4608.333333333333
0.47,0.17,4611.111111111111
0.49,0.185,4613.888888888889
0.52,0.185,4616.666666666667
0.545,0.185,4619.444444444444
0.555,0.16,4622.222222222223
0.585,0.165,4625.0
0.6,0.18,4627.777777777777
0.62,0.18,4630.555555555556
0.635,0.18,4633.333333333333
0.67,0.185,4636.111111111111
0.68,0.195,4638.888888888889
0.69,0.175,4641.666666666667
0.685,0.15,4644.444444444444
0.695,0.15,4647.222222222223
0.725,0.185,4650.0
0.74,0.2,4652.777777777777
0.755,0.18,4655.555555555556
0.765,0.165,4658.333333333333
0.765,0.17,4661.111111111111
0.765,0.185,4663.888888888889
0.78,0.185,4666.666666666667
0.8,0.16,4669.444444444444
0.815,0.165,4672.222222222223
0.79,0.175,4675.0
0.79,0.175,4677.777777777777
0.765,0.16,4680.555555555556
0.765,0.16,4683.333333333333
0.78,0.19,4686.111111111111
0.78,0.185,4688.888888888889
0.78,0.16,4691.666666666667
0.745,0.135,4694.444444444444
0.715,0.15,4697.222222222223
0.71,0.17,4700.0
0.71,0.175,4702.777777777777
0.7,0.155,4705.555555555556
0.67,0.155,4708.333333333333
0.63,0.15,4711.111111111111
0.58,0.13,4713.888888888889
0.535,0.13,4716.666666666667
0.495,0.16,4719.444444444444
0.465,0.175,4722.222222222223
0.445,0.155,4725.0
0.41,0.145,4727.777777777777
0.395,0.135,4730.555555555556
0.375,0.17,4733.333333333333
0.365,0.165,4736.111111111111
0.345,0.135,4738.888888888889
0.32,0.14,4741.666666666667
0.28,0.16,4744.444444444444
0.245,0.16,4747.222222222223
0.215,0.145,4750.0
0.195,0.155,4752.777777777777
0.18,0.15,4755.555555555556
0.15,0.145,4758.333333333333
0.12,0.13,4761.111111111111
0.095,0.125,4763.888888888889
0.095,0.15,4766.666666666667
0.095,0.16,4769.444444444444
0.08,0.145,4772.222222222223
0.065,0.13,4775.0
0.04,0.14,4777.777777777777
0.02,0.135,4780.555555555556
0.0,0.12,4783.333333333333
0.0,0.115,4786.111111111111
0.0,0.14,4788.888888888889
-0.02,0.145,4791.666666666667
-0.02,0.12,4794.444444444444
-0.03,0.115,4797.222222222223
-0.035,0.135,4800.0
-0.03,0.14,4802.777777777777
-0.03,0.125,4805.555555555556
-0.04,0.09,4808.333333333333
-0.07,0.12,4811.111111111111
-0.08,0.135,4813.888888888889
-0.065,0.12,4816.666666666667
-0.07,0.125,4819.444444444444
-0.055,0.135,4822.222222222223
-0.07,0.125,4825.0
-0.085,0.1,4827.777777777777
-0.09,0.085,4830.555555555556
-0.09,0.115,4833.333333333333
-0.06,0.135,4836.111111111111
-0.055,0.11,4838.888888888889
-0.065,0.1,4841.666666666667
-0.095,0.105,4844.444444444444
-0.105,0.11,4847.222222222223
-0.105,0.08,4850.0
-0.09,0.095,4852.777777777777
-0.08,0.105,4855.555555555556
-0.075,0.105,4858.333333333333
-0.085,0.08,4861.111111111111
-0.1,0.08,4863.888888888889
-0.075,0.115,4866.666666666667
-0.08,0.115,4869.444444444444
-0.08,0.09,4872.222222222223
-0.085,0.08,4875.0
-0.11,0.1,4877.777777777777
-0.12,0.105,4880.555555555556
-0.11,0.085,4883.333333333333
-0.095,0.1,4886.111111111111
-0.08,0.11,4888.888888888889
-0.09,0.105,4891.666666666667
-0.09,0.08,4894.444444444444
-0.105,0.08,4897.222222222223
-0.115,0.12,4900.0
-0.1,0.12,4902.777777777777
-0.095,0.1,4905.555555555556
-0.11,0.095,4908.333333333333
-0.125,0.115,4911.111111111111
-0.145,0.095,4913.888888888889
-0.16,0.085,4916.666666666667
-0.155,0.11,4919.444444444444
-0.15,0.13,4922.222222222223
-0.135,0.115,4925.0
-0.125,0.08,4927.777777777777
-0.13,0.11,4930.555555555556
-0.11,0.125,4933.333333333333
-0.125,0.12,4936.111111111111
-0.12,0.1,4938.888888888889
-0.13,0.115,4941.666666666667
-0.145,0.115,4944.444444444444
-0.15,0.1,4947.222222222223
-0.145,0.1,4950.0
-0.14,0.13,4952.777777777777
-0.145,0.12,4955.555555555556
-0.15,0.09,4958.333333333333
-0.16,0.075,4961.111111111111
-0.17,0.095,4963.888888888889
-0.16,0.12,4966.666666666667
-0.155,0.115,4969.444444444444
-0.155,0.095,4972.222222222223
-0.155,0.11,4975.0
-0.15,0.125,4977.777777777777
-0.16,0.1,4980.555555555556
-0.16,0.095,4983.333333333333
-0.16,0.125,4986.111111111111
-0.145,0.14,4988.888888888889
-0.15,0.115,4991.666666666667
-0.155,0.075,4994.444444444444
-0.18,0.105,4997.222222222223
-0.175,0.12,5000.0
-0.165,0.105,5002.777777777777
-0.155,0.09,5005.555555555556
-0.145,0.105,5008.333333333333
-0.165,0.125,5011.111111111111
-0.18,0.115,5013.888888888889
-0.17,0.1,5016.666666666667
-0.16,0.12,5019.444444444444
-0.165,0.135,5022.222222222223
-0.165,0.135,5025.0
-0.16,0.095,5027.777777777777
-0.155,0.095,5030.555555555556
-0.145,0.13,5033.333333333333
-0.135,0.15,5036.111111111111
-0.115,0.125,5038.888888888889
-0.105,0.125,5041.666666666667
-0.095,0.135,5044.444444444444
-0.09,0.145,5047.222222222223
-0.085,0.11,5050.0
-0.09,0.12,5052.777777777777
-0.095,0.135,5055.555555555556
-0.12,0.125,5058.333333333333
-0.15,0.115,5061.111111111111
-0.17,0.1,5063.888888888889
-0.165,0.125,5066.666666666667
-0.17,0.14,5069.444444444444
-0.17,0.11,5072.222222222223
-0.17,0.095,5075.0
-0.18,0.1,5077.777777777777
-0.18,0.115,5080.555555555556
-0.17,0.1,5083.333333333333
-0.175,0.1,5086.111111111111
-0.18,0.125,5088.888888888889
-0.185,0.125,5091.666666666667
-0.19,0.1,5094.444444444444
-0.2,0.095,5097.222222222223
-0.175,0.115,5100.0
-0.175,0.14,5102.777777777777
-0.165,0.12,5105.555555555556
-0.14,0.09,5108.333333333333
-0.14,0.105,5111.111111111111
-0.155,0.115,5113.888888888889
-0.155,0.11,5116.666666666667
-0.155,0.105,5119.444444444444
-0.16,0.105,5122.222222222223
-0.175,0.125,5125.0
-0.19,0.105,5127.777777777777
-0.205,0.095,5130.555555555556
-0.205,0.095,5133.333333333333
-0.2,0.13,5136.111111111111
-0.19,0.12,5138.888888888889
-0.2,0.09,5141.666666666667
-0.21,0.08,5144.444444444444
-0.22,0.1,5147.222222222223
-0.21,0.12,5150.0
-0.21,0.105,5152.777777777777
-0.205,0.11,5155.555555555556
-0.205,0.125,5158.333333333333
-0.2,0.12,5161.111111111111
-0.2,0.09,5163.888888888889
-0.185,0.09,5166.666666666667
-0.185,0.12,5169.444444444444
-0.185,0.135,5172.222222222223
-0.19,0.12,5175.0
-0.205,0.1,5177.777777777777
-0.21,0.105,5180.555555555556
-0.215,0.125,5183.333333333333
-0.22,0.12,5186.111111111111
-0.25,0.08,5188.888888888889
-0.26,0.08,5191.666666666667
-0.235,0.095,5194.444444444444
-0.195,0.095,5197.222222222223
-0.135,0.095,5200.0
-0.03,0.1,5202.777777777777
0.095,0.11,5205.555555555556
0.195,0.115,5208.333333333333
0.285,0.1,5211.111111111111
0.36,0.09,5213.888888888889
0.46,0.125,5216.666666666667
0.58,0.145,5219.444444444444
0.695,0.135,5222.222222222223
0.81,0.115,5225.0
0.895,0.13,5227.777777777777
0.945,0.145,5230.555555555556
0.94,0.135,5233.333333333333
0.845,0.13,5236.111111111111
0.725,0.12,5238.888888888889
0.545,0.145,5241.666666666667
0.285,0.16,5244.444444444444
-0.025,0.14,5247.222222222223
-0.27,0.155,5250.0
-0.405,0.19,5252.777777777777
-0.47,0.185,5255.555555555556
-0.49,0.16,5258.333333333333
-0.465,0.135,5261.111111111111
-0.425,0.165,5263.888888888889
-0.385,0.175,5266.666666666667
-0.35,0.16,5269.444444444444
-0.34,0.145,5272.222222222223
-0.315,0.15,5275.0
-0.315,0.145,5277.777777777777
-0.33,0.125,5280.555555555556
-0.35,0.115,5283.333333333333
-0.36,0.13,5286.111111111111
-0.375,0.13,5288.888888888889
-0.38,0.115,5291.666666666667
-0.38,0.085,5294.444444444444
-0.38,0.07,5297.222222222223
-0.36,0.105,5300.0
-0.345,0.1,5302.777777777777
-0.32,0.08,5305.555555555556
-0.31,0.075,5308.333333333333
-0.32,0.09,5311.111111111111
-0.335,0.1,5313.888888888889
-0.335,0.075,5316.666666666667
-0.33,0.09,5319.444444444444
-0.33,0.105,5322.222222222223
-0.325,0.105,5325.0
-0.345,0.07,5327.777777777777
-0.335,0.055,5330.555555555556
-0.335,0.07,5333.333333333333
-0.34,0.115,5336.111111111111
-0.32,0.085,5338.888888888889
-0.325,0.055,5341.666666666667
-0.325,0.05,5344.444444444444
-0.325,0.08,5347.222222222223
-0.31,0.085,5350.0
-0.305,0.07,5352.777777777777
-0.31,0.07,5355.555555555556
-0.315,0.085,5358.333333333333
-0.315,0.085,5361.111111111111
-0.305,0.07,5363.888888888889
-0.3,0.06,5366.666666666667
-0.295,0.105,5369.444444444444
-0.285,0.11,5372.222222222223
-0.295,0.075,5375.0
-0.3,0.055,5377.777777777777
-0.31,0.075,5380.555555555556
-0.3,0.1,5383.333333333333
-0.275,0.095,5386.111111111111
-0.275,0.08,5388.888888888889
-0.28,0.085,5391.666666666667
-0.28,0.095,5394.444444444444
-0.29,0.095,5397.222222222223
-0.295,0.075,5400.0
-0.28,0.1,5402.777777777777
-0.29,0.11,5405.555555555556
-0.285,0.105,5408.333333333333
-0.295,0.07,5411.111111111111
-0.3,0.065,5413.888888888889
-0.285,0.095,5416.666666666667
-0.26,0.115,5419.444444444444
-0.245,0.095,5422.222222222223
-0.225,0.07,5425.0
-0.24,0.07,5427.777777777777
-0.265,0.1,5430.555555555556
-0.27,0.095,5433.333333333333
-0.26,0.085,5436.111111111111
-0.265,0.08,5438.888888888889
-0.235,0.105,5441.666666666667
-0.245,0.09,5444.444444444444
-0.25,0.07,5447.222222222223
-0.24,0.065,5450.0
-0.24,0.1,5452.777777777777
-0.225,0.12,5455.555555555556
-0.22,0.095,5458.333333333333
-0.235,0.08,5461.111111111111
-0.235,0.08,5463.888888888889
-0.225,0.105,5466.666666666667
-0.22,0.12,5469.444444444444
-0.235,0.085,5472.222222222223
-0.25,0.08,5475.0
-0.24,0.09,5477.777777777777
-0.23,0.11,5480.555555555556
-0.185,0.09,5483.333333333333
-0.175,0.085,5486.111111111111
-0.16,0.1,5488.888888888889
-0.17,0.115,5491.666666666667
-0.19,0.095,5494.444444444444
-0.205,0.07,5497.222222222223
-0.2,0.085,5500.0
-0.215,0.1,5502.777777777777
-0.21,0.12,5505.555555555556
-0.19,0.095,5508.333333333333
-0.2,0.07,5511.111111111111
-0.205,0.09,5513.888888888889
-0.18,0.12,5516.666666666667
-0.175,0.105,5519.444444444444
-0.175,0.085,5522.222222222223
-0.18,0.08,5525.0
-0.19,0.09,5527.777777777777
-0.205,0.09,5530.555555555556
-0.19,0.08,5533.333333333333
-0.185,0.095,5536.111111111111
-0.16,0.115,5538.888888888889
-0.175,0.115,5541.666666666667
-0.2,0.1,5544.444444444444
-0.22,0.085,5547.222222222223
-0.22,0.11,5550.0
-0.2,0.13,5552.777777777777
-0.19,0.125,5555.555555555556
-0.17,0.09,5558.333333333333
-0.175,0.09,5561.111111111111
-0.185,0.115,5563.888888888889
-0.18,0.13,5566.666666666667
-0.18,0.115,5569.444444444444
-0.17,0.095,5572.222222222223
-0.17,0.11,5575.0
-0.17,0.12,5577.777777777777
-0.225,0.11,5580.555555555556
-0.205,0.1,5583.333333333333
-0.215,0.125,5586.111111111111
-0.225,0.13,5588.888888888889
-0.225,0.135,5591.666666666667
-0.22,0.11,5594.444444444444
-0.215,0.095,5597.222222222223
-0.195,0.125,5600.0
-0.195,0.145,5602.777777777777
-0.195,0.12,5605.555555555556
-0.215,0.115,5608.333333333333
-0.235,0.115,5611.111111111111
-0.22,0.14,5613.888888888889
-0.21,0.11,5616.666666666667
-0.18,0.11,5619.444444444444
-0.19,0.125,5622.222222222223
-0.18,0.125,5625.0
-0.195,0.11,5627.777777777777
-0.215,0.1,5630.555555555556
-0.21,0.12,5633.333333333333
-0.21,0.135,5636.111111111111
-0.21,0.13,5638.888888888889
-0.225,0.105,5641.666666666667
-0.24,0.08,5644.444444444444
-0.26,0.115,5647.222222222223
-0.25,0.11,5650.0
-0.24,0.1,5652.777777777777
-0.23,0.09,5655.555555555556
-0.22,0.105,5658.333333333333
-0.25,0.105,5661.111111111111
-0.27,0.08,5663.888888888889
-0.265,0.075,5666.666666666667
-0.275,0.1,5669.444444444444
-0.26,0.095,5672.222222222223
-0.255,0.09,5675.0
-0.25,0.055,5677.777777777777
-0.25,0.07,5680.555555555556
-0.235,0.1,5683.333333333333
-0.22,0.11,5686.111111111111
-0.21,0.075,5688.888888888889
-0.21,0.065,5691.666666666667
-0.205,0.07,5694.444444444444
-0.21,0.075,5697.222222222223
-0.19,0.065,5700.0
-0.175,0.055,5702.777777777777
-0.155,0.05,5705.555555555556
-0.08,0.045,5708.333333333333
0.015,0.03,5711.111111111111
0.085,0.0,5713.888888888889
0.12,0.01,5716.666666666667
0.115,0.04,5719.444444444444
0.1,0.025,5722.222222222223
0.09,0.0,5725.0
0.02,-0.005,5727.777777777777
-0.11,0.01,5730.555555555556
-0.395,0.015,5733.333333333333
-0.79,-0.005,5736.111111111111
-1.175,-0.005,5738.888888888889
-1.45,0.015,5741.666666666667
-1.645,0.015,5744.444444444444
-1.77,0.0,5747.222222222223
-1.845,0.02,5750.0
-1.905,0.045,5752.777777777777
-1.915,0.045,5755.555555555556
-1.89,0.025,5758.333333333333
-1.875,0.02,5761.111111111111
-1.86,0.055,5763.888888888889
-1.775,0.07,5766.666666666667
-1.61,0.08,5769.444444444444
-1.445,0.09,5772.222222222223
-1.305,0.1,5775.0
-1.21,0.105,5777.777777777777
-1.15,0.095,5780.555555555556
-1.05,0.11,5783.333333333333
-0.96,0.13,5786.111111111111
-0.91,0.125,5788.888888888889
-0.885,0.115,5791.666666666667
-0.86,0.095,5794.444444444444
-0.825,0.125,5797.222222222223
-0.79,0.115,5800.0
-0.725,0.12,5802.777777777777
-0.67,0.105,5805.555555555556
-0.59,0.11,5808.333333333333
-0.575,0.105,5811.111111111111
-0.54,0.09,5813.888888888889
-0.495,0.085,5816.666666666667
-0.435,0.11,5819.444444444444
-0.36,0.13,5822.222222222223
-0.28,0.11,5825.0
-0.22,0.095,5827.777777777777
-0.16,0.11,5830.555555555556
-0.1,0.135,5833.333333333333
-0.045,0.12,5836.111111111111
0.0,0.115,5838.888888888889
0.035,0.135,5841.666666666667
0.055,0.135,5844.444444444444
0.06,0.1,5847.222222222223
0.08,0.115,5850.0
0.095,0.14,5852.777777777777
0.105,0.135,5855.555555555556
0.105,0.105,5858.333333333333
0.115,0.095,5861.111111111111
0.165,0.13,5863.888888888889
0.195,0.14,5866.666666666667
0.215,0.115,5869.444444444444
0.23,0.12,5872.222222222223
0.23,0.135,5875.0
0.225,0.12,5877.777777777777
0.225,0.095,5880.555555555556
0.25,0.11,5883.333333333333
0.28,0.15,5886.111111111111
0.31,0.145,5888.888888888889
0.33,0.105,5891.666666666667
0.35,0.11,5894.444444444444
0.345,0.12,5897.222222222223
0.37,0.125,5900.0
0.4,0.12,5902.777777777777
0.415,0.125,5905.555555555556
0.435,0.14,5908.333333333333
0.425,0.11,5911.111111111111
0.425,0.105,5913.888888888889
0.435,0.12,5916.666666666667
0.45,0.135,5919.444444444444
0.465,0.115,5922.222222222223
0.495,0.1,5925.0
0.52,0.12,5927.777777777777
0.525,0.105,5930.555555555556
0.525,0.11,5933.333333333333
0.545,0.125,5936.111111111111
0.56,0.115,5938.888888888889
0.565,0.105,5941.666666666667
0.555,0.09,5944.444444444444
0.525,0.105,5947.222222222223
0.53,0.125,5950.0
0.53,0.12,5952.777777777777
0.52,0.1,5955.555555555556
0.51,0.095,5958.333333333333
0.48,0.105,5961.111111111111
0.455,0.09,5963.888888888889
0.46,0.085,5966.666666666667
0.455,0.13,5969.444444444444
0.44,0.125,5972.222222222223
0.435,0.1,5975.0
0.395,0.09,5977.777777777777
0.355,0.105,5980.555555555556
0.345,0.11,5983.333333333333
0.34,0.09,5986.111111111111
0.335,0.1,5988.888888888889
0.305,0.12,5991.666666666667
0.26,0.11,5994.444444444444
0.205,0.08,5997.222222222223
0.155,0.105,6000.0
0.13,0.105,6002.777777777777
0.095,0.105,6005.555555555556
0.095,0.08,6008.333333333333
0.06,0.085,6011.111111111111
0.04,0.095,6013.888888888889
0.01,0.095,6016.666666666667
0.01,0.1,6019.444444444444
-0.015,0.11,6022.222222222223
-0.04,0.105,6025.0
-0.06,0.09,6027.777777777777
-0.075,0.085,6030.555555555556
-0.065,0.1,6033.333333333333
-0.06,0.12,6036.111111111111
-0.06,0.11,6038.888888888889
-0.075,0.09,6041.666666666667
-0.1,0.09,6044.444444444444
-0.095,0.095,6047.222222222223
-0.1,0.095,6050.0
-0.11,0.1,6052.777777777777
-0.12,0.11,6055.555555555556
-0.145,0.115,6058.333333333333
-0.155,0.095,6061.111111111111
-0.175,0.09,6063.888888888889
-0.17,0.1,6066.666666666667
-0.15,0.12,6069.444444444444
-0.155,0.1,6072.222222222223
-0.16,0.09,6075.0
-0.185,0.095,6077.777777777777
-0.215,0.095,6080.555555555556
-0.22,0.1,6083.333333333333
-0.185,0.105,6086.111111111111
-0.18,0.11,6088.888888888889
-0.165,0.09,6091.666666666667
-0.18,0.085,6094.444444444444
-0.18,0.09,6097.222222222223
-0.175,0.125,6100.0
-0.16,0.13,6102.777777777777
-0.135,0.11,6105.555555555556
-0.145,0.11,6108.333333333333
-0.145,0.105,6111.111111111111
-0.15,0.1,6113.888888888889
-0.13,0.095,6116.666666666667
-0.12,0.12,6119.444444444444
-0.135,0.125,6122.222222222223
-0.14,0.11,6125.0
-0.145,0.085,6127.777777777777
-0.145,0.095,6130.555555555556
-0.145,0.125,6133.333333333333
-0.14,0.115,6136.111111111111
-0.16,0.1,6138.888888888889
-0.15,0.105,6141.666666666667
-0.155,0.12,6144.444444444444
-0.16,0.085,6147.222222222223
-0.155,0.1,6150.0
-0.18,0.12,6152.777777777777
-0.18,0.125,6155.555555555556
-0.165,0.1,6158.333333333333
-0.17,0.08,6161.111111111111
-0.18,0.1,6163.888888888889
-0.2,0.115,6166.666666666667
-0.195,0.125,6169.444444444444
-0.185,0.11,6172.222222222223
-0.185,0.1,6175.0
-0.195,0.105,6177.777777777777
-0.225,0.085,6180.555555555556
-0.215,0.085,6183.333333333333
-0.195,0.105,6186.111111111111
-0.16,0.135,6188.888888888889
-0.15,0.105,6191.666666666667
-0.175,0.09,6194.444444444444
-0.19,0.095,6197.222222222223
-0.205,0.095,6200.0
-0.195,0.115,6202.777777777777
-0.18,0.095,6205.555555555556
-0.175,0.09,6208.333333333333
-0.17,0.11,6211.111111111111
-0.19,0.11,6213.888888888889
-0.16,0.105,6216.666666666667
-0.145,0.115,6219.444444444444
-0.135,0.125,6222.222222222223
-0.14,0.12,6225.0
-0.145,0.085,6227.777777777777
-0.17,0.095,6230.555555555556
-0.16,0.135,6233.333333333333
-0.135,0.15,6236.111111111111
-0.125,0.125,6238.888888888889
-0.165,0.11,6241.666666666667
-0.2,0.105,6244.444444444444
-0.225,0.1,6247.222222222223
-0.215,0.11,6250.0
-0.19,0.11,6252.777777777777
-0.17,0.12,6255.555555555556
-0.175,0.12,6258.333333333333
-0.185,0.1,6261.111111111111
-0.185,0.11,6263.888888888889
-0.155,0.11,6266.666666666667
-0.15,0.13,6269.444444444444
-0.135,0.115,6272.222222222223
-0.13,0.09,6275.0
-0.125,0.115,6277.777777777777
-0.135,0.115,6280.555555555556
-0.12,0.135,6283.333333333333
-0.1,0.12,6286.111111111111
-0.09,0.13,6288.888888888889
-0.08,0.125,6291.666666666667
-0.08,0.11,6294.444444444444
-0.095,0.095,6297.222222222223
-0.09,0.115,6300.0
-0.085,0.13,6302.777777777777
-0.11,0.125,6305.555555555556
-0.12,0.105,6308.333333333333
-0.13,0.095,6311.111111111111
-0.155,0.1,6313.888888888889
-0.135,0.1,6316.666666666667
-0.135,0.085,6319.444444444444
-0.125,0.105,6322.222222222223
-0.14,0.105,6325.0
-0.155,0.095,6327.777777777777
-0.175,0.075,6330.555555555556
-0.15,0.075,6333.333333333333
-0.165,0.11,6336.111111111111
-0.165,0.105,6338.888888888889
-0.16,0.07,6341.666666666667
-0.185,0.055,6344.444444444444
-0.215,0.07,6347.222222222223
-0.21,0.095,6350.0
-0.175,0.095,6352.777777777777
-0.145,0.08,6355.555555555556
-0.15,0.09,6358.333333333333
-0.17,0.09,6361.111111111111
-0.18,0.085,6363.888888888889
-0.15,0.065,6366.666666666667
-0.15,0.09,6369.444444444444
-0.135,0.11,6372.222222222223
-0.155,0.095,6375.0
-0.17,0.07,6377.777777777777
-0.195,0.07,6380.555555555556
-0.185,0.095,6383.333333333333
-0.185,0.09,6386.111111111111
-0.17,0.06,6388.888888888889
-0.17,0.07,6391.666666666667
-0.18,0.075,6394.444444444444
-0.185,0.09,6397.222222222223
-0.185,0.085,6400.0
-0.195,0.08,6402.777777777777
-0.21,0.1,6405.555555555556
-0.21,0.1,6408.333333333333
-0.2,0.075,6411.111111111111
-0.175,0.06,6413.888888888889
-0.165,0.08,6416.666666666667
-0.165,0.11,6419.444444444444
-0.185,0.095,6422.222222222223
-0.21,0.075,6425.0
-0.24,0.075,6427.777777777777
-0.245,0.08,6430.555555555556
-0.245,0.085,6433.333333333333
-0.24,0.075,6436.111111111111
-0.215,0.075,6438.888888888889
-0.185,0.08,6441.666666666667
-0.125,0.09,6444.444444444444
-0.05,0.07,6447.222222222223
0.035,0.07,6450.0
0.145,0.105,6452.777777777777
0.235,0.1,6455.555555555556
0.325,0.075,6458.333333333333
0.44,0.065,6461.111111111111
0.555,0.09,6463.888888888889
0.695,0.13,6466.666666666667
0.83,0.135,6469.444444444444
0.965,0.115,6472.222222222223
1.095,0.12,6475.0
1.155,0.125,6477.777777777777
1.145,0.11,6480.555555555556
1.065,0.09,6483.333333333333
0.92,0.11,6486.111111111111
0.66,0.14,6488.888888888889
0.215,0.14,6491.666666666667
-0.185,0.12,6494.444444444444
-0.405,0.135,6497.222222222223
-0.48,0.155,6500.0
-0.49,0.15,6502.777777777777
-0.46,0.13,6505.555555555556
-0.42,0.12,6508.333333333333
-0.37,0.13,6511.111111111111
-0.35,0.13,6513.888888888889
-0.34,0.13,6516.666666666667
-0.34,0.12,6519.444444444444
-0.34,0.12,6522.222222222223
-0.355,0.13,6525.0
-0.385,0.1,6527.777777777777
-0.39,0.085,6530.555555555556
-0.375,0.095,6533.333333333333
-0.365,0.12,6536.111111111111
-0.37,0.12,6538.888888888889
-0.36,0.09,6541.666666666667
-0.355,0.085,6544.444444444444
-0.37,0.08,6547.222222222223
-0.335,0.095,6550.0
-0.315,0.09,6552.777777777777
-0.305,0.07,6555.555555555556
-0.295,0.08,6558.333333333333
-0.31,0.1,6561.111111111111
-0.32,0.085,6563.888888888889
-0.305,0.09,6566.666666666667
-0.29,0.105,6569.444444444444
-0.275,0.1,6572.222222222223
-0.275,0.085,6575.0
-0.265,0.06,6577.777777777777
-0.275,0.065,6580.555555555556
-0.285,0.09,6583.333333333333
-0.28,0.11,6586.111111111111
-0.275,0.09,6588.888888888889
-0.265,0.085,6591.666666666667
-0.27,0.085,6594.444444444444
-0.265,0.095,6597.222222222223
-0.25,0.08,6600.0
-0.255,0.085,6602.777777777777
-0.265,0.1,6605.555555555556
-0.275,0.105,6608.333333333333
-0.3,0.095,6611.111111111111
-0.31,0.07,6613.888888888889
-0.3,0.095,6616.666666666667
-0.27,0.115,6619.444444444444
-0.255,0.1,6622.222222222223
-0.26,0.08,6625.0
-0.265,0.065,6627.777777777777
-0.275,0.095,6630.555555555556
-0.245,0.11,6633.333333333333
-0.235,0.105,6636.111111111111
-0.26,0.1,6638.888888888889
-0.29,0.11,6641.666666666667
-0.305,0.11,6644.444444444444
-0.315,0.09,6647.222222222223
-0.305,0.08,6650.0
-0.285,0.11,6652.777777777777
-0.265,0.125,6655.555555555556
-0.245,0.125,6658.333333333333
-0.24,0.105,6661.111111111111
-0.235,0.1,6663.888888888889
-0.235,0.115,6666.666666666667
-0.22,0.135,6669.444444444444
-0.2,0.105,6672.222222222223
-0.21,0.09,6675.0
-0.225,0.105,6677.777777777777
-0.255,0.12,6680.555555555556
-0.235,0.11,6683.333333333333
-0.22,0.105,6686.111111111111
-0.205,0.125,6688.888888888889
-0.2,0.12,6691.666666666667
-0.2,0.1,6694.444444444444
-0.21,0.095,6697.222222222223
-0.235,0.11,6700.0
-0.25,0.13,6702.777777777777
-0.25,0.125,6705.555555555556
-0.235,0.115,6708.333333333333
-0.215,0.11,6711.111111111111
-0.21,0.11,6713.888888888889
-0.2,0.105,6716.666666666667
-0.195,0.115,6719.444444444444
-0.18,0.115,6722.222222222223
-0.185,0.125,6725.0
-0.18,0.12,6727.777777777777
-0.185,0.095,6730.555555555556
-0.155,0.125,6733.333333333333
-0.14,0.14,6736.111111111111
-0.12,0.125,6738.888888888889
-0.145,0.095,6741.666666666667
-0.185,0.095,6744.444444444444
-0.235,0.115,6747.222222222223
-0.225,0.14,6750.0
-0.195,0.125,6752.777777777777
-0.155,0.125,6755.555555555556
-0.145,0.135,6758.333333333333
-0.125,0.13,6761.111111111111
-0.125,0.11,6763.888888888889
-0.12,0.105,6766.666666666667
-0.12,0.145,6769.444444444444
-0.125,0.14,6772.222222222223
-0.135,0.115,6775.0
-0.135,0.12,6777.777777777777
-0.15,0.12,6780.555555555556
-0.135,0.115,6783.333333333333
-0.125,0.105,6786.111111111111
-0.12,0.12,6788.888888888889
-0.105,0.13,6791.666666666667
-0.1,0.11,6794.444444444444
-0.105,0.095,6797.222222222223
-0.12,0.11,6800.0
-0.14,0.12,6802.777777777777
-0.135,0.1,6805.555555555556
-0.15,0.075,6808.333333333333
-0.15,0.085,6811.111111111111
-0.165,0.105,6813.888888888889
-0.16,0.105,6816.666666666667
-0.15,0.08,6819.444444444444
-0.165,0.1,6822.222222222223
-0.185,0.11,6825.0
-0.185,0.07,6827.777777777777
-0.195,0.07,6830.555555555556
-0.19,0.095,6833.333333333333
-0.19,0.11,6836.111111111111
-0.2,0.095,6838.888888888889
-0.21,0.075,6841.666666666667
-0.23,0.075,6844.444444444444
-0.23,0.09,6847.222222222223
-0.205,0.08,6850.0
-0.18,0.06,6852.777777777777
-0.185,0.07,6855.555555555556
-0.175,0.09,6858.333333333333
-0.175,0.085,6861.111111111111
-0.19,0.06,6863.888888888889
-0.19,0.075,6866.666666666667
-0.23,0.105,6869.444444444444
-0.275,0.085,6872.222222222223
-0.295,0.065,6875.0
-0.29,0.06,6877.777777777777
-0.275,0.075,6880.555555555556
-0.25,0.095,6883.333333333333
-0.215,0.075,6886.111111111111
-0.18,0.08,6888.888888888889
-0.185,0.085,6891.666666666667
-0.17,0.065,6894.444444444444
-0.17,0.06,6897.222222222223
-0.13,0.075,6900.0
-0.1,0.095,6902.777777777777
-0.065,0.09,6905.555555555556
-0.045,0.065,6908.333333333333
-0.055,0.07,6911.111111111111
-0.045,0.07,6913.888888888889
-0.03,0.06,6916.666666666667
-0.025,0.04,6919.444444444444
0.0,0.04,6922.222222222223
0.02,0.045,6925.0
0.01,0.02,6927.777777777777
-0.03,0.0,6930.555555555556
-0.085,0.0,6933.333333333333
-0.195,0.005,6936.111111111111
-0.445,-0.03,6938.888888888889
-0.835,-0.06,6941.666666666667
-1.26,-0.055,6944.444444444444
-1.635,-0.035,6947.222222222223
-1.945,-0.04,6950.0
-2.13,-0.045,6952.777777777777
-2.175,-0.03,6955.555555555556
-2.175,-0.015,6958.333333333333
-2.155,-0.045,6961.111111111111
-2.13,-0.055,6963.888888888889
-2.07,-0.01,6966.666666666667
-1.985,0.025,6969.444444444444
-1.88,0.02,6972.222222222223
-1.77,0.015,6975.0
-1.66,0.045,6977.777777777777
-1.545,0.065,6980.555555555556
-1.395,0.065,6983.333333333333
-1.21,0.07,6986.111111111111
-1.085,0.08,6988.888888888889
-1.005,0.105,6991.666666666667
-0.95,0.085,6994.444444444444
-0.9,0.07,6997.222222222223
-0.845,0.1,7000.0
-0.775,0.115,7002.777777777777
-0.71,0.095,7005.555555555556
-0.67,0.08,7008.333333333333
-0.635,0.08,7011.111111111111
-0.59,0.105,7013.888888888889
-0.52,0.095,7016.666666666667
-0.455,0.085,7019.444444444444
-0.4,0.1,7022.222222222223
-0.345,0.115,7025.0
-0.25,0.09,7027.777777777777
-0.165,0.07,7030.555555555556
-0.09,0.11,7033.333333333333
-0.03,0.145,7036.111111111111
0.04,0.13,7038.888888888889
0.095,0.115,7041.666666666667
0.14,0.125,7044.444444444444
0.16,0.135,7047.222222222223
0.175,0.13,7050.0
0.215,0.13,7052.777777777777
0.24,0.14,7055.555555555556
0.275,0.155,7058.333333333333
0.275,0.135,7061.111111111111
0.285,0.135,7063.888888888889
0.315,0.165,7066.666666666667
0.32,0.18,7069.444444444444
0.34,0.14,7072.222222222223
0.355,0.14,7075.0
0.38,0.15,7077.777777777777
0.385,0.145,7080.555555555556
0.4,0.145,7083.333333333333
0.425,0.15,7086.111111111111
0.465,0.17,7088.888888888889
0.495,0.165,7091.666666666667
0.505,0.13,7094.444444444444
0.515,0.14,7097.222222222223
0.555,0.17,7100.0
0.6,0.185,7102.777777777777
0.625,0.155,7105.555555555556
0.63,0.165,7108.333333333333
0.63,0.165,7111.111111111111
0.645,0.15,7113.888888888889
0.655,0.14,7116.666666666667
0.69,0.165,7119.444444444444
0.71,0.17,7122.222222222223
0.72,0.165,7125.0
0.72,0.14,7127.777777777777
0.715,0.145,7130.555555555556
0.72,0.18,7133.333333333333
0.735,0.18,7136.111111111111
0.735,0.165,7138.888888888889
0.755,0.155,7141.666666666667
0.74,0.17,7144.444444444444
0.73,0.16,7147.222222222223
0.74,0.16,7150.0
0.76,0.175,7152.777777777777
0.77,0.195,7155.555555555556
0.75,0.175,7158.333333333333
0.73,0.145,7161.111111111111
0.71,0.155,7163.888888888889
0.7,0.175,7166.666666666667
0.69,0.19,7169.444444444444
0.68,0.165,7172.222222222223
0.66,0.17,7175.0
0.635,0.17,7177.777777777777
0.6,0.155,7180.555555555556
0.575,0.15,7183.333333333333
0.545,0.165,7186.111111111111
0.495,0.17,7188.888888888889
0.455,0.165,7191.666666666667
0.44,0.14,7194.444444444444
0.42,0.155,7197.222222222223
0.395,0.175,7200.0
0.38,0.16,7202.777777777777
0.365,0.14,7205.555555555556
0.355,0.14,7208.333333333333
0.315,0.16,7211.111111111111
0.28,0.145,7213.888888888889
0.25,0.135,7216.666666666667
0.24,0.155,7219.444444444444
0.23,0.17,7222.222222222223
0.215,0.145,7225.0
0.195,0.115,7227.777777777777
0.18,0.125,7230.555555555556
0.16,0.15,7233.333333333333
0.15,0.165,7236.111111111111
0.125,0.14,7238.888888888889
0.115,0.14,7241.666666666667
0.09,0.15,7244.444444444444
0.055,0.135,7247.222222222223
0.04,0.125,7250.0
0.01,0.125,7252.777777777777
-0.015,0.145,7255.555555555556
-0.035,0.145,7258.333333333333
-0.04,0.11,7261.111111111111
-0.045,0.125,7263.888888888889
-0.045,0.15,7266.666666666667
-0.03,0.145,7269.444444444444
-0.04,0.115,7272.222222222223
-0.03,0.12,7275.0
-0.04,0.13,7277.777777777777
-0.05,0.135,7280.555555555556
-0.05,0.115,7283.333333333333
-0.055,0.135,7286.111111111111
-0.065,0.15,7288.888888888889
-0.065,0.145,7291.666666666667
-0.065,0.11,7294.444444444444
-0.07,0.1,7297.222222222223
-0.08,0.125,7300.0
-0.105,0.15,7302.777777777777
-0.105,0.13,7305.555555555556
-0.105,0.1,7308.333333333333
-0.115,0.115,7311.111111111111
-0.105,0.115,7313.888888888889
-0.085,0.105,7316.666666666667
-0.085,0.1,7319.444444444444
-0.095,0.12,7322.222222222223
-0.09,0.125,7325.0
-0.11,0.1,7327.777777777777
-0.12,0.085,7330.555555555556
-0.12,0.11,7333.333333333333
-0.12,0.125,7336.111111111111
-0.105,0.11,7338.888888888889
-0.11,0.09,7341.666666666667
-0.115,0.1,7344.444444444444
-0.135,0.105,7347.222222222223
-0.14,0.11,7350.0
-0.125,0.115,7352.777777777777
-0.12,0.11,7355.555555555556
-0.11,0.105,7358.333333333333
-0.13,0.085,7361.111111111111
-0.14,0.065,7363.888888888889
-0.155,0.095,7366.666666666667
-0.155,0.12,7369.444444444444
-0.155,0.115,7372.222222222223
-0.16,0.08,7375.0
-0.175,0.065,7377.777777777777
-0.195,0.095,7380.555555555556
-0.18,0.105,7383.333333333333
-0.17,0.085,7386.111111111111
-0.155,0.075,7388.888888888889
-0.14,0.095,7391.666666666667
-0.13,0.095,7394.444444444444
-0.14,0.08,7397.222222222223
-0.16,0.07,7400.0
-0.175,0.09,7402.777777777777
-0.19,0.105,7405.555555555556
-0.21,0.095,7408.333333333333
-0.2,0.055,7411.111111111111
-0.18,0.07,7413.888888888889
-0.17,0.12,7416.666666666667
-0.18,0.11,7419.444444444444
-0.17,0.095,7422.222222222223
-0.185,0.085,7425.0
-0.18,0.1,7427.777777777777
-0.195,0.1,7430.555555555556
-0.185,0.075,7433.333333333333
-0.18,0.085,7436.111111111111
-0.175,0.1,7438.888888888889
-0.185,0.105,7441.666666666667
-0.2,0.075,7444.444444444444
-0.225,0.075,7447.222222222223
-0.225,0.09,7450.0
-0.205,0.13,7452.777777777777
-0.185,0.1,7455.555555555556
-0.19,0.075,7458.333333333333
-0.195,0.075,7461.111111111111
-0.185,0.1,7463.888888888889
-0.17,0.105,7466.666666666667
-0.17,0.085,7469.444444444444
-0.19,0.075,7472.222222222223
-0.21,0.115,7475.0
-0.22,0.11,7477.777777777777
-0.225,0.085,7480.555555555556
-0.2,0.075,7483.333333333333
-0.185,0.1,7486.111111111111
-0.18,0.115,7488.888888888889
-0.21,0.105,7491.666666666667
-0.215,0.075,7494.444444444444
-0.21,0.08,7497.222222222223
-0.195,0.1,7500.0
-0.205,0.115,7502.777777777777
-0.215,0.08,7505.555555555556
-0.205,0.085,7508.333333333333
-0.195,0.095,7511.111111111111
-0.2,0.115,7513.888888888889
-0.21,0.1,7516.666666666667
-0.215,0.095,7519.444444444444
-0.215,0.11,7522.222222222223
-0.205,0.125,7525.0
-0.195,0.105,7527.777777777777
-0.205,0.08,7530.555555555556
-0.18,0.095,7533.333333333333
-0.165,0.135,7536.111111111111
-0.16,0.13,7538.888888888889
-0.13,0.115,7541.666666666667
-0.13,0.1,7544.444444444444
-0.135,0.125,7547.222222222223
-0.125,0.13,7550.0
-0.145,0.105,7552.777777777777
-0.155,0.115,7555.555555555556
-0.185,0.115,7558.333333333333
-0.2,0.11,7561.111111111111
-0.21,0.11,7563.888888888889
-0.205,0.1,7566.666666666667
-0.195,0.11,7569.444444444444
-0.19,0.125,7572.222222222223
-0.19,0.105,7575.0
-0.185,0.075,7577.777777777777
-0.185,0.08,7580.555555555556
-0.17,0.11,7583.333333333333
-0.18,0.115,7586.111111111111
-0.18,0.09,7588.888888888889
-0.185,0.075,7591.666666666667
-0.18,0.09,7594.444444444444
-0.19,0.105,7597.222222222223
-0.22,0.095,7600.0
-0.255,0.095,7602.777777777777
-0.26,0.095,7605.555555555556
-0.27,0.12,7608.333333333333
-0.265,0.115,7611.111111111111
-0.24,0.09,7613.888888888889
-0.23,0.095,7616.666666666667
-0.205,0.11,7619.444444444444
-0.21,0.12,7622.222222222223
-0.24,0.1,7625.0
-0.26,0.085,7627.777777777777
-0.265,0.085,7630.555555555556
-0.27,0.11,7633.333333333333
-0.255,0.115,7636.111111111111
-0.26,0.09,7638.888888888889
-0.265,0.1,7641.666666666667
-0.275,0.105,7644.444444444444
-0.265,0.115,7647.222222222223
-0.255,0.085,7650.0
-0.235,0.09,7652.777777777777
-0.245,0.11,7655.555555555556
-0.26,0.11,7658.333333333333
-0.26,0.09,7661.111111111111
-0.27,0.08,7663.888888888889
-0.255,0.095,7666.666666666667
-0.23,0.13,7669.444444444444
-0.23,0.115,7672.222222222223
-0.245,0.075,7675.0
-0.24,0.085,7677.777777777777
-0.26,0.08,7680.555555555556
-0.27,0.105,7683.333333333333
-0.28,0.09,7686.111111111111
-0.285,0.07,7688.888888888889
-0.29,0.085,7691.666666666667
-0.295,0.095,7694.444444444444
-0.29,0.08,7697.222222222223
-0.255,0.065,7700.0
-0.2,0.075,7702.777777777777
-0.12,0.09,7705.555555555556
-0.05,0.1,7708.333333333333
0.015,0.07,7711.111111111111
0.09,0.07,7713.888888888889
0.18,0.075,7716.666666666667
0.265,0.115,7719.444444444444
0.37,0.11,7722.222222222223
0.48,0.085,7725.0
0.595,0.08,7727.777777777777
0.705,0.11,7730.555555555556
0.79,0.12,7733.333333333333
0.85,0.105,7736.111111111111
0.855,0.095,7738.888888888889
0.795,0.115,7741.666666666667
0.685,0.125,7744.444444444444
0.515,0.12,7747.222222222223
0.28,0.12,7750.0
0.015,0.14,7752.777777777777
-0.215,0.165,7755.555555555556
-0.39,0.155,7758.333333333333
-0.495,0.125,7761.111111111111
-0.555,0.14,7763.888888888889
-0.54,0.175,7766.666666666667
-0.485,0.165,7769.444444444444
-0.45,0.135,7772.222222222223
-0.44,0.115,7775.0
-0.43,0.12,7777.777777777777
-0.445,0.125,7780.555555555556
-0.43,0.12,7783.333333333333
-0.415,0.105,7786.111111111111
-0.4,0.11,7788.888888888889
-0.4,0.115,7791.666666666667
-0.405,0.1,7794.444444444444
-0.42,0.075,7797.222222222223
-0.405,0.075,7800.0
-0.395,0.105,7802.777777777777
-0.385,0.105,7805.555555555556
-0.375,0.07,7808.333333333333
-0.395,0.05,7811.111111111111
-0.41,0.05,7813.888888888889
-0.405,0.09,7816.666666666667
-0.365,0.105,7819.444444444444
-0.335,0.075,7822.222222222223
-0.32,0.06,7825.0
-0.335,0.075,7827.777777777777
-0.34,0.09,7830.555555555556
-0.34,0.085,7833.333333333333
-0.335,0.075,7836.111111111111
-0.34,0.075,7838.888888888889
-0.335,0.09,7841.666666666667
-0.345,0.095,7844.444444444444
-0.35,0.07,7847.222222222223
-0.345,0.06,7850.0
-0.335,0.075,7852.777777777777
-0.33,0.09,7855.555555555556
-0.32,0.08,7858.333333333333
-0.33,0.05,7861.111111111111
-0.335,0.05,7863.888888888889
-0.33,0.085,7866.666666666667
-0.33,0.1,7869.444444444444
-0.32,0.09,7872.222222222223
-0.31,0.055,7875.0
-0.305,0.045,7877.777777777777
-0.305,0.07,7880.555555555556
-0.31,0.08,7883.333333333333
-0.31,0.075,7886.111111111111
-0.295,0.055,7888.888888888889
-0.3,0.08,7891.666666666667
-0.315,0.08,7894.444444444444
-0.32,0.065,7897.222222222223
-0.33,0.065,7900.0
-0.315,0.07,7902.777777777777
-0.32,0.075,7905.555555555556
-0.32,0.06,7908.333333333333
-0.325,0.035,7911.111111111111
-0.31,0.03,7913.888888888889
-0.295,0.065,7916.666666666667
-0.285,0.08,7919.444444444444
-0.28,0.07,7922.222222222223
-0.3,0.05,7925.0
-0.3,0.035,7927.777777777777
-0.285,0.055,7930.555555555556
-0.27,0.07,7933.333333333333
-0.245,0.075,7936.111111111111
-0.24,0.055,7938.888888888889
-0.26,0.07,7941.666666666667
-0.265,0.08,7944.444444444444
-0.28,0.08,7947.222222222223
-0.27,0.07,7950.0
-0.28,0.075,7952.777777777777
-0.29,0.09,7955.555555555556
-0.29,0.08,7958.333333333333
-0.295,0.07,7961.111111111111
-0.27,0.055,7963.888888888889
-0.25,0.08,7966.666666666667
-0.235,0.105,7969.444444444444
-0.225,0.1,7972.222222222223
-0.245,0.085,7975.0
-0.28,0.08,7977.777777777777
-0.285,0.085,7980.555555555556
-0.28,0.085,7983.333333333333
-0.26,0.08,7986.111111111111
-0.245,0.08,7988.888888888889
-0.24,0.095,7991.666666666667
-0.25,0.09,7994.444444444444
-0.255,0.095,7997.222222222223
-0.24,0.075,8000.0
-0.225,0.095,8002.777777777777
-0.225,0.105,8005.555555555556
-0.23,0.105,8008.333333333333
-0.24,0.075,8011.111111111111
-0.235,0.06,8013.888888888889
-0.23,0.08,8016.666666666667
-0.205,0.1,8019.444444444444
-0.195,0.11,8022.222222222223
-0.195,0.085,8025.0
-0.19,0.07,8027.777777777777
-0.195,0.08,8030.555555555556
-0.2,0.095,8033.333333333333
-0.205,0.09,8036.111111111111
-0.19,0.08,8038.888888888889
-0.21,0.08,8041.666666666667
-0.215,0.09,8044.444444444444
-0.22,0.105,8047.222222222223
-0.225,0.11,8050.0
-0.205,0.09,8052.777777777777
-0.19,0.105,8055.555555555556
-0.195,0.105,8058.333333333333
-0.195,0.1,8061.111111111111
-0.205,0.075,8063.888888888889
-0.215,0.09,8066.666666666667
-0.18,0.105,8069.444444444444
-0.18,0.115,8072.222222222223
-0.19,0.12,8075.0
-0.19,0.095,8077.777777777777
-0.19,0.095,8080.555555555556
-0.185,0.1,8083.333333333333
-0.165,0.12,8086.111111111111
-0.165,0.13,8088.888888888889
-0.19,0.1,8091.666666666667
-0.22,0.085,8094.444444444444
-0.23,0.09,8097.222222222223
-0.2,0.12,8100.0
-0.205,0.13,8102.777777777777
-0.185,0.11,8105.555555555556
-0.2,0.11,8108.333333333333
-0.215,0.115,8111.111111111111
-0.24,0.115,8113.888888888889
-0.22,0.125,8116.666666666667
-0.21,0.11,8119.444444444444
-0.195,0.11,8122.222222222223
-0.22,0.115,8125.0
-0.27,0.12,8127.777777777777
-0.27,0.105,8130.555555555556
-0.265,0.11,8133.333333333333
-0.245,0.13,8136.111111111111
-0.245,0.125,8138.888888888889
-0.24,0.115,8141.666666666667
-0.255,0.095,8144.444444444444
-0.265,0.085,8147.222222222223
-0.265,0.115,8150.0
-0.26,0.14,8152.777777777777
-0.255,0.13,8155.555555555556
-0.23,0.105,8158.333333333333
-0.25,0.11,8161.111111111111
-0.26,0.115,8163.888888888889
-0.265,0.12,8166.666666666667
-0.26,0.115,8169.444444444444
-0.255,0.1,8172.222222222223
-0.265,0.11,8175.0
-0.265,0.11,8177.777777777777
-0.275,0.12,8180.555555555556
-0.275,0.115,8183.333333333333
-0.27,0.12,8186.111111111111
-0.285,0.12,8188.888888888889
-0.295,0.11,8191.666666666667
-0.295,0.1,8194.444444444445
-0.295,0.08,8197.222222222223
-0.29,0.095,8200.0
-0.25,0.125,8202.777777777777
-0.215,0.125,8205.555555555555
-0.21,0.11,8208.333333333334
-0.21,0.09,8211.111111111111
-0.225,0.095,8213.888888888889
-0.205,0.12,8216.666666666666
-0.185,0.125,8219.444444444445
-0.16,0.1,8222.222222222223
-0.13,0.085,8225.0
-0.13,0.085,8227.777777777777
-0.135,0.11,8230.555555555555
-0.13,0.105,8233.333333333334
-0.11,0.1,8236.111111111111
-0.07,0.095,8238.888888888889
-0.06,0.08,8241.666666666666
-0.055,0.075,8244.444444444445
-0.035,0.07,8247.222222222223
0.03,0.045,8250.0
0.115,0.045,8252.777777777777
0.16,0.065,8255.555555555555
0.16,0.055,8258.333333333334
0.12,0.035,8261.111111111111
0.11,0.035,8263.888888888889
0.1,0.03,8266.666666666666
0.075,0.05,8269.444444444445
-0.005,0.045,8272.222222222223
-0.16,0.01,8275.0
-0.43,-0.02,8277.777777777777
-0.82,-0.005,8280.555555555555
-1.2,0.03,8283.333333333334
-1.525,0.055,8286.111111111111
-1.745,0.035,8288.888888888889
-1.865,0.02,8291.666666666666
-1.91,0.01,8294.444444444445
-1.955,0.04,8297.222222222223
-1.965,0.04,8300.0
-1.94,0.035,8302.777777777777
-1.91,0.035,8305.555555555555
-1.9,0.03,8308.333333333334
-1.89,0.06,8311.111111111111
-1.87,0.075,8313.888888888889
-1.785,0.07,8316.666666666666
-1.67,0.095,8319.444444444445
-1.525,0.1,8322.222222222223
-1.455,0.105,8325.0
-1.42,0.09,8327.777777777777
-1.37,0.075,8330.555555555555
-1.3,0.09,8333.333333333334
-1.19,0.12,8336.111111111111
-1.075,0.135,8338.888888888889
-0.99,0.125,8341.666666666666
-0.945,0.105,8344.444444444445
-0.89,0.095,8347.222222222223
-0.825,0.11,8350.0
-0.78,0.135,8352.777777777777
-0.735,0.095,8355.555555555555
-0.7,0.08,8358.333333333334
-0.65,0.075,8361.111111111111
-0.605,0.09,8363.888888888889
-0.55,0.105,8366.666666666666
-0.525,0.095,8369.444444444445
-0.51,0.075,8372.222222222223
-0.51,0.095,8375.0
-0.5,0.09,8377.777777777777
-0.49,0.085,8380.555555555555
-0.45,0.08,8383.333333333334
-0.415,0.07,8386.111111111111
-0.39,0.075,8388.888888888889
-0.335,0.085,8391.666666666666
-0.29,0.09,8394.444444444445
-0.23,0.085,8397.222222222223
-0.16,0.08,8400.0
-0.095,0.1,8402.777777777777
-0.03,0.115,8405.555555555555
0.01,0.105,8408.333333333334
0.03,0.075,8411.111111111111
0.055,0.065,8413.888888888889
0.09,0.095,8416.666666666666
0.12,0.11,8419.444444444445
0.145,0.115,8422.222222222223
0.16,0.11,8425.0
0.175,0.115,8427.777777777777
0.165,0.11,8430.555555555555
0.175,0.095,8433.333333333334
0.195,0.09,8436.111111111111
0.235,0.1,8438.888888888889
0.25,0.11,8441.666666666666
0.255,0.115,8444.444444444445
0.24,0.105,8447.222222222223
0.27,0.11,8450.0
0.28,0.115,8452.777777777777
0.3,0.13,8455.555555555555
0.33,0.115,8458.333333333334
0.355,0.085,8461.111111111111
0.37,0.075,8463.888888888889
0.39,0.11,8466.666666666666
0.395,0.14,8469.444444444445
0.41,0.135,8472.222222222223
0.425,0.105,8475.0
0.43,0.095,8477.777777777777
0.47,0.1,8480.555555555555
0.485,0.13,8483.333333333334
0.52,0.13,8486.111111111111
0.54,0.1,8488.888888888889
0.535,0.095,8491.666666666666
0.535,0.12,8494.444444444445
0.545,0.14,8497.222222222223
0.57,0.13,8500.0
0.59,0.115,8502.777777777777
0.615,0.115,8505.555555555555
0.61,0.13,8508.333333333334
0.62,0.125,8511.111111111111
0.61,0.12,8513.888888888889
0.615,0.105,8516.666666666666
0.63,0.1,8519.444444444445
0.635,0.11,8522.222222222223
0.635,0.125,8525.0
0.655,0.13,8527.777777777777
0.66,0.1,8530.555555555555
0.66,0.1,8533.333333333334
0.66,0.12,8536.111111111111
0.655,0.14,8538.888888888889
0.645,0.125,8541.666666666666
0.61,0.09,8544.444444444445
0.59,0.085,8547.222222222223
0.605,0.115,8550.0
0.615,0.135,8552.777777777777
0.625,0.14,8555.555555555555
0.62,0.11,8558.333333333334
0.59,0.105,8561.111111111111
0.56,0.135,8563.888888888889
0.565,0.15,8566.666666666666
0.56,0.14,8569.444444444445
0.56,0.105,8572.222222222223
0.53,0.085,8575.0
0.495,0.11,8577.777777777777
0.475,0.125,8580.555555555555
0.465,0.115,8583.333333333334
0.475,0.115,8586.111111111111
0.47,0.11,8588.888888888889
0.44,0.12,8591.666666666666
0.42,0.125,8594.444444444445
0.39,0.11,8597.222222222223
0.385,0.105,8600.0
0.36,0.11,8602.777777777777
0.35,0.12,8605.555555555555
0.315,0.125,8608.333333333334
0.28,0.1,8611.111111111111
0.245,0.105,8613.888888888889
0.225,0.11,8616.666666666666
0.215,0.14,8619.444444444445
0.19,0.135,8622.222222222223
0.165,0.12,8625.0
0.15,0.085,8627.777777777777
0.12,0.09,8630.555555555555
0.11,0.13,8633.333333333334
0.085,0.15,8636.111111111111
0.08,0.125,8638.888888888889
0.05,0.095,8641.666666666666
0.03,0.09,8644.444444444445
0.01,0.11,8647.222222222223
0.005,0.135,8650.0
0.005,0.125,8652.777777777777
0.0,0.105,8655.555555555555
0.005,0.085,8658.333333333334
-0.015,0.085,8661.111111111111
-0.05,0.11,8663.888888888889
-0.075,0.115,8666.666666666666
-0.1,0.11,8669.444444444445
-0.105,0.095,8672.222222222223
-0.085,0.105,8675.0
-0.06,0.115,8677.777777777777
-0.06,0.12,8680.555555555555
-0.045,0.11,8683.333333333334
-0.05,0.1,8686.111111111111
-0.05,0.1,8688.888888888889
-0.05,0.12,8691.666666666666
-0.07,0.125,8694.444444444445
-0.075,0.1,8697.222222222223
-0.08,0.1,8700.0
-0.095,0.12,8702.777777777777
-0.105,0.14,8705.555555555555
-0.085,0.135,8708.333333333334
-0.09,0.11,8711.111111111111
-0.105,0.09,8713.888888888889
-0.1,0.105,8716.666666666666
-0.1,0.14,8719.444444444445
-0.085,0.135,8722.222222222223
-0.09,0.115,8725.0
-0.11,0.09,8727.777777777777
-0.12,0.1,8730.555555555555
-0.11,0.13,8733.333333333334
-0.085,0.145,8736.111111111111
-0.075,0.12,8738.888888888889
-0.085,0.09,8741.666666666666
-0.1,0.095,8744.444444444445
-0.13,0.12,8747.222222222223
-0.13,0.125,8750.0
-0.14,0.12,8752.777777777777
-0.145,0.115,8755.555555555555
-0.145,0.125,8758.333333333334
-0.145,0.12,8761.111111111111
-0.15,0.115,8763.888888888889
-0.15,0.1,8766.666666666666
-0.15,0.1,8769.444444444445
-0.135,0.1,8772.222222222223
-0.13,0.11,8775.0
-0.135,0.085,8777.777777777777
-0.14,0.095,8780.555555555555
-0.13,0.125,8783.333333333334
-0.12,0.14,8786.111111111111
-0.12,0.12,8788.888888888889
-0.12,0.1,8791.666666666666
-0.12,0.1,8794.444444444445
-0.135,0.115,8797.222222222223
-0.14,0.11,8800.0
-0.15,0.115,8802.777777777777
-0.13,0.11,8805.555555555555
-0.12,0.115,8808.333333333334
-0.12,0.115,8811.111111111111
-0.125,0.12,8813.888888888889
-0.14,0.095,8816.666666666666
-0.16,0.105,8819.444444444445
-0.18,0.105,8822.222222222223
-0.205,0.115,8825.0
-0.23,0.1,8827.777777777777
-0.205,0.09,8830.555555555555
-0.2,0.09,8833.333333333334
-0.19,0.12,8836.111111111111
-0.195,0.125,8838.888888888889
-0.19,0.11,8841.666666666666
-0.21,0.09,8844.444444444445
-0.24,0.09,8847.222222222223
-0.24,0.12,8850.0
-0.235,0.135,8852.777777777777
-0.21,0.105,8855.555555555555
-0.19,0.095,8858.333333333334
-0.185,0.1,8861.111111111111
-0.2,0.115,8863.888888888889
-0.2,0.12,8866.666666666666
-0.2,0.105,8869.444444444445
-0.175,0.1,8872.222222222223
-0.17,0.115,8875.0
-0.185,0.11,8877.777777777777
-0.21,0.09,8880.555555555555
-0.22,0.09,8883.333333333334
-0.215,0.115,8886.111111111111
-0.22,0.125,8888.888888888889
-0.23,0.115,8891.666666666666
-0.24,0.075,8894.444444444445
-0.235,0.08,8897.222222222223
-0.225,0.105,8900.0
-0.2,0.115,8902.777777777777
-0.175,0.09,8905.555555555555
-0.175,0.08,8908.333333333334
-0.175,0.09,8911.111111111111
-0.185,0.1,8913.888888888889
-0.185,0.105,8916.666666666666
-0.175,0.09,8919.444444444445
-0.175,0.09,8922.222222222223
-0.195,0.1,8925.0
-0.225,0.1,8927.777777777777
-0.245,0.075,8930.555555555555
-0.23,0.075,8933.333333333334
-0.21,0.1,8936.111111111111
-0.2,0.115,8938.888888888889
-0.19,0.1,8941.666666666666
-0.2,0.075,8944.444444444445
-0.205,0.065,8947.222222222223
-0.21,0.1,8950.0
-0.215,0.1,8952.777777777777
-0.215,0.085,8955.555555555555
-0.22,0.07,8958.333333333334
-0.21,0.09,8961.111111111111
-0.175,0.1,8963.888888888889
-0.145,0.1,8966.666666666666
-0.125,0.09,8969.444444444445
-0.135,0.095,8972.222222222223
-0.14,0.1,8975.0
-0.145,0.085,8977.777777777777
-0.155,0.065,8980.555555555555
-0.15,0.095,8983.333333333334
-0.15,0.12,8986.111111111111
-0.145,0.12,8988.888888888889
-0.14,0.085,8991.666666666666
-0.165,0.08,8994.444444444445
-0.18,0.085,8997.222222222223
-0.165,0.09,9000.0
-0.16,0.085,9002.777777777777
-0.155,0.075,9005.555555555555
-0.175,0.1,9008.333333333334
-0.205,0.095,9011.111111111111
-0.225,0.075,9013.888888888889
-0.21,0.075,9016.666666666666
-0.185,0.105,9019.444444444445
-0.175,0.1,9022.222222222223
-0.175,0.09,9025.0
-0.2,0.06,9027.777777777777
-0.225,0.065,9030.555555555555
-0.23,0.095,9033.333333333334
-0.215,0.105,9036.111111111111
-0.21,0.075,9038.888888888889
-0.21,0.075,9041.666666666666
-0.205,0.085,9044.444444444445
-0.2,0.08,9047.222222222223
-0.17,0.07,9050.0
-0.15,0.065,9052.777777777777
-0.15,0.09,9055.555555555555
-0.17,0.11,9058.333333333334
-0.19,0.07,9061.111111111111
-0.22,0.07,9063.888888888889
-0.205,0.08,9066.666666666666
-0.21,0.095,9069.444444444445
-0.205,0.085,9072.222222222223
-0.2,0.075,9075.0
-0.21,0.08,9077.777777777777
-0.22,0.1,9080.555555555555
-0.235,0.085,9083.333333333334
-0.25,0.08,9086.111111111111
-0.245,0.09,9088.888888888889
-0.26,0.095,9091.666666666666
-0.285,0.075,9094.444444444445
-0.285,0.075,9097.222222222223
-0.27,0.08,9100.0
-0.255,0.1,9102.777777777777
-0.23,0.095,9105.555555555555
-0.195,0.085,9108.333333333334
-0.18,0.08,9111.111111111111
-0.185,0.09,9113.888888888889
-0.18,0.085,9116.666666666666
-0.2,0.09,9119.444444444445
-0.195,0.09,9122.222222222223
-0.19,0.095,9125.0
-0.21,0.085,9127.777777777777
-0.23,0.065,9130.555555555555
-0.205,0.08,9133.333333333334
-0.155,0.095,9136.111111111111
-0.075,0.09,9138.888888888889
0.01,0.07,9141.666666666666
0.095,0.055,9144.444444444445
0.18,0.08,9147.222222222223
0.27,0.1,9150.0
0.355,0.095,9152.777777777777
0.455,0.08,9155.555555555555
0.56,0.095,9158.333333333334
0.675,0.1,9161.111111111111
0.785,0.09,9163.888888888889
0.905,0.09,9166.666666666666
1.005,0.12,9169.444444444445
1.03,0.135,9172.222222222223
0.995,0.125,9175.0
0.875,0.1,9177.777777777777
0.625,0.12,9180.555555555555
0.22,0.155,9183.333333333334
-0.17,0.155,9186.111111111111
-0.39,0.15,9188.888888888889
-0.445,0.155,9191.666666666666
-0.475,0.18,9194.444444444445
-0.475,0.165,9197.222222222223
-0.42,0.155,9200.0
-0.37,0.165,9202.777777777777
-0.345,0.155,9205.555555555555
-0.335,0.155,9208.333333333334
-0.34,0.125,9211.111111111111
-0.365,0.13,9213.888888888889
-0.38,0.15,9216.666666666666
-0.39,0.15,9219.444444444445
-0.4,0.13,9222.222222222223
-0.395,0.11,9225.0
-0.38,0.115,9227.777777777777
-0.385,0.095,9230.555555555555
-0.385,0.08,9233.333333333334
-0.395,0.09,9236.111111111111
-0.375,0.105,9238.888888888889
-0.33,0.105,9241.666666666666
-0.3,0.085,9244.444444444445
-0.295,0.08,9247.222222222223
-0.325,0.095,9250.0
-0.345,0.1,9252.777777777777
-0.35,0.09,9255.555555555555
-0.34,0.08,9258.333333333334
-0.32,0.075,9261.111111111111
-0.285,0.09,9263.888888888889
-0.27,0.11,9266.666666666666
-0.265,0.1,9269.444444444445
-0.27,0.105,9272.222222222223
-0.26,0.095,9275.0
-0.295,0.085,9277.777777777777
-0.315,0.08,9280.555555555555
-0.32,0.09,9283.333333333334
-0.315,0.115,9286.111111111111
-0.295,0.115,9288.888888888889
-0.285,0.09,9291.666666666666
-0.275,0.09,9294.444444444445
-0.285,0.085,9297.222222222223
-0.275,0.095,9300.0
-0.27,0.09,9302.777777777777
-0.265,0.085,9305.555555555555
-0.265,0.095,9308.333333333334
-0.27,0.095,9311.111111111111
-0.275,0.08,9313.888888888889
-0.28,0.085,9316.666666666666
-0.26,0.095,9319.444444444445
-0.26,0.1,9322.222222222223
-0.255,0.09,9325.0
-0.26,0.07,9327.777777777777
-0.275,0.07,9330.555555555555
-0.26,0.095,9333.333333333334
-0.255,0.105,9336.111111111111
-0.25,0.095,9338.888888888889
-0.26,0.08,9341.666666666666
-0.265,0.08,9344.444444444445
-0.265,0.075,9347.222222222223
-0.28,0.065,9350.0
-0.275,0.075,9352.777777777777
-0.265,0.1,9355.555555555555
-0.25,0.095,9358.333333333334
-0.24,0.055,9361.111111111111
-0.22,0.065,9363.888888888889
-0.19,0.08,9366.666666666666
-0.18,0.09,9369.444444444445
-0.21,0.055,9372.222222222223
-0.28,0.055,9375.0
-0.355,0.06,9377.777777777777
-0.355,0.08,9380.555555555555
-0.3,0.085,9383.333333333334
-0.265,0.08,9386.111111111111
-0.25,0.08,9388.888888888889
-0.29,0.075,9391.666666666666
-0.33,0.045,9394.444444444445
-0.325,0.04,9397.222222222223
-0.28,0.07,9400.0
-0.265,0.095,9402.777777777777
-0.25,0.085,9405.555555555555
-0.25,0.065,9408.333333333334
-0.245,0.06,9411.111111111111
-0.25,0.07,9413.888888888889
-0.25,0.06,9416.666666666666
-0.25,0.055,9419.444444444445
-0.24,0.06,9422.222222222223
-0.235,0.075,9425.0
-0.235,0.07,9427.777777777777
-0.23,0.06,9430.555555555555
-0.195,0.055,9433.333333333334
-0.185,0.09,9436.111111111111
-0.165,0.085,9438.888888888889
-0.16,0.06,9441.666666666666
-0.175,0.04,9444.444444444445
-0.185,0.06,9447.222222222223
-0.165,0.08,9450.0
-0.135,0.075,9452.777777777777
-0.135,0.055,9455.555555555555
-0.12,0.055,9458.333333333334
-0.14,0.075,9461.111111111111
-0.15,0.055,9463.888888888889
-0.14,0.045,9466.666666666666
-0.135,0.04,9469.444444444445
-0.15,0.07,9472.222222222223
-0.17,0.08,9475.0
-0.165,0.055,9477.777777777777
-0.18,0.05,9480.555555555555
-0.175,0.07,9483.333333333334
-0.16,0.085,9486.111111111111
-0.15,0.08,9488.888888888889
-0.165,0.05,9491.666666666666
-0.155,0.045,9494.444444444445
-0.155,0.065,9497.222222222223
-0.15,0.09,9500.0
-0.145,0.105,9502.777777777777
-0.145,0.075,9505.555555555555
-0.145,0.075,9508.333333333334
-0.145,0.075,9511.111111111111
-0.15,0.07,9513.888888888889
-0.165,0.06,9516.666666666666
-0.175,0.075,9519.444444444445
-0.16,0.08,9522.222222222223
-0.165,0.105,9525.0
-0.19,0.075,9527.777777777777
-0.185,0.07,9530.555555555555
-0.19,0.1,9533.333333333334
-0.19,0.095,9536.111111111111
-0.185,0.085,9538.888888888889
-0.18,0.075,9541.666666666666
-0.205,0.06,9544.444444444445
-0.205,0.08,9547.222222222223
-0.21,0.085,9550.0
-0.21,0.075,9552.777777777777
-0.205,0.075,9555.555555555555
-0.22,0.095,9558.333333333334
-0.215,0.07,9561.111111111111
-0.22,0.055,9563.888888888889
-0.2,0.05,9566.666666666666
-0.2,0.07,9569.444444444445
-0.195,0.09,9572.222222222223
-0.205,0.08,9575.0
-0.23,0.06,9577.777777777777
-0.235,0.065,9580.555555555555
-0.23,0.09,9583.333333333334
-0.21,0.085,9586.111111111111
-0.22,0.075,9588.888888888889
-0.225,0.055,9591.666666666666
-0.235,0.07,9594.444444444445
-0.24,0.085,9597.222222222223
-0.21,0.08,9600.0
-0.19,0.09,9602.777777777777
-0.13,0.085,9605.555555555555
-0.105,0.08,9608.333333333334
-0.08,0.075,9611.111111111111
-0.07,0.07,9613.888888888889
-0.055,0.07,9616.666666666666
-0.025,0.09,9619.444444444445
-0.005,0.105,9622.222222222223
0.01,0.075,9625.0
0.0,0.055,9627.777777777777
-0.02,0.06,9630.555555555555
-0.01,0.07,9633.333333333334
0.03,0.06,9636.111111111111
0.06,0.02,9638.888888888889
0.055,-0.005,9641.666666666666
-0.015,0.005,9644.444444444445
-0.125,-0.005,9647.222222222223
-0.265,-0.02,9650.0
-0.53,-0.03,9652.777777777777
-0.905,-0.035,9655.555555555555
-1.31,-0.035,9658.333333333334
-1.685,-0.06,9661.111111111111
-1.99,-0.09,9663.888888888889
-2.185,-0.06,9666.666666666666
-2.26,-0.03,9669.444444444445
-2.26,-0.035,9672.222222222223
-2.25,-0.04,9675.0
-2.245,-0.04,9677.777777777777
-2.205,-0.03,9680.555555555555
-2.14,-0.01,9683.333333333334
-2.08,-0.025,9686.111111111111
-2.005,-0.025,9688.888888888889
-1.905,-0.005,9691.666666666666
-1.815,0.015,9694.444444444445
-1.72,0.05,9697.222222222223
-1.64,0.05,9700.0
-1.5,0.06,9702.777777777777
-1.33,0.07,9705.555555555555
-1.2,0.1,9708.333333333334
-1.075,0.07,9711.111111111111
-1.015,0.05,9713.888888888889
-0.945,0.06,9716.666666666666
-0.905,0.085,9719.444444444445
-0.84,0.095,9722.222222222223
-0.77,0.07,9725.0
-0.725,0.05,9727.777777777777
-0.69,0.07,9730.555555555555
-0.65,0.085,9733.333333333334
-0.61,0.08,9736.111111111111
-0.54,0.065,9738.888888888889
-0.48,0.055,9741.666666666666
-0.445,0.065,9744.444444444445
-0.395,0.065,9747.222222222223
-0.34,0.07,9750.0
-0.255,0.09,9752.777777777777
-0.16,0.085,9755.555555555555
-0.095,0.065,9758.333333333334
-0.045,0.05,9761.111111111111
-0.005,0.06,9763.888888888889
0.05,0.09,9766.666666666666
0.1,0.115,9769.444444444445
0.145,0.1,9772.222222222223
0.165,0.09,9775.0
0.17,0.095,9777.777777777777
0.195,0.1,9780.555555555555
0.22,0.09,9783.333333333334
0.235,0.085,9786.111111111111
0.26,0.105,9788.888888888889
0.285,0.11,9791.666666666666
0.31,0.09,9794.444444444445
0.315,0.095,9797.222222222223
0.335,0.12,9800.0
0.345,0.135,9802.777777777777
0.36,0.11,9805.555555555555
0.37,0.095,9808.333333333334
0.385,0.09,9811.111111111111
0.395,0.115,9813.888888888889
0.405,0.125,9816.666666666666
0.44,0.12,9819.444444444445
0.47,0.125,9822.222222222223
0.49,0.13,9825.0
0.5,0.11,9827.777777777777
0.52,0.095,9830.555555555555
0.525,0.11,9833.333333333334
0.54,0.125,9836.111111111111
0.58,0.13,9838.888888888889
0.605,0.12,9841.666666666666
0.61,0.1,9844.444444444445
0.615,0.105,9847.222222222223
0.64,0.13,9850.0
0.66,0.125,9852.777777777777
0.675,0.11,9855.555555555555
0.685,0.105,9858.333333333334
0.685,0.125,9861.111111111111
0.67,0.115,9863.888888888889
0.685,0.1,9866.666666666666
0.7,0.125,9869.444444444445
0.705,0.14,9872.222222222223
0.705,0.125,9875.0
0.7,0.095,9877.777777777777
0.7,0.1,9880.555555555555
0.705,0.13,9883.333333333334
0.695,0.13,9886.111111111111
0.7,0.12,9888.888888888889
0.7,0.11,9891.666666666666
0.685,0.12,9894.444444444445
0.655,0.11,9897.222222222223
0.655,0.09,9900.0
0.635,0.09,9902.777777777777
0.63,0.115,9905.555555555555
0.62,0.11,9908.333333333334
0.58,0.095,9911.111111111111
0.545,0.09,9913.888888888889
0.525,0.11,9916.666666666666
0.49,0.115,9919.444444444445
0.47,0.095,9922.222222222223
0.43,0.085,9925.0
0.385,0.095,9927.777777777777
0.345,0.095,9930.555555555555
0.305,0.095,9933.333333333334
0.29,0.095,9936.111111111111
0.27,0.115,9938.888888888889
0.25,0.1,9941.666666666666
0.205,0.075,9944.444444444445
0.165,0.06,9947.222222222223
0.14,0.09,9950.0
0.125,0.11,9952.777777777777
0.13,0.09,9955.555555555555
0.115,0.085,9958.333333333334
0.1,0.085,9961.111111111111
0.06,0.085,9963.888888888889
0.04,0.065,9966.666666666666
0.04,0.075,9969.444444444445
0.035,0.09,9972.222222222223
0.025,0.095,9975.0
-0.005,0.07,9977.777777777777
-0.06,0.065,9980.555555555555
-0.08,0.095,9983.333333333334
-0.085,0.105,9986.111111111111
-0.075,0.08,9988.888888888889
-0.09,0.07,9991.666666666666
-0.11,0.08,9994.444444444445
-0.13,0.095,9997.222222222223
-0.12,0.08,10000.0
-0.15,0.085,10002.777777777777
-0.145,0.09,10005.555555555555
-0.145,0.1,10008.333333333334
-0.16,0.085,10011.111111111111
-0.16,0.085,10013.888888888889
-0.15,0.09,10016.666666666666
-0.15,0.085,10019.444444444445
-0.15,0.06,10022.222222222223
-0.16,0.075,10025.0
-0.19,0.07,10027.777777777777
-0.185,0.055,10030.555555555555
-0.185,0.04,10033.333333333334
-0.18,0.065,10036.111111111111
-0.175,0.07,10038.888888888889
-0.18,0.05,10041.666666666666
-0.19,0.025,10044.444444444445
-0.22,0.045,10047.222222222223
-0.22,0.07,10050.0
-0.225,0.06,10052.777777777777
-0.215,0.03,10055.555555555555
-0.195,0.04,10058.333333333334
-0.195,0.065,10061.111111111111
-0.21,0.05,10063.888888888889
-0.215,0.04,10066.666666666666
-0.23,0.06,10069.444444444445
-0.22,0.075,10072.222222222223
-0.22,0.055,10075.0
-0.215,0.03,10077.777777777777
-0.24,0.045,10080.555555555555
-0.24,0.065,10083.333333333334
-0.24,0.06,10086.111111111111
-0.245,0.04,10088.888888888889
-0.245,0.05,10091.666666666666
-0.245,0.04,10094.444444444445
-0.255,0.03,10097.222222222223
-0.25,0.035,10100.0
-0.25,0.06,10102.777777777777
-0.245,0.065,10105.555555555555
-0.24,0.05,10108.333333333334
-0.255,0.04,10111.111111111111
-0.27,0.055,10113.888888888889
-0.275,0.05,10116.666666666666
-0.275,0.045,10119.444444444445
-0.275,0.035,10122.222222222223
-0.285,0.06,10125.0
-0.28,0.035,10127.777777777777
-0.28,0.01,10130.555555555555
-0.275,0.03,10133.333333333334
-0.28,0.06,10136.111111111111
-0.3,0.04,10138.888888888889
-0.305,0.005,10141.666666666666
-0.285,0.015,10144.444444444445
-0.28,0.035,10147.222222222223
-0.28,0.035,10150.0
-0.29,0.025,10152.777777777777
-0.28,0.04,10155.555555555555
-0.295,0.05,10158.333333333334
-0.29,0.03,10161.111111111111
-0.295,0.005,10163.888888888889
-0.28,0.02,10166.666666666666
-0.29,0.055,10169.444444444445
-0.285,0.045,10172.222222222223
-0.29,0.025,10175.0
-0.29,0.02,10177.777777777777
-0.305,0.04,10180.555555555555
-0.29,0.035,10183.333333333334
-0.295,0.025,10186.111111111111
-0.275,0.035,10188.888888888889
-0.28,0.05,10191.666666666666
-0.3,0.02,10194.444444444445
-0.31,0.02,10197.222222222223
-0.305,0.055,10200.0
-0.3,0.065,10202.777777777777
-0.3,0.04,10205.555555555555
-0.295,0.03,10208.333333333334
-0.31,0.045,10211.111111111111
-0.315,0.045,10213.888888888889
-0.3,0.03,10216.666666666666
-0.275,0.05,10219.444444444445
-0.27,0.055,10222.222222222223
-0.25,0.055,10225.0
-0.255,0.035,10227.777777777777
-0.265,0.04,10230.555555555555
-0.25,0.075,10233.333333333334
-0.23,0.08,10236.111111111111
-0.22,0.06,10238.888888888889
-0.225,0.06,10241.666666666666
-0.245,0.08,10244.444444444445
-0.255,0.055,10247.222222222223
-0.25,0.06,10250.0
-0.25,0.075,10252.777777777777
-0.235,0.08,10255.555555555555
-0.26,0.075,10258.333333333334
-0.265,0.055,10261.111111111111
-0.28,0.065,10263.888888888889
-0.29,0.07,10266.666666666666
-0.28,0.06,10269.444444444445
-0.285,0.075,10272.222222222223
-0.305,0.065,10275.0
-0.32,0.055,10277.777777777777
-0.32,0.04,10280.555555555555
-0.325,0.06,10283.333333333334
-0.32,0.09,10286.111111111111
-0.31,0.06,10288.888888888889
-0.285,0.045,10291.666666666666
-0.29,0.065,10294.444444444445
-0.315,0.07,10297.222222222223
-0.34,0.06,10300.0
-0.345,0.06,10302.777777777777
-0.31,0.09,10305.555555555555
-0.31,0.07,10308.333333333334
-0.325,0.055,10311.111111111111
-0.34,0.045,10313.888888888889
-0.33,0.08,10316.666666666666
-0.33,0.085,10319.444444444445
-0.31,0.07,10322.222222222223
-0.305,0.055,10325.0
-0.32,0.065,10327.777777777777
-0.33,0.065,10330.555555555555
-0.335,0.045,10333.333333333334
-0.335,0.07,10336.111111111111
-0.335,0.075,10338.888888888889
-0.33,0.065,10341.666666666666
-0.37,0.045,10344.444444444445
-0.39,0.055,10347.222222222223
-0.395,0.075,10350.0
-0.375,0.06,10352.777777777777
-0.325,0.05,10355.555555555555
-0.25,0.05,10358.333333333334
-0.18,0.055,10361.111111111111
-0.09,0.04,10363.888888888889
0.0,0.05,10366.666666666666
0.135,0.075,10369.444444444445
0.23,0.075,10372.222222222223
0.335,0.05,10375.0
0.425,0.045,10377.777777777777
0.515,0.06,10380.555555555555
0.605,0.065,10383.333333333334
0.625,0.065,10386.111111111111
0.565,0.075,10388.888888888889
0.46,0.1,10391.666666666666
0.33,0.075,10394.444444444445
0.11,0.07,10397.222222222223
-0.175,0.105,10400.0
-0.41,0.135,10402.777777777777
-0.545,0.125,10405.555555555555
-0.63,0.115,10408.333333333334
-0.65,0.12,10411.111111111111
-0.63,0.13,10413.888888888889
-0.57,0.11,10416.666666666666
-0.52,0.105,10419.444444444445
-0.48,0.11,10422.222222222223
-0.485,0.115,10425.0
-0.48,0.1,10427.777777777777
-0.46,0.09,10430.555555555555
-0.44,0.11,10433.333333333334
-0.44,0.12,10436.111111111111
-0.45,0.085,10438.888888888889
-0.465,0.07,10441.666666666666
-0.48,0.075,10444.444444444445
-0.49,0.055,10447.222222222223
-0.47,0.04,10450.0
-0.445,0.06,10452.777777777777
-0.42,0.08,10455.555555555555
-0.405,0.07,10458.333333333334
-0.415,0.03,10461.111111111111
-0.415,0.04,10463.888888888889
-0.415,0.065,10466.666666666666
-0.41,0.06,10469.444444444445
-0.4,0.04,10472.222222222223
-0.375,0.03,10475.0
-0.4,0.05,10477.777777777777
-0.4,0.05,10480.555555555555
-0.405,0.035,10483.333333333334
-0.38,0.06,10486.111111111111
-0.375,0.075,10488.888888888889
-0.35,0.07,10491.666666666666
-0.36,0.03,10494.444444444445
-0.375,0.045,10497.222222222223
-0.37,0.065,10500.0
-0.37,0.075,10502.777777777777
-0.365,0.05,10505.555555555555
-0.365,0.055,10508.333333333334
-0.385,0.06,10511.111111111111
-0.4,0.045,10513.888888888889
-0.4,0.025,10516.666666666666
-0.38,0.06,10519.444444444445
-0.38,0.07,10522.222222222223
-0.38,0.065,10525.0
-0.37,0.035,10527.777777777777
-0.365,0.03,10530.555555555555
-0.36,0.07,10533.333333333334
-0.37,0.07,10536.111111111111
-0.355,0.05,10538.888888888889
-0.345,0.035,10541.666666666666
-0.36,0.055,10544.444444444445
-0.36,0.07,10547.222222222223
-0.355,0.055,10550.0
-0.345,0.04,10552.777777777777
-0.33,0.045,10555.555555555555
-0.33,0.055,10558.333333333334
-0.33,0.035,10561.111111111111
-0.335,0.025,10563.888888888889
-0.34,0.045,10566.666666666666
-0.33,0.065,10569.444444444445
-0.335,0.055,10572.222222222223
-0.35,0.05,10575.0
-0.35,0.035,10577.777777777777
-0.36,0.055,10580.555555555555
-0.345,0.06,10583.333333333334
-0.315,0.045,10586.111111111111
-0.29,0.04,10588.888888888889
-0.295,0.05,10591.666666666666
-0.305,0.055,10594.444444444445
-0.31,0.035,10597.222222222223
-0.32,0.04,10600.0
-0.305,0.055,10602.777777777777
-0.3,0.055,10605.555555555555
-0.295,0.04,10608.333333333334
-0.295,0.025,10611.111111111111
-0.295,0.045,10613.888888888889
-0.295,0.075,10616.666666666666
-0.295,0.07,10619.444444444445
-0.29,0.055,10622.222222222223
-0.295,0.045,10625.0
-0.295,0.045,10627.777777777777
-0.295,0.05,10630.555555555555
-0.27,0.045,10633.333333333334
-0.27,0.07,10636.111111111111
-0.26,0.08,10638.888888888889
-0.26,0.07,10641.666666666666
-0.28,0.04,10644.444444444445
-0.28,0.04,10647.222222222223
-0.265,0.06,10650.0
-0.245,0.08,10652.777777777777
-0.23,0.07,10655.555555555555
-0.23,0.05,10658.333333333334
-0.235,0.06,10661.111111111111
-0.24,0.08,10663.888888888889
-0.24,0.08,10666.666666666666
-0.245,0.08,10669.444444444445
-0.24,0.065,10672.222222222223
-0.235,0.09,10675.0
-0.24,0.07,10677.777777777777
-0.25,0.055,10680.555555555555
-0.25,0.06,10683.333333333334
-0.235,0.105,10686.111111111111
-0.24,0.105,10688.888888888889
-0.245,0.09,10691.666666666666
-0.255,0.07,10694.444444444445
-0.265,0.075,10697.222222222223
-0.28,0.09,10700.0
-0.27,0.09,10702.777777777777
-0.27,0.075,10705.555555555555
-0.245,0.09,10708.333333333334
-0.26,0.085,10711.111111111111
-0.275,0.085,10713.888888888889
-0.29,0.085,10716.666666666666
-0.285,0.11,10719.444444444445
-0.285,0.105,10722.222222222223
-0.29,0.09,10725.0
-0.3,0.075,10727.777777777777
-0.295,0.08,10730.555555555555
-0.275,0.1,10733.333333333334
-0.26,0.105,10736.111111111111
-0.26,0.09,10738.888888888889
-0.26,0.1,10741.666666666666
-0.275,0.095,10744.444444444445
-0.29,0.085,10747.222222222223
-0.285,0.08,10750.0
-0.28,0.08,10752.777777777777
-0.29,0.1,10755.555555555555
-0.29,0.1,10758.333333333334
-0.31,0.08,10761.111111111111
-0.335,0.07,10763.888888888889
-0.325,0.085,10766.666666666666
-0.32,0.085,10769.444444444445
-0.32,0.06,10772.222222222223
-0.33,0.06,10775.0
-0.335,0.075,10777.777777777777
-0.35,0.075,10780.555555555555
-0.34,0.065,10783.333333333334
-0.335,0.065,10786.111111111111
-0.33,0.075,10788.888888888889
-0.325,0.065,10791.666666666666
-0.325,0.04,10794.444444444445
-0.33,0.03,10797.222222222223
-0.335,0.055,10800.0
-0.33,0.07,10802.777777777777
-0.34,0.065,10805.555555555555
-0.35,0.04,10808.333333333334
-0.345,0.045,10811.111111111111
-0.355,0.045,10813.888888888889
-0.345,0.055,10816.666666666666
-0.335,0.05,10819.444444444445
-0.335,0.07,10822.222222222223
-0.33,0.07,10825.0
-0.345,0.04,10827.777777777777
-0.35,0.04,10830.555555555555
-0.35,0.055,10833.333333333334
-0.34,0.065,10836.111111111111
-0.325,0.045,10838.888888888889
-0.325,0.04,10841.666666666666
-0.33,0.05,10844.444444444445
-0.33,0.065,10847.222222222223
-0.31,0.075,10850.0
-0.305,0.06,10852.777777777777
-0.31,0.07,10855.555555555555
-0.3,0.07,10858.333333333334
-0.295,0.045,10861.111111111111
-0.29,0.045,10863.888888888889
-0.28,0.07,10866.666666666666
-0.265,0.085,10869.444444444445
-0.255,0.07,10872.222222222223
-0.25,0.06,10875.0
-0.245,0.05,10877.777777777777
-0.24,0.065,10880.555555555555
-0.235,0.07,10883.333333333334
-0.235,0.065,10886.111111111111
-0.24,0.07,10888.888888888889
-0.26,0.085,10891.666666666666
-0.275,0.04,10894.444444444445
-0.295,0.045,10897.222222222223
-0.29,0.065,10900.0
-0.295,0.06,10902.777777777777
-0.29,0.04,10905.555555555555
-0.28,0.04,10908.333333333334
-0.285,0.055,10911.111111111111
-0.29,0.055,10913.888888888889
-0.305,0.04,10916.666666666666
-0.31,0.045,10919.444444444445
-0.305,0.04,10922.222222222223
-0.3,0.035,10925.0
-0.31,0.0,10927.777777777777
-0.315,0.015,10930.555555555555
-0.305,0.025,10933.333333333334
-0.295,0.025,10936.111111111111
-0.275,0.025,10938.888888888889
-0.285,0.03,10941.666666666666
-0.295,0.015,10944.444444444445
-0.31,-0.005,10947.222222222223
-0.315,0.0,10950.0
-0.34,0.02,10952.777777777777
-0.345,0.02,10955.555555555555
-0.345,0.0,10958.333333333334
-0.335,-0.01,10961.111111111111
-0.34,0.0,10963.888888888889
-0.325,-0.01,10966.666666666666
-0.315,-0.02,10969.444444444445
-0.305,-0.005,10972.222222222223
-0.32,0.02,10975.0
-0.33,0.0,10977.777777777777
-0.345,-0.02,10980.555555555555
-0.335,-0.005,10983.333333333334
-0.3,0.03,10986.111111111111
-0.295,0.005,10988.888888888889
-0.285,0.0,10991.666666666666
-0.29,-0.005,10994.444444444445
-0.305,0.015,10997.222222222223
-0.295,0.005,11000.0
-0.31,0.015,11002.777777777777
-0.33,0.02,11005.555555555555
-0.35,0.005,11008.333333333334
-0.35,-0.015,11011.111111111111
-0.315,-0.02,11013.888888888889
-0.25,0.01,11016.666666666666
-0.15,0.01,11019.444444444445
-0.04,0.0,11022.222222222223
0.08,-0.005,11025.0
0.195,0.0,11027.777777777777
0.285,-0.025,11030.555555555555
0.385,-0.015,11033.333333333334
0.495,0.015,11036.111111111111
0.625,0.04,11038.888888888889
0.725,0.035,11041.666666666666
0.79,0.005,11044.444444444445
0.74,0.02,11047.222222222223
0.63,0.035,11050.0
0.525,0.025,11052.777777777777
0.335,0.02,11055.555555555555
0.025,0.05,11058.333333333334
-0.29,0.075,11061.111111111111
-0.51,0.05,11063.888888888889
-0.595,0.075,11066.666666666666
-0.605,0.11,11069.444444444445
-0.57,0.1,11072.222222222223
-0.505,0.06,11075.0
-0.46,0.04,11077.777777777777
-0.465,0.06,11080.555555555555
-0.44,0.07,11083.333333333334
-0.415,0.08,11086.111111111111
-0.4,0.075,11088.888888888889
-0.395,0.065,11091.666666666666
-0.41,0.055,11094.444444444445
-0.435,0.03,11097.222222222223
-0.445,0.02,11100.0
-0.445,0.065,11102.777777777777
-0.44,0.04,11105.555555555555
-0.45,0.03,11108.333333333334
-0.445,0.02,11111.111111111111
-0.445,0.045,11113.888888888889
-0.41,0.03,11116.666666666666
-0.375,0.025,11119.444444444445
-0.365,0.025,11122.222222222223
-0.385,0.045,11125.0
-0.4,0.03,11127.777777777777
-0.43,0.02,11130.555555555555
-0.415,0.03,11133.333333333334
-0.4,0.04,11136.111111111111
-0.39,0.02,11138.888888888889
-0.395,0.01,11141.666666666666
-0.4,0.01,11144.444444444445
-0.405,0.03,11147.222222222223
-0.39,0.02,11150.0
-0.38,0.02,11152.777777777777
-0.38,0.025,11155.555555555555
-0.375,0.035,11158.333333333334
-0.38,0.015,11161.111111111111
-0.395,-0.01,11163.888888888889
-0.385,0.015,11166.666666666666
-0.37,0.04,11169.444444444445
-0.375,0.035,11172.222222222223
-0.375,0.035,11175.0
-0.39,0.02,11177.777777777777
-0.385,0.03,11180.555555555555
-0.365,0.035,11183.333333333334
-0.35,0.015,11186.111111111111
-0.335,0.02,11188.888888888889
-0.34,0.04,11191.666666666666
-0.35,0.05,11194.444444444445
-0.335,0.025,11197.222222222223
-0.315,0.03,11200.0
-0.3,0.06,11202.777777777777
-0.27,0.045,11205.555555555555
-0.265,0.02,11208.333333333334
-0.29,0.02,11211.111111111111
-0.305,0.03,11213.888888888889
-0.29,0.05,11216.666666666666
-0.28,0.04,11219.444444444445
-0.26,0.04,11222.222222222223
-0.265,0.05,11225.0
-0.28,0.03,11227.777777777777
-0.265,0.005,11230.555555555555
-0.25,0.02,11233.333333333334
-0.23,0.05,11236.111111111111
-0.225,0.06,11238.888888888889
-0.24,0.045,11241.666666666666
-0.255,0.04,11244.444444444445
-0.245,0.04,11247.222222222223
-0.23,0.045,11250.0
-0.21,0.04,11252.777777777777
-0.21,0.03,11255.555555555555
-0.22,0.05,11258.333333333334
-0.22,0.05,11261.111111111111
-0.225,0.04,11263.888888888889
-0.21,0.035,11266.666666666666
-0.175,0.07,11269.444444444445
-0.14,0.06,11272.222222222223
-0.135,0.035,11275.0
-0.14,0.015,11277.777777777777
-0.135,0.015,11280.555555555555
-0.13,0.055,11283.333333333334
-0.135,0.065,11286.111111111111
-0.14,0.04,11288.888888888889
-0.135,0.055,11291.666666666666
-0.135,0.05,11294.444444444445
-0.155,0.045,11297.222222222223
-0.165,0.035,11300.0
-0.165,0.04,11302.777777777777
-0.165,0.07,11305.555555555555
-0.175,0.075,11308.333333333334
-0.18,0.055,11311.111111111111
-0.195,0.05,11313.888888888889
-0.2,0.075,11316.666666666666
-0.2,0.075,11319.444444444445
-0.205,0.04,11322.222222222223
-0.2,0.04,11325.0
-0.225,0.06,11327.777777777777
-0.22,0.055,11330.555555555555
-0.225,0.05,11333.333333333334
-0.235,0.045,11336.111111111111
-0.24,0.08,11338.888888888889
-0.24,0.075,11341.666666666666
-0.25,0.035,11344.444444444445
-0.255,0.02,11347.222222222223
-0.24,0.045,11350.0
-0.24,0.075,11352.777777777777
-0.245,0.06,11355.555555555555
-0.255,0.035,11358.333333333334
-0.27,0.03,11361.111111111111
-0.285,0.05,11363.888888888889
-0.295,0.045,11366.666666666666
-0.295,0.035,11369.444444444445
-0.29,0.025,11372.222222222223
-0.29,0.055,11375.0
-0.29,0.03,11377.777777777777
-0.305,0.025,11380.555555555555
-0.3,0.015,11383.333333333334
-0.3,0.05,11386.111111111111
-0.285,0.06,11388.888888888889
-0.3,0.035,11391.666666666666
-0.295,0.01,11394.444444444445
-0.305,0.025,11397.222222222223
-0.315,0.065,11400.0
-0.305,0.065,11402.777777777777
-0.31,0.03,11405.555555555555
-0.32,0.035,11408.333333333334
-0.33,0.045,11411.111111111111
-0.34,0.04,11413.888888888889
-0.335,0.03,11416.666666666666
-0.33,0.035,11419.444444444445
-0.335,0.055,11422.222222222223
-0.345,0.06,11425.0
-0.35,0.025,11427.777777777777
-0.36,0.035,11430.555555555555
-0.365,0.06,11433.333333333334
-0.365,0.07,11436.111111111111
-0.355,0.04,11438.888888888889
-0.37,0.04,11441.666666666666
-0.365,0.055,11444.444444444445
-0.39,0.05,11447.222222222223
-0.385,0.05,11450.0
-0.375,0.04,11452.777777777777
-0.365,0.07,11455.555555555555
-0.365,0.06,11458.333333333334
-0.355,0.035,11461.111111111111
-0.355,0.02,11463.888888888889
-0.355,0.04,11466.666666666666
-0.355,0.075,11469.444444444445
-0.35,0.06,11472.222222222223
-0.345,0.05,11475.0
-0.34,0.045,11477.777777777777
-0.345,0.07,11480.555555555555
-0.335,0.075,11483.333333333334
-0.33,0.065,11486.111111111111
-0.34,0.045,11488.888888888889
-0.35,0.065,11491.666666666666
-0.365,0.06,11494.444444444445
-0.375,0.055,11497.222222222223
-0.385,0.04,11500.0
-0.39,0.06,11502.777777777777
-0.38,0.08,11505.555555555555
-0.38,0.075,11508.333333333334
-0.375,0.02,11511.111111111111
-0.375,0.025,11513.888888888889
-0.375,0.05,11516.666666666666
-0.37,0.075,11519.444444444445
-0.37,0.06,11522.222222222223
-0.365,0.05,11525.0
-0.375,0.06,11527.777777777777
-0.385,0.065,11530.555555555555
-0.365,0.055,11533.333333333334
-0.355,0.035,11536.111111111111
-0.34,0.04,11538.888888888889
-0.34,0.07,11541.666666666666
-0.325,0.055,11544.444444444445
-0.31,0.04,11547.222222222223
-0.295,0.065,11550.0
-0.3,0.085,11552.777777777777
-0.3,0.075,11555.555555555555
-0.33,0.055,11558.333333333334
-0.35,0.03,11561.111111111111
-0.385,0.05,11563.888888888889
-0.395,0.08,11566.666666666666
-0.39,0.08,11569.444444444445
-0.39,0.065,11572.222222222223
-0.39,0.065,11575.0
-0.42,0.08,11577.777777777777
