MLII,V1,time_ms
-0.26,-0.21,0.0
-0.26,-0.21,2.7777777777777777
-0.26,-0.21,5.555555555555555
-0.26,-0.21,8.333333333333334
-0.26,-0.21,11.11111111111111
-0.26,-0.21,13.88888888888889
-0.26,-0.21,16.666666666666668
-0.26,-0.21,19.444444444444443
-0.26,-0.195,22.22222222222222
-0.25,-0.185,25.0
-0.24,-0.175,27.77777777777778
-0.225,-0.17,30.555555555555557
-0.21,-0.18,33.333333333333336
-0.2,-0.18,36.111111111111114
-0.2,-0.19,38.888888888888886
-0.2,-0.17,41.666666666666664
-0.18,-0.18,44.44444444444444
-0.17,-0.185,47.22222222222222
-0.155,-0.185,50.0
-0.165,-0.19,52.77777777777778
-0.17,-0.195,55.55555555555556
-0.175,-0.195,58.333333333333336
-0.17,-0.175,61.111111111111114
-0.165,-0.165,63.888888888888886
-0.16,-0.16,66.66666666666667
-0.17,-0.205,69.44444444444444
-0.175,-0.26,72.22222222222223
-0.185,-0.295,75.0
-0.175,-0.295,77.77777777777777
-0.17,-0.255,80.55555555555556
-0.165,-0.24,83.33333333333333
-0.175,-0.245,86.11111111111111
-0.2,-0.26,88.88888888888889
-0.205,-0.295,91.66666666666667
-0.21,-0.3,94.44444444444444
-0.21,-0.29,97.22222222222223
-0.21,-0.28,100.0
-0.225,-0.285,102.77777777777777
-0.24,-0.285,105.55555555555556
-0.25,-0.275,108.33333333333333
-0.245,-0.265,111.11111111111111
-0.245,-0.245,113.88888888888889
-0.25,-0.245,116.66666666666667
-0.255,-0.255,119.44444444444444
-0.27,-0.255,122.22222222222223
-0.29,-0.245,125.0
-0.305,-0.23,127.77777777777777
-0.31,-0.215,130.55555555555554
-0.305,-0.2,133.33333333333334
-0.305,-0.19,136.11111111111111
-0.31,-0.2,138.88888888888889
-0.31,-0.185,141.66666666666666
-0.31,-0.18,144.44444444444446
-0.295,-0.165,147.22222222222223
-0.3,-0.175,150.0
-0.32,-0.16,152.77777777777777
-0.325,-0.155,155.55555555555554
-0.325,-0.13,158.33333333333334
-0.32,-0.125,161.11111111111111
-0.305,-0.14,163.88888888888889
-0.29,-0.155,166.66666666666666
-0.295,-0.155,169.44444444444446
-0.29,-0.16,172.22222222222223
-0.305,-0.14,175.0
-0.295,-0.12,177.77777777777777
-0.285,-0.09,180.55555555555554
-0.295,-0.115,183.33333333333334
-0.295,-0.13,186.11111111111111
-0.3,-0.135,188.88888888888889
-0.305,-0.125,191.66666666666666
-0.285,-0.1,194.44444444444446
-0.285,-0.085,197.22222222222223
-0.28,-0.095,200.0
-0.285,-0.11,202.77777777777777
-0.29,-0.115,205.55555555555554
-0.295,-0.095,208.33333333333334
-0.295,-0.085,211.11111111111111
-0.28,-0.075,213.88888888888889
-0.275,-0.065,216.66666666666666
-0.265,-0.065,219.44444444444446
-0.255,-0.085,222.22222222222223
-0.26,-0.085,225.0
-0.245,-0.1,227.77777777777777
-0.235,-0.105,230.55555555555554
-0.235,-0.11,233.33333333333334
-0.24,-0.14,236.11111111111111
-0.24,-0.155,238.88888888888889
-0.255,-0.165,241.66666666666666
-0.25,-0.175,244.44444444444446
-0.245,-0.19,247.22222222222223
-0.245,-0.2,250.0
-0.255,-0.21,252.77777777777777
-0.26,-0.23,255.55555555555554
-0.265,-0.22,258.3333333333333
-0.26,-0.215,261.1111111111111
-0.27,-0.205,263.8888888888889
-0.275,-0.195,266.6666666666667
-0.29,-0.205,269.44444444444446
-0.3,-0.23,272.22222222222223
-0.305,-0.235,275.0
-0.31,-0.22,277.77777777777777
-0.305,-0.215,280.55555555555554
-0.29,-0.235,283.3333333333333
-0.285,-0.26,286.1111111111111
-0.3,-0.265,288.8888888888889
-0.3,-0.265,291.6666666666667
-0.295,-0.245,294.44444444444446
-0.285,-0.225,297.22222222222223
-0.285,-0.22,300.0
-0.28,-0.23,302.77777777777777
-0.29,-0.26,305.55555555555554
-0.305,-0.26,308.3333333333333
-0.3,-0.245,311.1111111111111
-0.3,-0.23,313.8888888888889
-0.305,-0.225,316.6666666666667
-0.315,-0.235,319.44444444444446
-0.335,-0.23,322.22222222222223
-0.345,-0.2,325.0
-0.34,-0.17,327.77777777777777
-0.33,-0.155,330.55555555555554
-0.325,-0.145,333.3333333333333
-0.325,-0.145,336.1111111111111
-0.33,-0.165,338.8888888888889
-0.325,-0.175,341.6666666666667
-0.315,-0.175,344.44444444444446
-0.3,-0.155,347.22222222222223
-0.305,-0.15,350.0
-0.315,-0.145,352.77777777777777
-0.335,-0.12,355.55555555555554
-0.335,-0.1,358.3333333333333
-0.325,-0.075,361.1111111111111
-0.31,-0.08,363.8888888888889
-0.305,-0.11,366.6666666666667
-0.32,-0.145,369.44444444444446
-0.33,-0.17,372.22222222222223
-0.33,-0.17,375.0
-0.31,-0.15,377.77777777777777
-0.305,-0.14,380.55555555555554
-0.31,-0.135,383.3333333333333
-0.32,-0.135,386.1111111111111
-0.335,-0.135,388.8888888888889
-0.33,-0.115,391.6666666666667
-0.315,-0.075,394.44444444444446
-0.305,-0.05,397.22222222222223
-0.265,-0.05,400.0
-0.24,-0.09,402.77777777777777
-0.21,-0.17,405.55555555555554
-0.19,-0.235,408.3333333333333
-0.17,-0.3,411.1111111111111
-0.13,-0.355,413.8888888888889
-0.08,-0.44,416.6666666666667
0.005,-0.535,419.44444444444446
0.1,-0.64,422.22222222222223
0.185,-0.74,425.0
0.305,-0.84,427.77777777777777
0.43,-0.87,430.55555555555554
0.58,-0.86,433.3333333333333
0.705,-0.845,436.1111111111111
0.765,-0.815,438.8888888888889
0.835,-0.755,441.6666666666667
0.89,-0.625,444.44444444444446
0.87,-0.485,447.22222222222223
0.75,-0.36,450.0
0.575,-0.275,452.77777777777777
0.375,-0.255,455.55555555555554
0.15,-0.26,458.3333333333333
-0.03,-0.28,461.1111111111111
-0.13,-0.28,463.8888888888889
-0.18,-0.265,466.6666666666667
-0.22,-0.255,469.44444444444446
-0.23,-0.23,472.22222222222223
-0.235,-0.205,475.0
-0.215,-0.175,477.77777777777777
-0.215,-0.175,480.55555555555554
-0.22,-0.16,483.3333333333333
-0.235,-0.175,486.1111111111111
-0.255,-0.175,488.8888888888889
-0.265,-0.165,491.6666666666667
-0.275,-0.145,494.44444444444446
-0.275,-0.125,497.22222222222223
-0.295,-0.11,500.0
-0.3,-0.09,502.77777777777777
-0.305,-0.07,505.55555555555554
-0.31,-0.05,508.3333333333333
-0.3,-0.035,511.1111111111111
-0.315,-0.02,513.8888888888889
-0.325,-0.075,516.6666666666666
-0.345,-0.17,519.4444444444445
-0.335,-0.255,522.2222222222222
-0.34,-0.27,525.0
-0.32,-0.24,527.7777777777778
-0.295,-0.2,530.5555555555555
-0.285,-0.19,533.3333333333334
-0.295,-0.185,536.1111111111111
-0.315,-0.185,538.8888888888889
-0.32,-0.185,541.6666666666666
-0.325,-0.175,544.4444444444445
-0.325,-0.16,547.2222222222222
-0.325,-0.15,550.0
-0.335,-0.145,552.7777777777778
-0.325,-0.155,555.5555555555555
-0.335,-0.145,558.3333333333334
-0.32,-0.115,561.1111111111111
-0.32,-0.105,563.8888888888889
-0.31,-0.095,566.6666666666666
-0.31,-0.08,569.4444444444445
-0.3,-0.085,572.2222222222222
-0.28,-0.08,575.0
-0.255,-0.07,577.7777777777778
-0.235,-0.065,580.5555555555555
-0.21,-0.07,583.3333333333334
-0.205,-0.08,586.1111111111111
-0.2,-0.08,588.8888888888889
-0.205,-0.07,591.6666666666666
-0.215,-0.07,594.4444444444445
-0.195,-0.045,597.2222222222222
-0.195,-0.06,600.0
-0.205,-0.115,602.7777777777778
-0.21,-0.175,605.5555555555555
-0.215,-0.18,608.3333333333334
-0.21,-0.16,611.1111111111111
-0.195,-0.15,613.8888888888889
-0.175,-0.19,616.6666666666666
-0.165,-0.23,619.4444444444445
-0.175,-0.235,622.2222222222222
-0.165,-0.23,625.0
-0.16,-0.21,627.7777777777778
-0.16,-0.21,630.5555555555555
-0.16,-0.205,633.3333333333334
-0.165,-0.22,636.1111111111111
-0.17,-0.255,638.8888888888889
-0.185,-0.3,641.6666666666666
-0.2,-0.315,644.4444444444445
-0.19,-0.325,647.2222222222222
-0.18,-0.32,650.0
-0.175,-0.325,652.7777777777778
-0.165,-0.315,655.5555555555555
-0.175,-0.295,658.3333333333334
-0.17,-0.29,661.1111111111111
-0.165,-0.26,663.8888888888889
-0.17,-0.26,666.6666666666666
-0.175,-0.26,669.4444444444445
-0.19,-0.255,672.2222222222222
-0.195,-0.245,675.0
-0.205,-0.21,677.7777777777778
-0.195,-0.165,680.5555555555555
-0.21,-0.16,683.3333333333334
-0.205,-0.175,686.1111111111111
-0.215,-0.195,688.8888888888889
-0.225,-0.195,691.6666666666666
-0.225,-0.145,694.4444444444445
-0.22,-0.105,697.2222222222222
-0.23,-0.11,700.0
-0.25,-0.15,702.7777777777778
-0.265,-0.135,705.5555555555555
-0.29,-0.06,708.3333333333334
-0.285,0.005,711.1111111111111
-0.275,0.03,713.8888888888889
-0.275,-0.03,716.6666666666666
-0.3,-0.14,719.4444444444445
-0.33,-0.21,722.2222222222222
-0.335,-0.23,725.0
-0.31,-0.21,727.7777777777778
-0.28,-0.165,730.5555555555555
-0.265,-0.135,733.3333333333334
-0.255,-0.115,736.1111111111111
-0.25,-0.12,738.8888888888889
-0.255,-0.09,741.6666666666666
-0.27,-0.08,744.4444444444445
-0.26,-0.075,747.2222222222222
-0.25,-0.075,750.0
-0.24,-0.09,752.7777777777778
-0.24,-0.095,755.5555555555555
-0.24,-0.08,758.3333333333334
-0.215,-0.075,761.1111111111111
-0.215,-0.04,763.8888888888889
-0.22,-0.055,766.6666666666666
-0.235,-0.08,769.4444444444445
-0.24,-0.12,772.2222222222222
-0.26,-0.15,775.0
-0.255,-0.125,777.7777777777778
-0.255,-0.12,780.5555555555555
-0.26,-0.125,783.3333333333334
-0.255,-0.115,786.1111111111111
-0.26,-0.11,788.8888888888889
-0.265,-0.085,791.6666666666666
-0.255,-0.065,794.4444444444445
-0.255,-0.09,797.2222222222222
-0.265,-0.145,800.0
-0.27,-0.22,802.7777777777778
-0.275,-0.23,805.5555555555555
-0.28,-0.225,808.3333333333334
-0.265,-0.2,811.1111111111111
-0.27,-0.17,813.8888888888889
-0.265,-0.14,816.6666666666666
-0.275,-0.155,819.4444444444445
-0.275,-0.19,822.2222222222222
-0.29,-0.225,825.0
-0.295,-0.245,827.7777777777778
-0.3,-0.255,830.5555555555555
-0.29,-0.25,833.3333333333334
-0.295,-0.245,836.1111111111111
-0.305,-0.24,838.8888888888889
-0.315,-0.22,841.6666666666666
-0.315,-0.185,844.4444444444445
-0.31,-0.16,847.2222222222222
-0.305,-0.15,850.0
-0.305,-0.16,852.7777777777778
-0.295,-0.165,855.5555555555555
-0.32,-0.16,858.3333333333334
-0.33,-0.14,861.1111111111111
-0.33,-0.13,863.8888888888889
-0.33,-0.12,866.6666666666666
-0.335,-0.08,869.4444444444445
-0.35,-0.035,872.2222222222222
-0.34,-0.005,875.0
-0.325,0.005,877.7777777777778
-0.305,0.02,880.5555555555555
-0.295,0.055,883.3333333333334
-0.3,0.045,886.1111111111111
-0.32,-0.02,888.8888888888889
-0.35,-0.065,891.6666666666666
-0.36,-0.045,894.4444444444445
-0.345,0.01,897.2222222222222
-0.315,0.015,900.0
-0.29,-0.03,902.7777777777778
-0.29,-0.085,905.5555555555555
-0.295,-0.15,908.3333333333334
-0.335,-0.165,911.1111111111111
-0.335,-0.175,913.8888888888889
-0.32,-0.17,916.6666666666666
-0.295,-0.17,919.4444444444445
-0.29,-0.17,922.2222222222222
-0.285,-0.175,925.0
-0.275,-0.165,927.7777777777778
-0.28,-0.15,930.5555555555555
-0.27,-0.13,933.3333333333334
-0.265,-0.115,936.1111111111111
-0.285,-0.09,938.8888888888889
-0.285,-0.07,941.6666666666666
-0.27,-0.06,944.4444444444445
-0.275,-0.07,947.2222222222222
-0.29,-0.07,950.0
-0.3,-0.05,952.7777777777778
-0.31,-0.075,955.5555555555555
-0.315,-0.15,958.3333333333334
-0.32,-0.215,961.1111111111111
-0.305,-0.245,963.8888888888889
-0.29,-0.2,966.6666666666666
-0.28,-0.145,969.4444444444445
-0.285,-0.115,972.2222222222222
-0.29,-0.1,975.0
-0.29,-0.135,977.7777777777778
-0.29,-0.2,980.5555555555555
-0.295,-0.24,983.3333333333334
-0.305,-0.25,986.1111111111111
-0.31,-0.255,988.8888888888889
-0.29,-0.25,991.6666666666666
-0.27,-0.235,994.4444444444445
-0.255,-0.2,997.2222222222222
-0.25,-0.165,1000.0
-0.28,-0.16,1002.7777777777778
-0.315,-0.175,1005.5555555555555
-0.35,-0.2,1008.3333333333334
-0.365,-0.18,1011.1111111111111
-0.36,-0.165,1013.8888888888889
-0.345,-0.14,1016.6666666666666
-0.335,-0.13,1019.4444444444445
-0.345,-0.125,1022.2222222222222
-0.325,-0.085,1025.0
-0.31,-0.07,1027.7777777777778
-0.295,-0.055,1030.5555555555557
-0.3,-0.025,1033.3333333333333
-0.285,0.04,1036.111111111111
-0.27,0.12,1038.888888888889
-0.265,0.15,1041.6666666666667
-0.26,0.1,1044.4444444444443
-0.29,0.03,1047.2222222222222
-0.29,-0.045,1050.0
-0.285,-0.11,1052.7777777777778
-0.265,-0.14,1055.5555555555557
-0.265,-0.125,1058.3333333333333
-0.24,-0.09,1061.111111111111
-0.23,-0.115,1063.888888888889
-0.24,-0.185,1066.6666666666667
-0.27,-0.235,1069.4444444444443
-0.28,-0.255,1072.2222222222222
-0.285,-0.235,1075.0
-0.27,-0.23,1077.7777777777778
-0.245,-0.225,1080.5555555555557
-0.225,-0.21,1083.3333333333333
-0.215,-0.215,1086.111111111111
-0.215,-0.23,1088.888888888889
-0.235,-0.23,1091.6666666666667
-0.245,-0.215,1094.4444444444443
-0.255,-0.2,1097.2222222222222
-0.26,-0.195,1100.0
-0.275,-0.19,1102.7777777777778
-0.295,-0.18,1105.5555555555557
-0.3,-0.145,1108.3333333333333
-0.28,-0.13,1111.111111111111
-0.265,-0.125,1113.888888888889
-0.235,-0.155,1116.6666666666667
-0.21,-0.24,1119.4444444444443
-0.195,-0.35,1122.2222222222222
-0.18,-0.445,1125.0
-0.12,-0.545,1127.7777777777778
-0.04,-0.63,1130.5555555555557
0.1,-0.735,1133.3333333333333
0.235,-0.845,1136.111111111111
0.35,-0.905,1138.888888888889
0.475,-0.855,1141.6666666666667
0.62,-0.74,1144.4444444444443
0.735,-0.61,1147.2222222222222
0.85,-0.545,1150.0
0.945,-0.505,1152.7777777777778
0.98,-0.43,1155.5555555555557
0.89,-0.3,1158.3333333333333
0.72,-0.145,1161.111111111111
0.5,-0.02,1163.888888888889
0.27,0.065,1166.6666666666667
0.045,0.09,1169.4444444444443
-0.12,0.01,1172.2222222222222
-0.245,-0.095,1175.0
-0.33,-0.16,1177.7777777777778
-0.35,-0.175,1180.5555555555557
-0.3,-0.175,1183.3333333333333
-0.235,-0.175,1186.111111111111
-0.205,-0.225,1188.888888888889
-0.195,-0.245,1191.6666666666667
-0.2,-0.235,1194.4444444444443
-0.195,-0.2,1197.2222222222222
-0.2,-0.19,1200.0
-0.21,-0.205,1202.7777777777778
-0.215,-0.22,1205.5555555555557
-0.23,-0.215,1208.3333333333333
-0.235,-0.225,1211.111111111111
-0.23,-0.23,1213.888888888889
-0.22,-0.22,1216.6666666666667
-0.225,-0.24,1219.4444444444443
-0.24,-0.25,1222.2222222222222
-0.25,-0.25,1225.0
-0.235,-0.235,1227.7777777777778
-0.24,-0.23,1230.5555555555557
-0.245,-0.235,1233.3333333333333
-0.245,-0.24,1236.111111111111
-0.255,-0.26,1238.888888888889
-0.255,-0.245,1241.6666666666667
-0.255,-0.235,1244.4444444444443
-0.25,-0.22,1247.2222222222222
-0.25,-0.195,1250.0
-0.25,-0.195,1252.7777777777778
-0.24,-0.19,1255.5555555555557
-0.24,-0.175,1258.3333333333333
-0.235,-0.19,1261.111111111111
-0.22,-0.205,1263.888888888889
-0.225,-0.27,1266.6666666666667
-0.23,-0.325,1269.4444444444443
-0.22,-0.32,1272.2222222222222
-0.205,-0.27,1275.0
-0.19,-0.245,1277.7777777777778
-0.18,-0.235,1280.5555555555557
-0.18,-0.27,1283.3333333333333
-0.185,-0.315,1286.111111111111
-0.215,-0.35,1288.888888888889
-0.21,-0.335,1291.6666666666667
-0.18,-0.305,1294.4444444444443
-0.165,-0.295,1297.2222222222222
-0.14,-0.285,1300.0
-0.125,-0.27,1302.7777777777778
-0.13,-0.265,1305.5555555555557
-0.12,-0.255,1308.3333333333333
-0.12,-0.245,1311.111111111111
-0.11,-0.235,1313.888888888889
-0.11,-0.24,1316.6666666666667
-0.105,-0.245,1319.4444444444443
-0.1,-0.255,1322.2222222222222
-0.095,-0.26,1325.0
-0.09,-0.24,1327.7777777777778
-0.085,-0.245,1330.5555555555557
-0.075,-0.25,1333.3333333333333
-0.085,-0.26,1336.111111111111
-0.085,-0.275,1338.888888888889
-0.09,-0.26,1341.6666666666667
-0.065,-0.255,1344.4444444444443
-0.05,-0.235,1347.2222222222222
-0.045,-0.235,1350.0
-0.055,-0.24,1352.7777777777778
-0.06,-0.28,1355.5555555555557
-0.06,-0.305,1358.3333333333333
-0.045,-0.315,1361.111111111111
-0.045,-0.3,1363.888888888889
-0.025,-0.29,1366.6666666666667
-0.025,-0.29,1369.4444444444443
-0.03,-0.32,1372.2222222222222
-0.025,-0.335,1375.0
-0.025,-0.345,1377.7777777777778
-0.01,-0.35,1380.5555555555557
-0.005,-0.35,1383.3333333333333
0.0,-0.36,1386.111111111111
-0.01,-0.355,1388.888888888889
-0.005,-0.345,1391.6666666666667
-0.005,-0.32,1394.4444444444443
-0.01,-0.305,1397.2222222222222
-0.015,-0.29,1400.0
-0.03,-0.305,1402.7777777777778
-0.05,-0.3,1405.5555555555557
-0.075,-0.29,1408.3333333333333
-0.06,-0.28,1411.111111111111
-0.07,-0.255,1413.888888888889
-0.07,-0.255,1416.6666666666667
-0.08,-0.26,1419.4444444444443
-0.09,-0.265,1422.2222222222222
-0.11,-0.27,1425.0
-0.09,-0.245,1427.7777777777778
-0.095,-0.23,1430.5555555555557
-0.095,-0.21,1433.3333333333333
-0.11,-0.205,1436.111111111111
-0.14,-0.22,1438.888888888889
-0.145,-0.215,1441.6666666666667
-0.16,-0.21,1444.4444444444443
-0.145,-0.21,1447.2222222222222
-0.155,-0.21,1450.0
-0.15,-0.205,1452.7777777777778
-0.16,-0.2,1455.5555555555557
-0.16,-0.205,1458.3333333333333
-0.16,-0.21,1461.111111111111
-0.15,-0.195,1463.888888888889
-0.14,-0.195,1466.6666666666667
-0.15,-0.19,1469.4444444444443
-0.155,-0.195,1472.2222222222222
-0.17,-0.185,1475.0
-0.15,-0.185,1477.7777777777778
-0.14,-0.165,1480.5555555555557
-0.125,-0.16,1483.3333333333333
-0.13,-0.17,1486.111111111111
-0.14,-0.175,1488.888888888889
-0.155,-0.175,1491.6666666666667
-0.14,-0.16,1494.4444444444443
-0.125,-0.16,1497.2222222222222
-0.13,-0.175,1500.0
-0.135,-0.185,1502.7777777777778
-0.145,-0.195,1505.5555555555557
-0.155,-0.185,1508.3333333333333
-0.145,-0.19,1511.111111111111
-0.13,-0.18,1513.888888888889
-0.125,-0.185,1516.6666666666667
-0.135,-0.205,1519.4444444444443
-0.135,-0.215,1522.2222222222222
-0.135,-0.2,1525.0
-0.125,-0.165,1527.7777777777778
-0.11,-0.16,1530.5555555555557
-0.11,-0.16,1533.3333333333333
-0.095,-0.155,1536.111111111111
-0.115,-0.165,1538.888888888889
-0.115,-0.165,1541.6666666666667
-0.11,-0.18,1544.4444444444443
-0.095,-0.185,1547.2222222222222
-0.105,-0.18,1550.0
-0.115,-0.165,1552.7777777777778
-0.13,-0.16,1555.5555555555557
-0.135,-0.18,1558.3333333333333
-0.125,-0.185,1561.111111111111
-0.13,-0.205,1563.888888888889
-0.125,-0.205,1566.6666666666667
-0.14,-0.205,1569.4444444444443
-0.15,-0.21,1572.2222222222222
-0.15,-0.205,1575.0
-0.145,-0.195,1577.7777777777778
-0.135,-0.205,1580.5555555555557
-0.135,-0.23,1583.3333333333333
-0.155,-0.245,1586.111111111111
-0.16,-0.245,1588.888888888889
-0.175,-0.235,1591.6666666666667
-0.155,-0.205,1594.4444444444443
-0.15,-0.195,1597.2222222222222
-0.155,-0.195,1600.0
-0.16,-0.2,1602.7777777777778
-0.175,-0.215,1605.5555555555557
-0.175,-0.195,1608.3333333333333
-0.16,-0.175,1611.111111111111
-0.16,-0.18,1613.888888888889
-0.16,-0.17,1616.6666666666667
-0.16,-0.18,1619.4444444444443
-0.16,-0.185,1622.2222222222222
-0.17,-0.185,1625.0
-0.155,-0.17,1627.7777777777778
-0.145,-0.175,1630.5555555555557
-0.155,-0.19,1633.3333333333333
-0.175,-0.195,1636.111111111111
-0.17,-0.21,1638.888888888889
-0.17,-0.21,1641.6666666666667
-0.155,-0.205,1644.4444444444443
-0.14,-0.195,1647.2222222222222
-0.145,-0.205,1650.0
-0.16,-0.225,1652.7777777777778
-0.18,-0.23,1655.5555555555557
-0.18,-0.235,1658.3333333333333
-0.175,-0.22,1661.111111111111
-0.155,-0.21,1663.888888888889
-0.155,-0.215,1666.6666666666667
-0.155,-0.225,1669.4444444444443
-0.155,-0.23,1672.2222222222222
-0.165,-0.215,1675.0
-0.16,-0.2,1677.7777777777778
-0.145,-0.2,1680.5555555555557
-0.145,-0.195,1683.3333333333333
-0.155,-0.205,1686.111111111111
-0.15,-0.21,1688.888888888889
-0.155,-0.185,1691.6666666666667
-0.14,-0.18,1694.4444444444443
-0.135,-0.18,1697.2222222222222
-0.135,-0.2,1700.0
-0.15,-0.22,1702.7777777777778
-0.16,-0.23,1705.5555555555557
-0.175,-0.2,1708.3333333333333
-0.165,-0.19,1711.111111111111
-0.145,-0.17,1713.888888888889
-0.14,-0.17,1716.6666666666667
-0.155,-0.2,1719.4444444444443
-0.175,-0.21,1722.2222222222222
-0.19,-0.2,1725.0
-0.175,-0.195,1727.7777777777778
-0.165,-0.195,1730.5555555555557
-0.16,-0.2,1733.3333333333333
-0.18,-0.2,1736.111111111111
-0.195,-0.195,1738.888888888889
-0.2,-0.18,1741.6666666666667
-0.185,-0.165,1744.4444444444443
-0.175,-0.155,1747.2222222222222
-0.18,-0.17,1750.0
-0.185,-0.195,1752.7777777777778
-0.19,-0.215,1755.5555555555557
-0.19,-0.2,1758.3333333333333
-0.18,-0.21,1761.111111111111
-0.18,-0.175,1763.888888888889
-0.17,-0.17,1766.6666666666667
-0.165,-0.175,1769.4444444444443
-0.18,-0.18,1772.2222222222222
-0.19,-0.17,1775.0
-0.17,-0.145,1777.7777777777778
-0.16,-0.135,1780.5555555555557
-0.165,-0.145,1783.3333333333333
-0.175,-0.155,1786.111111111111
-0.175,-0.18,1788.888888888889
-0.175,-0.185,1791.6666666666667
-0.17,-0.175,1794.4444444444443
-0.17,-0.165,1797.2222222222222
-0.17,-0.17,1800.0
-0.175,-0.19,1802.7777777777778
-0.18,-0.195,1805.5555555555557
-0.19,-0.19,1808.3333333333333
-0.17,-0.19,1811.111111111111
-0.16,-0.18,1813.888888888889
-0.155,-0.2,1816.6666666666667
-0.16,-0.215,1819.4444444444443
-0.17,-0.22,1822.2222222222222
-0.165,-0.21,1825.0
-0.15,-0.2,1827.7777777777778
-0.135,-0.2,1830.5555555555557
-0.145,-0.2,1833.3333333333333
-0.17,-0.205,1836.111111111111
-0.185,-0.235,1838.888888888889
-0.185,-0.235,1841.6666666666667
-0.165,-0.22,1844.4444444444443
-0.17,-0.225,1847.2222222222222
-0.16,-0.22,1850.0
-0.17,-0.235,1852.7777777777778
-0.18,-0.225,1855.5555555555557
-0.195,-0.195,1858.3333333333333
-0.18,-0.145,1861.111111111111
-0.14,-0.09,1863.888888888889
-0.125,-0.11,1866.6666666666667
-0.105,-0.19,1869.4444444444443
-0.095,-0.33,1872.2222222222222
-0.075,-0.43,1875.0
-0.035,-0.5,1877.7777777777778
0.025,-0.545,1880.5555555555557
0.115,-0.61,1883.3333333333333
0.22,-0.705,1886.111111111111
0.325,-0.815,1888.888888888889
0.44,-0.885,1891.6666666666667
0.585,-0.905,1894.4444444444443
0.71,-0.845,1897.2222222222222
0.82,-0.78,1900.0
0.915,-0.705,1902.7777777777778
1.005,-0.62,1905.5555555555557
1.055,-0.49,1908.3333333333333
1.04,-0.355,1911.111111111111
0.935,-0.24,1913.888888888889
0.76,-0.145,1916.6666666666667
0.555,-0.095,1919.4444444444443
0.33,-0.08,1922.2222222222222
0.135,-0.1,1925.0
0.0,-0.14,1927.7777777777778
-0.095,-0.175,1930.5555555555557
-0.155,-0.2,1933.3333333333333
-0.195,-0.21,1936.111111111111
-0.19,-0.21,1938.888888888889
-0.155,-0.205,1941.6666666666667
-0.115,-0.175,1944.4444444444443
-0.105,-0.17,1947.2222222222222
-0.105,-0.17,1950.0
-0.13,-0.175,1952.7777777777778
-0.145,-0.185,1955.5555555555557
-0.165,-0.19,1958.3333333333333
-0.165,-0.175,1961.111111111111
-0.16,-0.175,1963.888888888889
-0.16,-0.17,1966.6666666666667
-0.17,-0.19,1969.4444444444443
-0.19,-0.215,1972.2222222222222
-0.19,-0.2,1975.0
-0.18,-0.215,1977.7777777777778
-0.17,-0.225,1980.5555555555557
-0.175,-0.235,1983.3333333333333
-0.185,-0.26,1986.111111111111
-0.18,-0.29,1988.888888888889
-0.19,-0.29,1991.6666666666667
-0.185,-0.275,1994.4444444444443
-0.175,-0.265,1997.2222222222222
-0.175,-0.265,2000.0
-0.17,-0.26,2002.7777777777778
-0.175,-0.27,2005.5555555555557
-0.185,-0.255,2008.3333333333333
-0.18,-0.23,2011.111111111111
-0.155,-0.225,2013.888888888889
-0.15,-0.22,2016.6666666666667
-0.16,-0.23,2019.4444444444443
-0.165,-0.235,2022.2222222222222
-0.17,-0.235,2025.0
-0.16,-0.225,2027.7777777777778
-0.145,-0.225,2030.5555555555557
-0.155,-0.235,2033.3333333333333
-0.16,-0.24,2036.111111111111
-0.17,-0.255,2038.888888888889
-0.165,-0.245,2041.6666666666667
-0.16,-0.23,2044.4444444444443
-0.15,-0.235,2047.2222222222222
-0.145,-0.235,2050.0
-0.145,-0.24,2052.777777777778
-0.15,-0.255,2055.5555555555557
-0.155,-0.24,2058.3333333333335
-0.145,-0.225,2061.1111111111113
-0.14,-0.225,2063.8888888888887
-0.135,-0.225,2066.6666666666665
-0.145,-0.23,2069.4444444444443
-0.145,-0.235,2072.222222222222
-0.15,-0.225,2075.0
-0.135,-0.21,2077.777777777778
-0.12,-0.205,2080.5555555555557
-0.125,-0.205,2083.3333333333335
-0.125,-0.225,2086.1111111111113
-0.135,-0.23,2088.8888888888887
-0.14,-0.215,2091.6666666666665
-0.125,-0.21,2094.4444444444443
-0.115,-0.205,2097.222222222222
-0.13,-0.205,2100.0
-0.125,-0.225,2102.777777777778
-0.135,-0.26,2105.5555555555557
-0.13,-0.255,2108.3333333333335
-0.125,-0.245,2111.1111111111113
-0.105,-0.22,2113.8888888888887
-0.1,-0.225,2116.6666666666665
-0.1,-0.225,2119.4444444444443
-0.09,-0.235,2122.222222222222
-0.08,-0.235,2125.0
-0.055,-0.235,2127.777777777778
-0.04,-0.235,2130.5555555555557
-0.03,-0.245,2133.3333333333335
-0.04,-0.24,2136.1111111111113
-0.045,-0.25,2138.8888888888887
-0.04,-0.24,2141.6666666666665
-0.025,-0.24,2144.4444444444443
-0.02,-0.24,2147.222222222222
-0.01,-0.225,2150.0
-0.015,-0.23,2152.777777777778
-0.025,-0.23,2155.5555555555557
-0.035,-0.225,2158.3333333333335
-0.025,-0.225,2161.1111111111113
-0.03,-0.205,2163.8888888888887
-0.04,-0.205,2166.6666666666665
-0.055,-0.21,2169.4444444444443
-0.075,-0.21,2172.222222222222
-0.085,-0.195,2175.0
-0.085,-0.175,2177.777777777778
-0.075,-0.165,2180.5555555555557
-0.09,-0.17,2183.3333333333335
-0.1,-0.18,2186.1111111111113
-0.13,-0.185,2188.8888888888887
-0.135,-0.17,2191.6666666666665
-0.14,-0.14,2194.4444444444443
-0.14,-0.13,2197.222222222222
-0.145,-0.135,2200.0
-0.15,-0.15,2202.777777777778
-0.165,-0.19,2205.5555555555557
-0.17,-0.205,2208.3333333333335
-0.165,-0.21,2211.1111111111113
-0.155,-0.205,2213.8888888888887
-0.17,-0.185,2216.6666666666665
-0.17,-0.18,2219.4444444444443
-0.175,-0.18,2222.222222222222
-0.175,-0.165,2225.0
-0.17,-0.16,2227.777777777778
-0.155,-0.145,2230.5555555555557
-0.16,-0.145,2233.3333333333335
-0.165,-0.16,2236.1111111111113
-0.175,-0.165,2238.8888888888887
-0.17,-0.16,2241.6666666666665
-0.16,-0.15,2244.4444444444443
-0.16,-0.145,2247.222222222222
-0.17,-0.155,2250.0
-0.17,-0.165,2252.777777777778
-0.19,-0.18,2255.5555555555557
-0.185,-0.165,2258.3333333333335
-0.19,-0.16,2261.1111111111113
-0.185,-0.15,2263.8888888888887
-0.19,-0.17,2266.6666666666665
-0.185,-0.18,2269.4444444444443
-0.195,-0.195,2272.222222222222
-0.2,-0.2,2275.0
-0.195,-0.21,2277.777777777778
-0.195,-0.2,2280.5555555555557
-0.185,-0.205,2283.3333333333335
-0.18,-0.215,2286.1111111111113
-0.18,-0.225,2288.8888888888887
-0.165,-0.215,2291.6666666666665
-0.17,-0.195,2294.4444444444443
-0.16,-0.2,2297.222222222222
-0.165,-0.185,2300.0
-0.16,-0.21,2302.777777777778
-0.16,-0.23,2305.5555555555557
-0.16,-0.205,2308.3333333333335
-0.15,-0.19,2311.1111111111113
-0.14,-0.185,2313.8888888888887
-0.145,-0.195,2316.6666666666665
-0.145,-0.205,2319.4444444444443
-0.16,-0.205,2322.222222222222
-0.175,-0.195,2325.0
-0.165,-0.185,2327.777777777778
-0.16,-0.18,2330.5555555555557
-0.165,-0.195,2333.3333333333335
-0.175,-0.205,2336.1111111111113
-0.17,-0.255,2338.8888888888887
-0.185,-0.245,2341.6666666666665
-0.175,-0.235,2344.4444444444443
-0.17,-0.22,2347.222222222222
-0.175,-0.22,2350.0
-0.18,-0.22,2352.777777777778
-0.195,-0.24,2355.5555555555557
-0.195,-0.235,2358.3333333333335
-0.185,-0.25,2361.1111111111113
-0.18,-0.245,2363.8888888888887
-0.165,-0.245,2366.6666666666665
-0.18,-0.235,2369.4444444444443
-0.19,-0.25,2372.222222222222
-0.195,-0.235,2375.0
-0.195,-0.22,2377.777777777778
-0.185,-0.205,2380.5555555555557
-0.18,-0.2,2383.3333333333335
-0.19,-0.2,2386.1111111111113
-0.195,-0.215,2388.8888888888887
-0.21,-0.2,2391.6666666666665
-0.195,-0.185,2394.4444444444443
-0.19,-0.18,2397.222222222222
-0.19,-0.18,2400.0
-0.205,-0.18,2402.777777777778
-0.19,-0.18,2405.5555555555557
-0.21,-0.17,2408.3333333333335
-0.19,-0.155,2411.1111111111113
-0.19,-0.15,2413.8888888888887
-0.195,-0.14,2416.6666666666665
-0.205,-0.14,2419.4444444444443
-0.205,-0.155,2422.222222222222
-0.215,-0.145,2425.0
-0.21,-0.135,2427.777777777778
-0.195,-0.13,2430.5555555555557
-0.195,-0.14,2433.3333333333335
-0.205,-0.135,2436.1111111111113
-0.205,-0.145,2438.8888888888887
-0.215,-0.14,2441.6666666666665
-0.22,-0.115,2444.4444444444443
-0.21,-0.1,2447.222222222222
-0.22,-0.105,2450.0
-0.22,-0.135,2452.777777777778
-0.23,-0.16,2455.5555555555557
-0.22,-0.155,2458.3333333333335
-0.2,-0.145,2461.1111111111113
-0.185,-0.135,2463.8888888888887
-0.165,-0.135,2466.6666666666665
-0.15,-0.15,2469.4444444444443
-0.14,-0.185,2472.222222222222
-0.12,-0.255,2475.0
-0.1,-0.335,2477.777777777778
-0.085,-0.42,2480.5555555555557
-0.06,-0.475,2483.3333333333335
0.0,-0.54,2486.1111111111113
0.075,-0.61,2488.8888888888887
0.165,-0.68,2491.6666666666665
0.27,-0.79,2494.4444444444443
0.365,-0.88,2497.222222222222
0.475,-0.955,2500.0
0.6,-0.98,2502.777777777778
0.69,-0.935,2505.5555555555557
0.77,-0.88,2508.3333333333335
0.85,-0.8,2511.1111111111113
0.91,-0.7,2513.8888888888887
0.91,-0.555,2516.6666666666665
0.835,-0.435,2519.4444444444443
0.725,-0.365,2522.222222222222
0.59,-0.28,2525.0
0.43,-0.245,2527.777777777778
0.25,-0.245,2530.5555555555557
0.1,-0.26,2533.3333333333335
0.0,-0.275,2536.1111111111113
-0.065,-0.275,2538.8888888888887
-0.105,-0.245,2541.6666666666665
-0.12,-0.235,2544.4444444444443
-0.115,-0.22,2547.222222222222
-0.105,-0.205,2550.0
-0.11,-0.21,2552.777777777778
-0.135,-0.205,2555.5555555555557
-0.155,-0.195,2558.3333333333335
-0.165,-0.19,2561.1111111111113
-0.17,-0.185,2563.8888888888887
-0.165,-0.195,2566.6666666666665
-0.18,-0.19,2569.4444444444443
-0.195,-0.19,2572.222222222222
-0.2,-0.185,2575.0
-0.2,-0.175,2577.777777777778
-0.2,-0.18,2580.5555555555557
-0.21,-0.2,2583.3333333333335
-0.215,-0.205,2586.1111111111113
-0.21,-0.2,2588.8888888888887
-0.215,-0.19,2591.6666666666665
-0.215,-0.17,2594.4444444444443
-0.21,-0.175,2597.222222222222
-0.225,-0.17,2600.0
-0.225,-0.17,2602.777777777778
-0.24,-0.175,2605.5555555555557
-0.24,-0.165,2608.3333333333335
-0.245,-0.16,2611.1111111111113
-0.24,-0.135,2613.8888888888887
-0.24,-0.145,2616.6666666666665
-0.25,-0.16,2619.4444444444443
-0.26,-0.16,2622.222222222222
-0.26,-0.16,2625.0
-0.25,-0.16,2627.777777777778
-0.255,-0.155,2630.5555555555557
-0.255,-0.165,2633.3333333333335
-0.265,-0.18,2636.1111111111113
-0.275,-0.19,2638.8888888888887
-0.29,-0.195,2641.6666666666665
-0.285,-0.175,2644.4444444444443
-0.285,-0.175,2647.222222222222
-0.295,-0.17,2650.0
-0.31,-0.185,2652.777777777778
-0.315,-0.205,2655.5555555555557
-0.3,-0.21,2658.3333333333335
-0.265,-0.205,2661.1111111111113
-0.25,-0.2,2663.8888888888887
-0.235,-0.215,2666.6666666666665
-0.235,-0.215,2669.4444444444443
-0.235,-0.23,2672.222222222222
-0.225,-0.21,2675.0
-0.205,-0.22,2677.777777777778
-0.18,-0.205,2680.5555555555557
-0.17,-0.22,2683.3333333333335
-0.17,-0.22,2686.1111111111113
-0.175,-0.23,2688.8888888888887
-0.18,-0.23,2691.6666666666665
-0.165,-0.235,2694.4444444444443
-0.145,-0.245,2697.222222222222
-0.15,-0.26,2700.0
-0.145,-0.275,2702.777777777778
-0.135,-0.27,2705.5555555555557
-0.14,-0.28,2708.3333333333335
-0.14,-0.245,2711.1111111111113
-0.135,-0.255,2713.8888888888887
-0.125,-0.26,2716.6666666666665
-0.125,-0.26,2719.4444444444443
-0.12,-0.265,2722.222222222222
-0.115,-0.255,2725.0
-0.115,-0.26,2727.777777777778
-0.105,-0.255,2730.5555555555557
-0.1,-0.25,2733.3333333333335
-0.105,-0.27,2736.1111111111113
-0.105,-0.27,2738.8888888888887
-0.11,-0.265,2741.6666666666665
-0.1,-0.245,2744.4444444444443
-0.095,-0.255,2747.222222222222
-0.085,-0.275,2750.0
-0.1,-0.265,2752.777777777778
-0.1,-0.275,2755.5555555555557
-0.105,-0.255,2758.3333333333335
-0.095,-0.26,2761.1111111111113
-0.09,-0.25,2763.8888888888887
-0.095,-0.26,2766.6666666666665
-0.105,-0.245,2769.4444444444443
-0.115,-0.255,2772.222222222222
-0.125,-0.25,2775.0
-0.12,-0.24,2777.777777777778
-0.12,-0.21,2780.5555555555557
-0.14,-0.21,2783.3333333333335
-0.15,-0.21,2786.1111111111113
-0.175,-0.2,2788.8888888888887
-0.185,-0.19,2791.6666666666665
-0.185,-0.18,2794.4444444444443
-0.19,-0.19,2797.222222222222
-0.21,-0.19,2800.0
-0.22,-0.205,2802.777777777778
-0.23,-0.195,2805.5555555555557
-0.23,-0.2,2808.3333333333335
-0.24,-0.185,2811.1111111111113
-0.255,-0.2,2813.8888888888887
-0.26,-0.21,2816.6666666666665
-0.285,-0.205,2819.4444444444443
-0.3,-0.21,2822.222222222222
-0.29,-0.215,2825.0
-0.28,-0.23,2827.777777777778
-0.28,-0.23,2830.5555555555557
-0.265,-0.225,2833.3333333333335
-0.285,-0.23,2836.1111111111113
-0.26,-0.215,2838.8888888888887
-0.225,-0.2,2841.6666666666665
-0.2,-0.2,2844.4444444444443
-0.18,-0.2,2847.222222222222
-0.165,-0.2,2850.0
-0.16,-0.2,2852.777777777778
-0.17,-0.18,2855.5555555555557
-0.16,-0.165,2858.3333333333335
-0.155,-0.17,2861.1111111111113
-0.155,-0.17,2863.8888888888887
-0.155,-0.175,2866.6666666666665
-0.16,-0.19,2869.4444444444443
-0.16,-0.17,2872.222222222222
-0.15,-0.16,2875.0
-0.15,-0.15,2877.777777777778
-0.155,-0.155,2880.5555555555557
-0.165,-0.165,2883.3333333333335
-0.175,-0.17,2886.1111111111113
-0.18,-0.165,2888.8888888888887
-0.16,-0.155,2891.6666666666665
-0.16,-0.15,2894.4444444444443
-0.15,-0.16,2897.222222222222
-0.165,-0.18,2900.0
-0.165,-0.185,2902.777777777778
-0.165,-0.18,2905.5555555555557
-0.17,-0.18,2908.3333333333335
-0.165,-0.17,2911.1111111111113
-0.17,-0.17,2913.8888888888887
-0.18,-0.17,2916.6666666666665
-0.18,-0.19,2919.4444444444443
-0.18,-0.175,2922.222222222222
-0.17,-0.16,2925.0
-0.17,-0.155,2927.777777777778
-0.185,-0.16,2930.5555555555557
-0.2,-0.17,2933.3333333333335
-0.22,-0.19,2936.1111111111113
-0.22,-0.185,2938.8888888888887
-0.22,-0.18,2941.6666666666665
-0.21,-0.17,2944.4444444444443
-0.215,-0.17,2947.222222222222
-0.225,-0.17,2950.0
-0.24,-0.175,2952.777777777778
-0.245,-0.15,2955.5555555555557
-0.235,-0.135,2958.3333333333335
-0.23,-0.14,2961.1111111111113
-0.245,-0.16,2963.8888888888887
-0.265,-0.175,2966.6666666666665
-0.28,-0.195,2969.4444444444443
-0.285,-0.205,2972.222222222222
-0.285,-0.205,2975.0
-0.28,-0.215,2977.777777777778
-0.295,-0.235,2980.5555555555557
-0.305,-0.26,2983.3333333333335
-0.305,-0.28,2986.1111111111113
-0.31,-0.27,2988.8888888888887
-0.295,-0.255,2991.6666666666665
-0.285,-0.24,2994.4444444444443
-0.275,-0.235,2997.222222222222
-0.265,-0.23,3000.0
-0.265,-0.23,3002.777777777778
-0.25,-0.215,3005.5555555555557
-0.225,-0.19,3008.3333333333335
-0.195,-0.185,3011.1111111111113
-0.19,-0.19,3013.8888888888887
-0.195,-0.2,3016.6666666666665
-0.2,-0.205,3019.4444444444443
-0.21,-0.195,3022.222222222222
-0.21,-0.165,3025.0
-0.2,-0.135,3027.777777777778
-0.2,-0.12,3030.5555555555557
-0.205,-0.12,3033.3333333333335
-0.215,-0.15,3036.1111111111113
-0.215,-0.185,3038.8888888888887
-0.195,-0.21,3041.6666666666665
-0.2,-0.21,3044.4444444444443
-0.18,-0.225,3047.222222222222
-0.19,-0.23,3050.0
-0.19,-0.235,3052.777777777778
-0.195,-0.21,3055.5555555555557
-0.195,-0.2,3058.3333333333335
-0.195,-0.195,3061.1111111111113
-0.205,-0.19,3063.8888888888887
-0.2,-0.195,3066.6666666666665
-0.21,-0.205,3069.4444444444443
-0.215,-0.185,3072.222222222222
-0.21,-0.18,3075.0
-0.205,-0.175,3077.777777777778
-0.205,-0.17,3080.5555555555557
-0.21,-0.185,3083.3333333333335
-0.225,-0.205,3086.1111111111113
-0.22,-0.185,3088.8888888888887
-0.215,-0.175,3091.6666666666665
-0.205,-0.165,3094.4444444444443
-0.215,-0.17,3097.222222222222
-0.23,-0.18,3100.0
-0.23,-0.185,3102.777777777778
-0.23,-0.17,3105.5555555555557
-0.23,-0.155,3108.3333333333335
-0.23,-0.16,3111.1111111111113
-0.235,-0.15,3113.8888888888887
-0.25,-0.16,3116.6666666666665
-0.265,-0.175,3119.4444444444443
-0.26,-0.175,3122.222222222222
-0.255,-0.165,3125.0
-0.25,-0.17,3127.777777777778
-0.255,-0.185,3130.5555555555557
-0.265,-0.195,3133.3333333333335
-0.275,-0.205,3136.1111111111113
-0.285,-0.205,3138.8888888888887
-0.275,-0.195,3141.6666666666665
-0.27,-0.175,3144.4444444444443
-0.26,-0.175,3147.222222222222
-0.275,-0.175,3150.0
-0.28,-0.18,3152.777777777778
-0.275,-0.175,3155.5555555555557
-0.265,-0.175,3158.3333333333335
-0.25,-0.165,3161.1111111111113
-0.24,-0.155,3163.8888888888887
-0.23,-0.165,3166.6666666666665
-0.22,-0.17,3169.4444444444443
-0.21,-0.16,3172.222222222222
-0.19,-0.185,3175.0
-0.18,-0.2,3177.777777777778
-0.175,-0.22,3180.5555555555557
-0.19,-0.24,3183.3333333333335
-0.18,-0.245,3186.1111111111113
-0.175,-0.245,3188.8888888888887
-0.175,-0.235,3191.6666666666665
-0.17,-0.235,3194.4444444444443
-0.175,-0.23,3197.222222222222
-0.18,-0.24,3200.0
-0.185,-0.25,3202.777777777778
-0.19,-0.245,3205.5555555555557
-0.18,-0.225,3208.3333333333335
-0.175,-0.23,3211.1111111111113
-0.175,-0.23,3213.8888888888887
-0.175,-0.235,3216.6666666666665
-0.2,-0.24,3219.4444444444443
-0.19,-0.235,3222.222222222222
-0.175,-0.22,3225.0
-0.17,-0.225,3227.777777777778
-0.175,-0.225,3230.5555555555557
-0.185,-0.225,3233.3333333333335
-0.18,-0.24,3236.1111111111113
-0.185,-0.23,3238.8888888888887
-0.165,-0.23,3241.6666666666665
-0.16,-0.215,3244.4444444444443
-0.17,-0.195,3247.222222222222
-0.175,-0.195,3250.0
-0.18,-0.195,3252.777777777778
-0.18,-0.175,3255.5555555555557
-0.155,-0.16,3258.3333333333335
-0.135,-0.175,3261.1111111111113
-0.125,-0.23,3263.8888888888887
-0.1,-0.32,3266.6666666666665
-0.095,-0.41,3269.4444444444443
-0.08,-0.47,3272.222222222222
-0.035,-0.535,3275.0
0.035,-0.585,3277.777777777778
0.135,-0.645,3280.5555555555557
0.24,-0.74,3283.3333333333335
0.34,-0.835,3286.1111111111113
0.465,-0.88,3288.8888888888887
0.61,-0.86,3291.6666666666665
0.735,-0.8,3294.4444444444443
0.845,-0.715,3297.222222222222
0.94,-0.655,3300.0
1.01,-0.58,3302.777777777778
1.025,-0.45,3305.5555555555557
0.94,-0.325,3308.3333333333335
0.775,-0.21,3311.1111111111113
0.55,-0.12,3313.8888888888887
0.31,-0.08,3316.6666666666665
0.1,-0.075,3319.4444444444443
-0.04,-0.105,3322.222222222222
-0.135,-0.135,3325.0
-0.21,-0.175,3327.777777777778
-0.28,-0.205,3330.5555555555557
-0.315,-0.22,3333.3333333333335
-0.305,-0.225,3336.1111111111113
-0.27,-0.205,3338.8888888888887
-0.235,-0.195,3341.6666666666665
-0.23,-0.18,3344.4444444444443
-0.23,-0.185,3347.222222222222
-0.235,-0.205,3350.0
-0.245,-0.22,3352.777777777778
-0.245,-0.2,3355.5555555555557
-0.245,-0.19,3358.3333333333335
-0.24,-0.205,3361.1111111111113
-0.25,-0.21,3363.8888888888887
-0.25,-0.235,3366.6666666666665
-0.25,-0.24,3369.4444444444443
-0.245,-0.245,3372.222222222222
-0.235,-0.23,3375.0
-0.225,-0.215,3377.777777777778
-0.22,-0.225,3380.5555555555557
-0.23,-0.24,3383.3333333333335
-0.24,-0.245,3386.1111111111113
-0.25,-0.25,3388.8888888888887
-0.245,-0.235,3391.6666666666665
-0.235,-0.225,3394.4444444444443
-0.235,-0.225,3397.222222222222
-0.25,-0.23,3400.0
-0.25,-0.235,3402.777777777778
-0.25,-0.23,3405.5555555555557
-0.235,-0.225,3408.3333333333335
-0.24,-0.215,3411.1111111111113
-0.235,-0.21,3413.8888888888887
-0.23,-0.24,3416.6666666666665
-0.245,-0.245,3419.4444444444443
-0.25,-0.235,3422.222222222222
-0.235,-0.245,3425.0
-0.235,-0.235,3427.777777777778
-0.235,-0.245,3430.5555555555557
-0.23,-0.25,3433.3333333333335
-0.235,-0.255,3436.1111111111113
-0.235,-0.255,3438.8888888888887
-0.22,-0.26,3441.6666666666665
-0.215,-0.255,3444.4444444444443
-0.215,-0.24,3447.222222222222
-0.225,-0.255,3450.0
-0.23,-0.265,3452.777777777778
-0.225,-0.275,3455.5555555555557
-0.215,-0.26,3458.3333333333335
-0.21,-0.26,3461.1111111111113
-0.205,-0.26,3463.8888888888887
-0.21,-0.255,3466.6666666666665
-0.215,-0.26,3469.4444444444443
-0.21,-0.25,3472.222222222222
-0.195,-0.235,3475.0
-0.175,-0.225,3477.777777777778
-0.17,-0.22,3480.5555555555557
-0.175,-0.22,3483.3333333333335
-0.17,-0.225,3486.1111111111113
-0.185,-0.21,3488.8888888888887
-0.155,-0.2,3491.6666666666665
-0.155,-0.2,3494.4444444444443
-0.155,-0.21,3497.222222222222
-0.155,-0.22,3500.0
-0.15,-0.235,3502.777777777778
-0.14,-0.225,3505.5555555555557
-0.135,-0.22,3508.3333333333335
-0.135,-0.215,3511.1111111111113
-0.13,-0.22,3513.8888888888887
-0.14,-0.24,3516.6666666666665
-0.135,-0.255,3519.4444444444443
-0.135,-0.26,3522.222222222222
-0.13,-0.25,3525.0
-0.13,-0.24,3527.777777777778
-0.13,-0.235,3530.5555555555557
-0.135,-0.245,3533.3333333333335
-0.13,-0.25,3536.1111111111113
-0.115,-0.24,3538.8888888888887
-0.09,-0.225,3541.6666666666665
-0.07,-0.24,3544.4444444444443
-0.065,-0.255,3547.222222222222
-0.065,-0.27,3550.0
-0.08,-0.29,3552.777777777778
-0.085,-0.295,3555.5555555555557
-0.065,-0.305,3558.3333333333335
-0.065,-0.315,3561.1111111111113
-0.065,-0.315,3563.8888888888887
-0.08,-0.315,3566.6666666666665
-0.08,-0.33,3569.4444444444443
-0.08,-0.31,3572.222222222222
-0.085,-0.31,3575.0
-0.075,-0.305,3577.777777777778
-0.085,-0.3,3580.5555555555557
-0.105,-0.295,3583.3333333333335
-0.12,-0.295,3586.1111111111113
-0.13,-0.29,3588.8888888888887
-0.12,-0.27,3591.6666666666665
-0.125,-0.275,3594.4444444444443
-0.135,-0.25,3597.222222222222
-0.14,-0.245,3600.0
-0.155,-0.27,3602.777777777778
-0.165,-0.27,3605.5555555555557
-0.17,-0.255,3608.3333333333335
-0.17,-0.265,3611.1111111111113
-0.165,-0.265,3613.8888888888887
-0.175,-0.27,3616.6666666666665
-0.19,-0.275,3619.4444444444443
-0.205,-0.245,3622.222222222222
-0.205,-0.23,3625.0
-0.19,-0.23,3627.777777777778
-0.205,-0.225,3630.5555555555557
-0.205,-0.23,3633.3333333333335
-0.21,-0.23,3636.1111111111113
-0.21,-0.235,3638.8888888888887
-0.195,-0.21,3641.6666666666665
-0.195,-0.185,3644.4444444444443
-0.195,-0.18,3647.222222222222
-0.2,-0.17,3650.0
-0.22,-0.18,3652.777777777778
-0.235,-0.175,3655.5555555555557
-0.215,-0.165,3658.3333333333335
-0.19,-0.175,3661.1111111111113
-0.18,-0.18,3663.8888888888887
-0.18,-0.18,3666.6666666666665
-0.195,-0.185,3669.4444444444443
-0.2,-0.175,3672.222222222222
-0.19,-0.165,3675.0
-0.17,-0.155,3677.777777777778
-0.16,-0.175,3680.5555555555557
-0.165,-0.185,3683.3333333333335
-0.18,-0.2,3686.1111111111113
-0.175,-0.175,3688.8888888888887
-0.16,-0.175,3691.6666666666665
-0.16,-0.16,3694.4444444444443
-0.165,-0.17,3697.222222222222
-0.175,-0.19,3700.0
-0.195,-0.19,3702.777777777778
-0.2,-0.18,3705.5555555555557
-0.2,-0.165,3708.3333333333335
-0.195,-0.145,3711.1111111111113
-0.2,-0.15,3713.8888888888887
-0.205,-0.16,3716.6666666666665
-0.225,-0.17,3719.4444444444443
-0.23,-0.15,3722.222222222222
-0.22,-0.14,3725.0
-0.19,-0.135,3727.777777777778
-0.18,-0.155,3730.5555555555557
-0.185,-0.17,3733.3333333333335
-0.19,-0.19,3736.1111111111113
-0.2,-0.19,3738.8888888888887
-0.19,-0.195,3741.6666666666665
-0.18,-0.185,3744.4444444444443
-0.18,-0.2,3747.222222222222
-0.185,-0.21,3750.0
-0.205,-0.235,3752.777777777778
-0.21,-0.225,3755.5555555555557
-0.205,-0.22,3758.3333333333335
-0.21,-0.225,3761.1111111111113
-0.215,-0.235,3763.8888888888887
-0.22,-0.26,3766.6666666666665
-0.24,-0.27,3769.4444444444443
-0.245,-0.265,3772.222222222222
-0.24,-0.255,3775.0
-0.22,-0.25,3777.777777777778
-0.22,-0.25,3780.5555555555557
-0.215,-0.26,3783.3333333333335
-0.225,-0.26,3786.1111111111113
-0.23,-0.245,3788.8888888888887
-0.225,-0.23,3791.6666666666665
-0.225,-0.225,3794.4444444444443
-0.22,-0.22,3797.222222222222
-0.225,-0.22,3800.0
-0.24,-0.245,3802.777777777778
-0.245,-0.24,3805.5555555555557
-0.225,-0.225,3808.3333333333335
-0.22,-0.21,3811.1111111111113
-0.215,-0.225,3813.8888888888887
-0.21,-0.22,3816.6666666666665
-0.215,-0.23,3819.4444444444443
-0.235,-0.22,3822.222222222222
-0.215,-0.205,3825.0
-0.215,-0.2,3827.777777777778
-0.21,-0.195,3830.5555555555557
-0.215,-0.2,3833.3333333333335
-0.215,-0.2,3836.1111111111113
-0.22,-0.195,3838.8888888888887
-0.215,-0.19,3841.6666666666665
-0.205,-0.18,3844.4444444444443
-0.19,-0.19,3847.222222222222
-0.195,-0.19,3850.0
-0.19,-0.2,3852.777777777778
-0.205,-0.195,3855.5555555555557
-0.185,-0.185,3858.3333333333335
-0.18,-0.185,3861.1111111111113
-0.185,-0.18,3863.8888888888887
-0.19,-0.2,3866.6666666666665
-0.195,-0.2,3869.4444444444443
-0.205,-0.205,3872.222222222222
-0.215,-0.195,3875.0
-0.205,-0.195,3877.777777777778
-0.21,-0.185,3880.5555555555557
-0.21,-0.19,3883.3333333333335
-0.225,-0.195,3886.1111111111113
-0.215,-0.17,3888.8888888888887
-0.205,-0.17,3891.6666666666665
-0.205,-0.16,3894.4444444444443
-0.205,-0.155,3897.222222222222
-0.22,-0.14,3900.0
-0.24,-0.145,3902.777777777778
-0.24,-0.125,3905.5555555555557
-0.215,-0.125,3908.3333333333335
-0.2,-0.14,3911.1111111111113
-0.18,-0.215,3913.8888888888887
-0.15,-0.32,3916.6666666666665
-0.13,-0.425,3919.4444444444443
-0.08,-0.5,3922.222222222222
-0.005,-0.59,3925.0
0.115,-0.655,3927.777777777778
0.23,-0.76,3930.5555555555557
0.315,-0.875,3933.3333333333335
0.405,-0.95,3936.1111111111113
0.515,-0.98,3938.8888888888887
0.65,-0.93,3941.6666666666665
0.74,-0.88,3944.4444444444443
0.81,-0.82,3947.222222222222
0.89,-0.745,3950.0
0.925,-0.625,3952.777777777778
0.885,-0.475,3955.5555555555557
0.765,-0.345,3958.3333333333335
0.64,-0.265,3961.1111111111113
0.46,-0.22,3963.8888888888887
0.255,-0.215,3966.6666666666665
0.085,-0.245,3969.4444444444443
-0.025,-0.255,3972.222222222222
-0.085,-0.26,3975.0
-0.135,-0.23,3977.777777777778
-0.155,-0.22,3980.5555555555557
-0.145,-0.225,3983.3333333333335
-0.14,-0.225,3986.1111111111113
-0.13,-0.215,3988.8888888888887
-0.12,-0.205,3991.6666666666665
-0.13,-0.2,3994.4444444444443
-0.155,-0.2,3997.222222222222
-0.17,-0.205,4000.0
-0.185,-0.21,4002.777777777778
-0.2,-0.2,4005.5555555555557
-0.215,-0.205,4008.3333333333335
-0.2,-0.19,4011.1111111111113
-0.205,-0.195,4013.8888888888887
-0.205,-0.205,4016.6666666666665
-0.22,-0.205,4019.4444444444443
-0.225,-0.21,4022.222222222222
-0.225,-0.19,4025.0
-0.205,-0.175,4027.777777777778
-0.215,-0.185,4030.5555555555557
-0.215,-0.195,4033.3333333333335
-0.225,-0.205,4036.1111111111113
-0.225,-0.19,4038.8888888888887
-0.225,-0.18,4041.6666666666665
-0.215,-0.18,4044.4444444444443
-0.215,-0.175,4047.222222222222
-0.225,-0.175,4050.0
-0.235,-0.19,4052.777777777778
-0.25,-0.175,4055.5555555555557
-0.24,-0.175,4058.3333333333335
-0.235,-0.17,4061.1111111111113
-0.23,-0.16,4063.8888888888887
-0.235,-0.175,4066.6666666666665
-0.235,-0.17,4069.4444444444443
-0.25,-0.165,4072.222222222222
-0.25,-0.16,4075.0
-0.255,-0.155,4077.777777777778
-0.25,-0.165,4080.5555555555557
-0.255,-0.16,4083.3333333333335
-0.265,-0.175,4086.1111111111113
-0.27,-0.16,4088.8888888888887
-0.265,-0.155,4091.6666666666665
-0.245,-0.145,4094.4444444444443
-0.245,-0.15,4097.222222222223
-0.24,-0.155,4100.0
-0.24,-0.17,4102.777777777777
-0.24,-0.17,4105.555555555556
-0.235,-0.185,4108.333333333333
-0.225,-0.195,4111.111111111111
-0.21,-0.195,4113.888888888889
-0.22,-0.2,4116.666666666667
-0.225,-0.215,4119.444444444444
-0.22,-0.215,4122.222222222223
-0.2,-0.215,4125.0
-0.185,-0.21,4127.777777777777
-0.165,-0.225,4130.555555555556
-0.165,-0.25,4133.333333333333
-0.17,-0.265,4136.111111111111
-0.15,-0.245,4138.888888888889
-0.145,-0.245,4141.666666666667
-0.135,-0.235,4144.444444444444
-0.135,-0.24,4147.222222222223
-0.125,-0.245,4150.0
-0.135,-0.265,4152.777777777777
-0.135,-0.255,4155.555555555556
-0.14,-0.245,4158.333333333333
-0.125,-0.245,4161.111111111111
-0.12,-0.24,4163.888888888889
-0.13,-0.245,4166.666666666667
-0.14,-0.275,4169.444444444444
-0.15,-0.27,4172.222222222223
-0.14,-0.26,4175.0
-0.115,-0.245,4177.777777777777
-0.105,-0.245,4180.555555555556
-0.115,-0.255,4183.333333333333
-0.115,-0.26,4186.111111111111
-0.125,-0.26,4188.888888888889
-0.115,-0.245,4191.666666666667
-0.11,-0.235,4194.444444444444
-0.125,-0.235,4197.222222222223
-0.14,-0.245,4200.0
-0.15,-0.24,4202.777777777777
-0.155,-0.245,4205.555555555556
-0.16,-0.23,4208.333333333333
-0.17,-0.215,4211.111111111111
-0.17,-0.21,4213.888888888889
-0.185,-0.21,4216.666666666667
-0.2,-0.215,4219.444444444444
-0.22,-0.205,4222.222222222223
-0.225,-0.2,4225.0
-0.225,-0.19,4227.777777777777
-0.235,-0.185,4230.555555555556
-0.24,-0.2,4233.333333333333
-0.255,-0.195,4236.111111111111
-0.265,-0.19,4238.888888888889
-0.275,-0.185,4241.666666666667
-0.27,-0.175,4244.444444444444
-0.27,-0.18,4247.222222222223
-0.275,-0.175,4250.0
-0.285,-0.175,4252.777777777777
-0.29,-0.17,4255.555555555556
-0.29,-0.165,4258.333333333333
-0.28,-0.16,4261.111111111111
-0.295,-0.165,4263.888888888889
-0.295,-0.16,4266.666666666667
-0.305,-0.16,4269.444444444444
-0.305,-0.15,4272.222222222223
-0.31,-0.125,4275.0
-0.29,-0.115,4277.777777777777
-0.275,-0.11,4280.555555555556
-0.26,-0.115,4283.333333333333
-0.265,-0.135,4286.111111111111
-0.25,-0.135,4288.888888888889
-0.225,-0.135,4291.666666666667
-0.215,-0.135,4294.444444444444
-0.2,-0.165,4297.222222222223
-0.19,-0.195,4300.0
-0.2,-0.19,4302.777777777777
-0.19,-0.18,4305.555555555556
-0.17,-0.175,4308.333333333333
-0.155,-0.18,4311.111111111111
-0.15,-0.205,4313.888888888889
-0.155,-0.205,4316.666666666667
-0.17,-0.215,4319.444444444444
-0.165,-0.205,4322.222222222223
-0.155,-0.195,4325.0
-0.15,-0.195,4327.777777777777
-0.155,-0.195,4330.555555555556
-0.16,-0.205,4333.333333333333
-0.175,-0.21,4336.111111111111
-0.17,-0.22,4338.888888888889
-0.165,-0.2,4341.666666666667
-0.17,-0.19,4344.444444444444
-0.175,-0.2,4347.222222222223
-0.165,-0.21,4350.0
-0.165,-0.21,4352.777777777777
-0.18,-0.2,4355.555555555556
-0.185,-0.19,4358.333333333333
-0.17,-0.19,4361.111111111111
-0.185,-0.195,4363.888888888889
-0.19,-0.22,4366.666666666667
-0.2,-0.225,4369.444444444444
-0.205,-0.22,4372.222222222223
-0.205,-0.2,4375.0
-0.215,-0.2,4377.777777777777
-0.21,-0.195,4380.555555555556
-0.215,-0.2,4383.333333333333
-0.22,-0.22,4386.111111111111
-0.23,-0.21,4388.888888888889
-0.225,-0.2,4391.666666666667
-0.22,-0.18,4394.444444444444
-0.22,-0.19,4397.222222222223
-0.225,-0.205,4400.0
-0.235,-0.21,4402.777777777777
-0.25,-0.205,4405.555555555556
-0.245,-0.185,4408.333333333333
-0.24,-0.185,4411.111111111111
-0.25,-0.185,4413.888888888889
-0.26,-0.195,4416.666666666667
-0.275,-0.205,4419.444444444444
-0.29,-0.205,4422.222222222223
-0.29,-0.205,4425.0
-0.285,-0.195,4427.777777777777
-0.29,-0.205,4430.555555555556
-0.3,-0.21,4433.333333333333
-0.305,-0.225,4436.111111111111
-0.315,-0.215,4438.888888888889
-0.31,-0.21,4441.666666666667
-0.31,-0.19,4444.444444444444
-0.3,-0.18,4447.222222222223
-0.32,-0.17,4450.0
-0.315,-0.17,4452.777777777777
-0.32,-0.15,4455.555555555556
-0.31,-0.135,4458.333333333333
-0.285,-0.15,4461.111111111111
-0.255,-0.225,4463.888888888889
-0.21,-0.315,4466.666666666667
-0.175,-0.4,4469.444444444444
-0.135,-0.46,4472.222222222223
-0.075,-0.505,4475.0
0.01,-0.55,4477.777777777777
0.09,-0.615,4480.555555555556
0.16,-0.705,4483.333333333333
0.23,-0.825,4486.111111111111
0.315,-0.9,4488.888888888889
0.42,-0.945,4491.666666666667
0.525,-0.925,4494.444444444444
0.6,-0.885,4497.222222222223
0.66,-0.83,4500.0
0.715,-0.75,4502.777777777777
0.725,-0.61,4505.555555555556
0.7,-0.455,4508.333333333333
0.62,-0.32,4511.111111111111
0.5,-0.255,4513.888888888889
0.325,-0.235,4516.666666666667
0.135,-0.255,4519.444444444444
-0.02,-0.265,4522.222222222223
-0.095,-0.265,4525.0
-0.135,-0.24,4527.777777777777
-0.175,-0.225,4530.555555555556
-0.21,-0.22,4533.333333333333
-0.22,-0.21,4536.111111111111
-0.215,-0.185,4538.888888888889
-0.205,-0.175,4541.666666666667
-0.215,-0.18,4544.444444444444
-0.225,-0.185,4547.222222222223
-0.25,-0.18,4550.0
-0.265,-0.185,4552.777777777777
-0.275,-0.175,4555.555555555556
-0.275,-0.17,4558.333333333333
-0.28,-0.155,4561.111111111111
-0.27,-0.16,4563.888888888889
-0.285,-0.16,4566.666666666667
-0.295,-0.17,4569.444444444444
-0.3,-0.16,4572.222222222223
-0.3,-0.155,4575.0
-0.295,-0.15,4577.777777777777
-0.3,-0.17,4580.555555555556
-0.32,-0.175,4583.333333333333
-0.32,-0.19,4586.111111111111
-0.315,-0.185,4588.888888888889
-0.3,-0.16,4591.666666666667
-0.3,-0.165,4594.444444444444
-0.31,-0.18,4597.222222222223
-0.31,-0.185,4600.0
-0.33,-0.195,4602.777777777777
-0.32,-0.195,4605.555555555556
-0.315,-0.175,4608.333333333333
-0.315,-0.18,4611.111111111111
-0.315,-0.195,4613.888888888889
-0.32,-0.215,4616.666666666667
-0.325,-0.235,4619.444444444444
-0.315,-0.225,4622.222222222223
-0.32,-0.215,4625.0
-0.3,-0.22,4627.777777777777
-0.29,-0.22,4630.555555555556
-0.3,-0.245,4633.333333333333
-0.31,-0.255,4636.111111111111
-0.315,-0.24,4638.888888888889
-0.3,-0.235,4641.666666666667
-0.29,-0.24,4644.444444444444
-0.3,-0.24,4647.222222222223
-0.295,-0.245,4650.0
-0.29,-0.255,4652.777777777777
-0.28,-0.24,4655.555555555556
-0.255,-0.245,4658.333333333333
-0.23,-0.23,4661.111111111111
-0.225,-0.24,4663.888888888889
-0.235,-0.26,4666.666666666667
-0.245,-0.27,4669.444444444444
-0.235,-0.25,4672.222222222223
-0.22,-0.245,4675.0
-0.215,-0.245,4677.777777777777
-0.215,-0.24,4680.555555555556
-0.225,-0.24,4683.333333333333
-0.225,-0.25,4686.111111111111
-0.21,-0.23,4688.888888888889
-0.2,-0.22,4691.666666666667
-0.195,-0.225,4694.444444444444
-0.19,-0.235,4697.222222222223
-0.195,-0.245,4700.0
-0.19,-0.26,4702.777777777777
-0.195,-0.245,4705.555555555556
-0.19,-0.22,4708.333333333333
-0.17,-0.215,4711.111111111111
-0.175,-0.225,4713.888888888889
-0.165,-0.235,4716.666666666667
-0.16,-0.245,4719.444444444444
-0.15,-0.24,4722.222222222223
-0.13,-0.22,4725.0
-0.13,-0.215,4727.777777777777
-0.135,-0.215,4730.555555555556
-0.13,-0.22,4733.333333333333
-0.135,-0.21,4736.111111111111
-0.14,-0.2,4738.888888888889
-0.125,-0.2,4741.666666666667
-0.115,-0.185,4744.444444444444
-0.12,-0.2,4747.222222222223
-0.135,-0.19,4750.0
-0.15,-0.2,4752.777777777777
-0.16,-0.195,4755.555555555556
-0.16,-0.19,4758.333333333333
-0.165,-0.185,4761.111111111111
-0.175,-0.175,4763.888888888889
-0.2,-0.2,4766.666666666667
-0.21,-0.205,4769.444444444444
-0.225,-0.19,4772.222222222223
-0.215,-0.185,4775.0
-0.21,-0.185,4777.777777777777
-0.215,-0.19,4780.555555555556
-0.245,-0.205,4783.333333333333
-0.26,-0.215,4786.111111111111
-0.26,-0.21,4788.888888888889
-0.275,-0.2,4791.666666666667
-0.265,-0.2,4794.444444444444
-0.275,-0.215,4797.222222222223
-0.285,-0.23,4800.0
-0.295,-0.25,4802.777777777777
-0.3,-0.235,4805.555555555556
-0.295,-0.22,4808.333333333333
-0.285,-0.215,4811.111111111111
-0.29,-0.225,4813.888888888889
-0.29,-0.245,4816.666666666667
-0.295,-0.26,4819.444444444444
-0.285,-0.255,4822.222222222223
-0.28,-0.235,4825.0
-0.26,-0.2,4827.777777777777
-0.27,-0.185,4830.555555555556
-0.27,-0.195,4833.333333333333
-0.285,-0.215,4836.111111111111
-0.285,-0.21,4838.888888888889
-0.275,-0.205,4841.666666666667
-0.27,-0.2,4844.444444444444
-0.275,-0.195,4847.222222222223
-0.285,-0.195,4850.0
-0.3,-0.215,4852.777777777777
-0.3,-0.205,4855.555555555556
-0.29,-0.195,4858.333333333333
-0.275,-0.185,4861.111111111111
-0.285,-0.185,4863.888888888889
-0.29,-0.19,4866.666666666667
-0.295,-0.195,4869.444444444444
-0.285,-0.19,4872.222222222223
-0.27,-0.17,4875.0
-0.265,-0.16,4877.777777777777
-0.275,-0.16,4880.555555555556
-0.275,-0.155,4883.333333333333
-0.28,-0.165,4886.111111111111
-0.275,-0.15,4888.888888888889
-0.275,-0.15,4891.666666666667
-0.26,-0.15,4894.444444444444
-0.26,-0.16,4897.222222222223
-0.275,-0.18,4900.0
-0.29,-0.185,4902.777777777777
-0.275,-0.165,4905.555555555556
-0.26,-0.145,4908.333333333333
-0.255,-0.15,4911.111111111111
-0.255,-0.15,4913.888888888889
-0.265,-0.145,4916.666666666667
-0.27,-0.145,4919.444444444444
-0.26,-0.135,4922.222222222223
-0.27,-0.12,4925.0
-0.265,-0.11,4927.777777777777
-0.26,-0.115,4930.555555555556
-0.28,-0.125,4933.333333333333
-0.295,-0.135,4936.111111111111
-0.275,-0.13,4938.888888888889
-0.265,-0.105,4941.666666666667
-0.255,-0.105,4944.444444444444
-0.26,-0.12,4947.222222222223
-0.28,-0.145,4950.0
-0.3,-0.14,4952.777777777777
-0.295,-0.145,4955.555555555556
-0.29,-0.135,4958.333333333333
-0.28,-0.155,4961.111111111111
-0.29,-0.155,4963.888888888889
-0.295,-0.175,4966.666666666667
-0.305,-0.205,4969.444444444444
-0.295,-0.205,4972.222222222223
-0.295,-0.205,4975.0
-0.275,-0.195,4977.777777777777
-0.285,-0.2,4980.555555555556
-0.29,-0.225,4983.333333333333
-0.295,-0.25,4986.111111111111
-0.295,-0.245,4988.888888888889
-0.28,-0.235,4991.666666666667
-0.28,-0.22,4994.444444444444
-0.28,-0.225,4997.222222222223
-0.28,-0.23,5000.0
-0.28,-0.25,5002.777777777777
-0.285,-0.235,5005.555555555556
-0.265,-0.22,5008.333333333333
-0.255,-0.22,5011.111111111111
-0.265,-0.225,5013.888888888889
-0.275,-0.24,5016.666666666667
-0.29,-0.245,5019.444444444444
-0.305,-0.235,5022.222222222223
-0.285,-0.2,5025.0
-0.28,-0.185,5027.777777777777
-0.28,-0.195,5030.555555555556
-0.285,-0.21,5033.333333333333
-0.29,-0.23,5036.111111111111
-0.305,-0.235,5038.888888888889
-0.29,-0.23,5041.666666666667
-0.275,-0.225,5044.444444444444
-0.275,-0.225,5047.222222222223
-0.28,-0.22,5050.0
-0.285,-0.23,5052.777777777777
-0.29,-0.23,5055.555555555556
-0.29,-0.22,5058.333333333333
-0.27,-0.22,5061.111111111111
-0.28,-0.225,5063.888888888889
-0.275,-0.22,5066.666666666667
-0.285,-0.22,5069.444444444444
-0.29,-0.215,5072.222222222223
-0.275,-0.195,5075.0
-0.265,-0.18,5077.777777777777
-0.275,-0.18,5080.555555555556
-0.265,-0.175,5083.333333333333
-0.27,-0.18,5086.111111111111
-0.27,-0.175,5088.888888888889
-0.265,-0.165,5091.666666666667
-0.26,-0.175,5094.444444444444
-0.27,-0.165,5097.222222222223
-0.27,-0.175,5100.0
-0.285,-0.175,5102.777777777777
-0.295,-0.165,5105.555555555556
-0.29,-0.16,5108.333333333333
-0.29,-0.165,5111.111111111111
-0.29,-0.15,5113.888888888889
-0.3,-0.16,5116.666666666667
-0.305,-0.165,5119.444444444444
-0.31,-0.165,5122.222222222223
-0.31,-0.175,5125.0
-0.31,-0.165,5127.777777777777
-0.31,-0.17,5130.555555555556
-0.305,-0.18,5133.333333333333
-0.315,-0.175,5136.111111111111
-0.315,-0.17,5138.888888888889
-0.315,-0.165,5141.666666666667
-0.31,-0.16,5144.444444444444
-0.31,-0.155,5147.222222222223
-0.32,-0.17,5150.0
-0.32,-0.19,5152.777777777777
-0.325,-0.185,5155.555555555556
-0.32,-0.16,5158.333333333333
-0.315,-0.165,5161.111111111111
-0.325,-0.175,5163.888888888889
-0.32,-0.2,5166.666666666667
-0.335,-0.21,5169.444444444444
-0.32,-0.2,5172.222222222223
-0.3,-0.19,5175.0
-0.29,-0.185,5177.777777777777
-0.28,-0.185,5180.555555555556
-0.255,-0.2,5183.333333333333
-0.27,-0.215,5186.111111111111
-0.265,-0.22,5188.888888888889
-0.265,-0.225,5191.666666666667
-0.255,-0.235,5194.444444444444
-0.27,-0.235,5197.222222222223
-0.27,-0.255,5200.0
-0.285,-0.27,5202.777777777777
-0.28,-0.255,5205.555555555556
-0.275,-0.25,5208.333333333333
-0.27,-0.245,5211.111111111111
-0.28,-0.25,5213.888888888889
-0.285,-0.255,5216.666666666667
-0.29,-0.265,5219.444444444444
-0.3,-0.275,5222.222222222223
-0.3,-0.26,5225.0
-0.3,-0.255,5227.777777777777
-0.295,-0.25,5230.555555555556
-0.295,-0.265,5233.333333333333
-0.3,-0.265,5236.111111111111
-0.315,-0.25,5238.888888888889
-0.305,-0.24,5241.666666666667
-0.3,-0.23,5244.444444444444
-0.285,-0.225,5247.222222222223
-0.29,-0.225,5250.0
-0.295,-0.235,5252.777777777777
-0.31,-0.235,5255.555555555556
-0.3,-0.23,5258.333333333333
-0.29,-0.225,5261.111111111111
-0.29,-0.225,5263.888888888889
-0.295,-0.24,5266.666666666667
-0.3,-0.23,5269.444444444444
-0.3,-0.225,5272.222222222223
-0.3,-0.205,5275.0
-0.3,-0.195,5277.777777777777
-0.31,-0.2,5280.555555555556
-0.305,-0.21,5283.333333333333
-0.315,-0.22,5286.111111111111
-0.315,-0.21,5288.888888888889
-0.315,-0.205,5291.666666666667
-0.31,-0.195,5294.444444444444
-0.3,-0.2,5297.222222222223
-0.305,-0.215,5300.0
-0.31,-0.215,5302.777777777777
-0.31,-0.21,5305.555555555556
-0.295,-0.19,5308.333333333333
-0.295,-0.175,5311.111111111111
-0.295,-0.18,5313.888888888889
-0.295,-0.19,5316.666666666667
-0.3,-0.19,5319.444444444444
-0.29,-0.18,5322.222222222223
-0.285,-0.175,5325.0
-0.27,-0.165,5327.777777777777
-0.275,-0.165,5330.555555555556
-0.27,-0.17,5333.333333333333
-0.28,-0.18,5336.111111111111
-0.275,-0.18,5338.888888888889
-0.27,-0.18,5341.666666666667
-0.275,-0.155,5344.444444444444
-0.285,-0.16,5347.222222222223
-0.275,-0.16,5350.0
-0.275,-0.18,5352.777777777777
-0.27,-0.195,5355.555555555556
-0.27,-0.205,5358.333333333333
-0.265,-0.195,5361.111111111111
-0.27,-0.19,5363.888888888889
-0.265,-0.195,5366.666666666667
-0.26,-0.195,5369.444444444444
-0.255,-0.21,5372.222222222223
-0.23,-0.21,5375.0
-0.22,-0.22,5377.777777777777
-0.225,-0.225,5380.555555555556
-0.24,-0.24,5383.333333333333
-0.245,-0.25,5386.111111111111
-0.24,-0.245,5388.888888888889
-0.245,-0.24,5391.666666666667
-0.235,-0.24,5394.444444444444
-0.23,-0.225,5397.222222222223
-0.225,-0.245,5400.0
-0.22,-0.26,5402.777777777777
-0.225,-0.24,5405.555555555556
-0.205,-0.215,5408.333333333333
-0.2,-0.205,5411.111111111111
-0.2,-0.205,5413.888888888889
-0.19,-0.215,5416.666666666667
-0.18,-0.25,5419.444444444444
-0.14,-0.29,5422.222222222223
-0.125,-0.38,5425.0
-0.11,-0.47,5427.777777777777
-0.08,-0.54,5430.555555555556
-0.045,-0.625,5433.333333333333
0.03,-0.69,5436.111111111111
0.125,-0.775,5438.888888888889
0.245,-0.855,5441.666666666667
0.35,-0.95,5444.444444444444
0.465,-0.985,5447.222222222223
0.565,-0.98,5450.0
0.66,-0.925,5452.777777777777
0.74,-0.845,5455.555555555556
0.82,-0.77,5458.333333333333
0.885,-0.66,5461.111111111111
0.875,-0.525,5463.888888888889
0.75,-0.395,5466.666666666667
0.58,-0.295,5469.444444444444
0.37,-0.2,5472.222222222223
0.165,-0.16,5475.0
-0.005,-0.165,5477.777777777777
-0.125,-0.225,5480.555555555556
-0.205,-0.275,5483.333333333333
-0.27,-0.295,5486.111111111111
-0.29,-0.275,5488.888888888889
-0.285,-0.24,5491.666666666667
-0.245,-0.23,5494.444444444444
-0.22,-0.225,5497.222222222223
-0.22,-0.225,5500.0
-0.23,-0.22,5502.777777777777
-0.245,-0.205,5505.555555555556
-0.245,-0.19,5508.333333333333
-0.26,-0.18,5511.111111111111
-0.26,-0.18,5513.888888888889
-0.29,-0.19,5516.666666666667
-0.285,-0.195,5519.444444444444
-0.305,-0.185,5522.222222222223
-0.3,-0.17,5525.0
-0.3,-0.18,5527.777777777777
-0.315,-0.175,5530.555555555556
-0.335,-0.19,5533.333333333333
-0.335,-0.19,5536.111111111111
-0.35,-0.19,5538.888888888889
-0.36,-0.175,5541.666666666667
-0.355,-0.16,5544.444444444444
-0.37,-0.145,5547.222222222223
-0.37,-0.165,5550.0
-0.36,-0.165,5552.777777777777
-0.335,-0.155,5555.555555555556
-0.3,-0.16,5558.333333333333
-0.285,-0.16,5561.111111111111
-0.28,-0.175,5563.888888888889
-0.275,-0.19,5566.666666666667
-0.285,-0.205,5569.444444444444
-0.295,-0.21,5572.222222222223
-0.29,-0.235,5575.0
-0.285,-0.255,5577.777777777777
-0.275,-0.285,5580.555555555556
-0.285,-0.305,5583.333333333333
-0.285,-0.32,5586.111111111111
-0.28,-0.31,5588.888888888889
-0.285,-0.295,5591.666666666667
-0.275,-0.295,5594.444444444444
-0.28,-0.29,5597.222222222223
-0.27,-0.29,5600.0
-0.265,-0.305,5602.777777777777
-0.255,-0.305,5605.555555555556
-0.25,-0.295,5608.333333333333
-0.24,-0.29,5611.111111111111
-0.235,-0.295,5613.888888888889
-0.245,-0.315,5616.666666666667
-0.25,-0.32,5619.444444444444
-0.245,-0.295,5622.222222222223
-0.23,-0.295,5625.0
-0.205,-0.28,5627.777777777777
-0.205,-0.29,5630.555555555556
-0.2,-0.305,5633.333333333333
-0.21,-0.315,5636.111111111111
-0.205,-0.305,5638.888888888889
-0.205,-0.3,5641.666666666667
-0.2,-0.29,5644.444444444444
-0.205,-0.295,5647.222222222223
-0.21,-0.295,5650.0
-0.205,-0.31,5652.777777777777
-0.215,-0.3,5655.555555555556
-0.205,-0.295,5658.333333333333
-0.18,-0.285,5661.111111111111
-0.175,-0.29,5663.888888888889
-0.18,-0.285,5666.666666666667
-0.18,-0.28,5669.444444444444
-0.175,-0.275,5672.222222222223
-0.17,-0.265,5675.0
-0.165,-0.27,5677.777777777777
-0.175,-0.29,5680.555555555556
-0.18,-0.295,5683.333333333333
-0.19,-0.31,5686.111111111111
-0.18,-0.295,5688.888888888889
-0.16,-0.285,5691.666666666667
-0.155,-0.28,5694.444444444444
-0.155,-0.29,5697.222222222223
-0.15,-0.295,5700.0
-0.15,-0.31,5702.777777777777
-0.14,-0.315,5705.555555555556
-0.135,-0.305,5708.333333333333
-0.13,-0.295,5711.111111111111
-0.125,-0.285,5713.888888888889
-0.14,-0.29,5716.666666666667
-0.15,-0.295,5719.444444444444
-0.155,-0.275,5722.222222222223
-0.15,-0.27,5725.0
-0.155,-0.25,5727.777777777777
-0.155,-0.25,5730.555555555556
-0.165,-0.24,5733.333333333333
-0.17,-0.24,5736.111111111111
-0.165,-0.23,5738.888888888889
-0.14,-0.235,5741.666666666667
-0.14,-0.26,5744.444444444444
-0.14,-0.28,5747.222222222223
-0.15,-0.3,5750.0
-0.17,-0.315,5752.777777777777
-0.16,-0.31,5755.555555555556
-0.175,-0.285,5758.333333333333
-0.17,-0.28,5761.111111111111
-0.175,-0.28,5763.888888888889
-0.19,-0.295,5766.666666666667
-0.205,-0.295,5769.444444444444
-0.22,-0.285,5772.222222222223
-0.21,-0.28,5775.0
-0.2,-0.27,5777.777777777777
-0.2,-0.27,5780.555555555556
-0.21,-0.28,5783.333333333333
-0.215,-0.27,5786.111111111111
-0.22,-0.265,5788.888888888889
-0.21,-0.24,5791.666666666667
-0.205,-0.235,5794.444444444444
-0.2,-0.225,5797.222222222223
-0.215,-0.245,5800.0
-0.21,-0.24,5802.777777777777
-0.21,-0.225,5805.555555555556
-0.2,-0.205,5808.333333333333
-0.2,-0.21,5811.111111111111
-0.205,-0.21,5813.888888888889
-0.215,-0.215,5816.666666666667
-0.22,-0.22,5819.444444444444
-0.225,-0.215,5822.222222222223
-0.225,-0.195,5825.0
-0.215,-0.19,5827.777777777777
-0.225,-0.2,5830.555555555556
-0.23,-0.195,5833.333333333333
-0.245,-0.19,5836.111111111111
-0.235,-0.17,5838.888888888889
-0.225,-0.16,5841.666666666667
-0.225,-0.16,5844.444444444444
-0.23,-0.175,5847.222222222223
-0.23,-0.195,5850.0
-0.23,-0.19,5852.777777777777
-0.22,-0.175,5855.555555555556
-0.215,-0.165,5858.333333333333
-0.205,-0.155,5861.111111111111
-0.21,-0.165,5863.888888888889
-0.22,-0.175,5866.666666666667
-0.23,-0.195,5869.444444444444
-0.245,-0.2,5872.222222222223
-0.235,-0.2,5875.0
-0.24,-0.2,5877.777777777777
-0.255,-0.19,5880.555555555556
-0.265,-0.19,5883.333333333333
-0.28,-0.195,5886.111111111111
-0.285,-0.195,5888.888888888889
-0.28,-0.195,5891.666666666667
-0.275,-0.185,5894.444444444444
-0.28,-0.19,5897.222222222223
-0.275,-0.205,5900.0
-0.275,-0.205,5902.777777777777
-0.265,-0.205,5905.555555555556
-0.255,-0.2,5908.333333333333
-0.25,-0.195,5911.111111111111
-0.255,-0.2,5913.888888888889
-0.26,-0.22,5916.666666666667
-0.265,-0.225,5919.444444444444
-0.26,-0.24,5922.222222222223
-0.245,-0.24,5925.0
-0.25,-0.24,5927.777777777777
-0.24,-0.23,5930.555555555556
-0.245,-0.225,5933.333333333333
-0.255,-0.215,5936.111111111111
-0.265,-0.21,5938.888888888889
-0.24,-0.22,5941.666666666667
-0.24,-0.24,5944.444444444444
-0.24,-0.245,5947.222222222223
-0.235,-0.25,5950.0
-0.24,-0.26,5952.777777777777
-0.24,-0.245,5955.555555555556
-0.245,-0.235,5958.333333333333
-0.24,-0.24,5961.111111111111
-0.245,-0.235,5963.888888888889
-0.255,-0.245,5966.666666666667
-0.26,-0.25,5969.444444444444
-0.26,-0.225,5972.222222222223
-0.255,-0.22,5975.0
-0.245,-0.2,5977.777777777777
-0.245,-0.195,5980.555555555556
-0.24,-0.2,5983.333333333333
-0.255,-0.2,5986.111111111111
-0.265,-0.18,5988.888888888889
-0.26,-0.16,5991.666666666667
-0.265,-0.145,5994.444444444444
-0.255,-0.15,5997.222222222223
-0.26,-0.15,6000.0
-0.26,-0.16,6002.777777777777
-0.27,-0.185,6005.555555555556
-0.26,-0.19,6008.333333333333
-0.26,-0.19,6011.111111111111
-0.265,-0.19,6013.888888888889
-0.275,-0.195,6016.666666666667
-0.295,-0.195,6019.444444444444
-0.3,-0.195,6022.222222222223
-0.295,-0.185,6025.0
-0.285,-0.18,6027.777777777777
-0.29,-0.185,6030.555555555556
-0.295,-0.2,6033.333333333333
-0.325,-0.2,6036.111111111111
-0.33,-0.18,6038.888888888889
-0.325,-0.17,6041.666666666667
-0.32,-0.16,6044.444444444444
-0.32,-0.155,6047.222222222223
-0.31,-0.165,6050.0
-0.33,-0.18,6052.777777777777
-0.335,-0.17,6055.555555555556
-0.305,-0.16,6058.333333333333
-0.285,-0.17,6061.111111111111
-0.27,-0.175,6063.888888888889
-0.275,-0.195,6066.666666666667
-0.29,-0.21,6069.444444444444
-0.285,-0.185,6072.222222222223
-0.275,-0.185,6075.0
-0.265,-0.175,6077.777777777777
-0.26,-0.19,6080.555555555556
-0.265,-0.2,6083.333333333333
-0.275,-0.215,6086.111111111111
-0.27,-0.2,6088.888888888889
-0.26,-0.19,6091.666666666667
-0.25,-0.19,6094.444444444444
-0.245,-0.21,6097.222222222223
-0.245,-0.21,6100.0
-0.255,-0.23,6102.777777777777
-0.24,-0.22,6105.555555555556
-0.235,-0.21,6108.333333333333
-0.23,-0.205,6111.111111111111
-0.235,-0.21,6113.888888888889
-0.24,-0.205,6116.666666666667
-0.245,-0.21,6119.444444444444
-0.245,-0.205,6122.222222222223
-0.235,-0.195,6125.0
-0.225,-0.185,6127.777777777777
-0.235,-0.19,6130.555555555556
-0.24,-0.185,6133.333333333333
-0.245,-0.2,6136.111111111111
-0.25,-0.18,6138.888888888889
-0.235,-0.17,6141.666666666667
-0.225,-0.18,6144.444444444444
-0.23,-0.195,6147.222222222223
-0.235,-0.215,6150.0
-0.235,-0.21,6152.777777777777
-0.235,-0.195,6155.555555555556
-0.24,-0.17,6158.333333333333
-0.24,-0.155,6161.111111111111
-0.235,-0.16,6163.888888888889
-0.23,-0.15,6166.666666666667
-0.235,-0.15,6169.444444444444
-0.22,-0.15,6172.222222222223
-0.215,-0.15,6175.0
-0.19,-0.185,6177.777777777777
-0.165,-0.29,6180.555555555556
-0.15,-0.41,6183.333333333333
-0.13,-0.515,6186.111111111111
-0.085,-0.6,6188.888888888889
0.02,-0.675,6191.666666666667
0.145,-0.775,6194.444444444444
0.255,-0.88,6197.222222222223
0.365,-0.96,6200.0
0.475,-0.955,6202.777777777777
0.595,-0.88,6205.555555555556
0.705,-0.78,6208.333333333333
0.81,-0.68,6211.111111111111
0.865,-0.57,6213.888888888889
0.86,-0.425,6216.666666666667
0.755,-0.31,6219.444444444444
0.575,-0.215,6222.222222222223
0.36,-0.125,6225.0
0.155,-0.085,6227.777777777777
-0.025,-0.11,6230.555555555556
-0.165,-0.17,6233.333333333333
-0.27,-0.22,6236.111111111111
-0.31,-0.23,6238.888888888889
-0.3,-0.21,6241.666666666667
-0.26,-0.195,6244.444444444444
-0.205,-0.2,6247.222222222223
-0.19,-0.215,6250.0
-0.195,-0.22,6252.777777777777
-0.215,-0.215,6255.555555555556
-0.22,-0.21,6258.333333333333
-0.215,-0.195,6261.111111111111
-0.225,-0.195,6263.888888888889
-0.235,-0.21,6266.666666666667
-0.245,-0.205,6269.444444444444
-0.255,-0.19,6272.222222222223
-0.24,-0.18,6275.0
-0.23,-0.19,6277.777777777777
-0.24,-0.19,6280.555555555556
-0.255,-0.21,6283.333333333333
-0.26,-0.215,6286.111111111111
-0.275,-0.225,6288.888888888889
-0.265,-0.215,6291.666666666667
-0.255,-0.205,6294.444444444444
-0.25,-0.205,6297.222222222223
-0.265,-0.21,6300.0
-0.275,-0.235,6302.777777777777
-0.28,-0.225,6305.555555555556
-0.27,-0.21,6308.333333333333
-0.265,-0.215,6311.111111111111
-0.275,-0.215,6313.888888888889
-0.285,-0.24,6316.666666666667
-0.3,-0.24,6319.444444444444
-0.295,-0.24,6322.222222222223
-0.28,-0.235,6325.0
-0.275,-0.22,6327.777777777777
-0.275,-0.22,6330.555555555556
-0.275,-0.235,6333.333333333333
-0.29,-0.24,6336.111111111111
-0.28,-0.235,6338.888888888889
-0.275,-0.22,6341.666666666667
-0.265,-0.205,6344.444444444444
-0.27,-0.22,6347.222222222223
-0.275,-0.235,6350.0
-0.285,-0.24,6352.777777777777
-0.28,-0.235,6355.555555555556
-0.27,-0.225,6358.333333333333
-0.26,-0.235,6361.111111111111
-0.26,-0.235,6363.888888888889
-0.26,-0.24,6366.666666666667
-0.27,-0.245,6369.444444444444
-0.265,-0.225,6372.222222222223
-0.25,-0.215,6375.0
-0.235,-0.205,6377.777777777777
-0.24,-0.2,6380.555555555556
-0.235,-0.21,6383.333333333333
-0.24,-0.195,6386.111111111111
-0.22,-0.18,6388.888888888889
-0.21,-0.175,6391.666666666667
-0.195,-0.18,6394.444444444444
-0.19,-0.18,6397.222222222223
-0.185,-0.205,6400.0
-0.185,-0.215,6402.777777777777
-0.175,-0.205,6405.555555555556
-0.165,-0.21,6408.333333333333
-0.145,-0.21,6411.111111111111
-0.15,-0.22,6413.888888888889
-0.145,-0.235,6416.666666666667
-0.15,-0.25,6419.444444444444
-0.14,-0.25,6422.222222222223
-0.13,-0.27,6425.0
-0.135,-0.275,6427.777777777777
-0.13,-0.3,6430.555555555556
-0.135,-0.31,6433.333333333333
-0.14,-0.32,6436.111111111111
-0.13,-0.305,6438.888888888889
-0.12,-0.29,6441.666666666667
-0.11,-0.305,6444.444444444444
-0.12,-0.305,6447.222222222223
-0.13,-0.3,6450.0
-0.135,-0.305,6452.777777777777
-0.14,-0.29,6455.555555555556
-0.14,-0.27,6458.333333333333
-0.13,-0.265,6461.111111111111
-0.14,-0.26,6463.888888888889
-0.155,-0.265,6466.666666666667
-0.165,-0.275,6469.444444444444
-0.175,-0.255,6472.222222222223
-0.18,-0.24,6475.0
-0.18,-0.24,6477.777777777777
-0.19,-0.23,6480.555555555556
-0.2,-0.25,6483.333333333333
-0.215,-0.25,6486.111111111111
-0.225,-0.24,6488.888888888889
-0.225,-0.235,6491.666666666667
-0.225,-0.24,6494.444444444444
-0.23,-0.25,6497.222222222223
-0.245,-0.26,6500.0
-0.26,-0.27,6502.777777777777
-0.26,-0.25,6505.555555555556
-0.25,-0.235,6508.333333333333
-0.25,-0.24,6511.111111111111
-0.265,-0.23,6513.888888888889
-0.275,-0.23,6516.666666666667
-0.285,-0.23,6519.444444444444
-0.28,-0.22,6522.222222222223
-0.265,-0.205,6525.0
-0.27,-0.22,6527.777777777777
-0.27,-0.215,6530.555555555556
-0.29,-0.24,6533.333333333333
-0.295,-0.235,6536.111111111111
-0.3,-0.225,6538.888888888889
-0.295,-0.22,6541.666666666667
-0.3,-0.21,6544.444444444444
-0.295,-0.2,6547.222222222223
-0.305,-0.2,6550.0
-0.3,-0.215,6552.777777777777
-0.3,-0.195,6555.555555555556
-0.295,-0.175,6558.333333333333
-0.275,-0.165,6561.111111111111
-0.28,-0.155,6563.888888888889
-0.28,-0.155,6566.666666666667
-0.28,-0.15,6569.444444444444
-0.28,-0.145,6572.222222222223
-0.275,-0.14,6575.0
-0.265,-0.145,6577.777777777777
-0.275,-0.125,6580.555555555556
-0.27,-0.135,6583.333333333333
-0.285,-0.13,6586.111111111111
-0.285,-0.115,6588.888888888889
-0.28,-0.105,6591.666666666667
-0.27,-0.11,6594.444444444444
-0.26,-0.115,6597.222222222223
-0.255,-0.13,6600.0
-0.25,-0.14,6602.777777777777
-0.25,-0.15,6605.555555555556
-0.235,-0.145,6608.333333333333
-0.235,-0.15,6611.111111111111
-0.24,-0.16,6613.888888888889
-0.24,-0.17,6616.666666666667
-0.26,-0.19,6619.444444444444
-0.26,-0.185,6622.222222222223
-0.24,-0.205,6625.0
-0.245,-0.205,6627.777777777777
-0.245,-0.23,6630.555555555556
-0.255,-0.24,6633.333333333333
-0.255,-0.24,6636.111111111111
-0.265,-0.24,6638.888888888889
-0.255,-0.225,6641.666666666667
-0.25,-0.225,6644.444444444444
-0.255,-0.22,6647.222222222223
-0.25,-0.235,6650.0
-0.26,-0.235,6652.777777777777
-0.26,-0.22,6655.555555555556
-0.265,-0.22,6658.333333333333
-0.26,-0.215,6661.111111111111
-0.265,-0.215,6663.888888888889
-0.275,-0.215,6666.666666666667
-0.28,-0.225,6669.444444444444
-0.28,-0.23,6672.222222222223
-0.27,-0.22,6675.0
-0.265,-0.21,6677.777777777777
-0.27,-0.22,6680.555555555556
-0.28,-0.215,6683.333333333333
-0.28,-0.215,6686.111111111111
-0.285,-0.2,6688.888888888889
-0.28,-0.21,6691.666666666667
-0.275,-0.21,6694.444444444444
-0.28,-0.23,6697.222222222223
-0.285,-0.245,6700.0
-0.305,-0.25,6702.777777777777
-0.31,-0.235,6705.555555555556
-0.3,-0.225,6708.333333333333
-0.29,-0.205,6711.111111111111
-0.29,-0.2,6713.888888888889
-0.29,-0.21,6716.666666666667
-0.29,-0.21,6719.444444444444
-0.31,-0.205,6722.222222222223
-0.29,-0.19,6725.0
-0.29,-0.185,6727.777777777777
-0.295,-0.17,6730.555555555556
-0.305,-0.185,6733.333333333333
-0.31,-0.19,6736.111111111111
-0.305,-0.185,6738.888888888889
-0.31,-0.17,6741.666666666667
-0.3,-0.16,6744.444444444444
-0.305,-0.165,6747.222222222223
-0.31,-0.175,6750.0
-0.32,-0.175,6752.777777777777
-0.33,-0.16,6755.555555555556
-0.32,-0.155,6758.333333333333
-0.31,-0.16,6761.111111111111
-0.305,-0.155,6763.888888888889
-0.32,-0.16,6766.666666666667
-0.34,-0.16,6769.444444444444
-0.35,-0.15,6772.222222222223
-0.34,-0.14,6775.0
-0.325,-0.13,6777.777777777777
-0.335,-0.11,6780.555555555556
-0.325,-0.125,6783.333333333333
-0.315,-0.125,6786.111111111111
-0.295,-0.135,6788.888888888889
-0.25,-0.13,6791.666666666667
-0.225,-0.13,6794.444444444444
-0.22,-0.145,6797.222222222223
-0.225,-0.165,6800.0
-0.24,-0.175,6802.777777777777
-0.24,-0.16,6805.555555555556
-0.235,-0.165,6808.333333333333
-0.22,-0.165,6811.111111111111
-0.23,-0.19,6813.888888888889
-0.23,-0.21,6816.666666666667
-0.24,-0.225,6819.444444444444
-0.24,-0.225,6822.222222222223
-0.23,-0.21,6825.0
-0.225,-0.215,6827.777777777777
-0.22,-0.22,6830.555555555556
-0.245,-0.23,6833.333333333333
-0.24,-0.24,6836.111111111111
-0.255,-0.225,6838.888888888889
-0.245,-0.215,6841.666666666667
-0.235,-0.215,6844.444444444444
-0.245,-0.21,6847.222222222223
-0.255,-0.215,6850.0
-0.255,-0.22,6852.777777777777
-0.265,-0.21,6855.555555555556
-0.255,-0.2,6858.333333333333
-0.26,-0.19,6861.111111111111
-0.265,-0.2,6863.888888888889
-0.275,-0.21,6866.666666666667
-0.28,-0.205,6869.444444444444
-0.27,-0.205,6872.222222222223
-0.27,-0.2,6875.0
-0.255,-0.2,6877.777777777777
-0.25,-0.205,6880.555555555556
-0.24,-0.19,6883.333333333333
-0.245,-0.185,6886.111111111111
-0.235,-0.155,6888.888888888889
-0.24,-0.135,6891.666666666667
-0.215,-0.145,6894.444444444444
-0.19,-0.205,6897.222222222223
-0.155,-0.305,6900.0
-0.145,-0.39,6902.777777777777
-0.11,-0.485,6905.555555555556
-0.045,-0.55,6908.333333333333
0.06,-0.635,6911.111111111111
0.165,-0.745,6913.888888888889
0.26,-0.875,6916.666666666667
0.35,-0.975,6919.444444444444
0.47,-0.99,6922.222222222223
0.59,-0.945,6925.0
0.67,-0.875,6927.777777777777
0.725,-0.81,6930.555555555556
0.755,-0.735,6933.333333333333
0.75,-0.59,6936.111111111111
0.68,-0.415,6938.888888888889
0.56,-0.265,6941.666666666667
0.425,-0.19,6944.444444444444
0.235,-0.185,6947.222222222223
0.04,-0.22,6950.0
-0.095,-0.245,6952.777777777777
-0.15,-0.235,6955.555555555556
-0.165,-0.21,6958.333333333333
-0.17,-0.195,6961.111111111111
-0.17,-0.205,6963.888888888889
-0.18,-0.2,6966.666666666667
-0.175,-0.21,6969.444444444444
-0.195,-0.185,6972.222222222223
-0.2,-0.175,6975.0
-0.205,-0.17,6977.777777777777
-0.23,-0.195,6980.555555555556
-0.25,-0.205,6983.333333333333
-0.27,-0.235,6986.111111111111
-0.27,-0.215,6988.888888888889
-0.265,-0.21,6991.666666666667
-0.265,-0.205,6994.444444444444
-0.285,-0.205,6997.222222222223
-0.3,-0.22,7000.0
-0.305,-0.21,7002.777777777777
-0.305,-0.2,7005.555555555556
-0.295,-0.195,7008.333333333333
-0.28,-0.19,7011.111111111111
-0.29,-0.18,7013.888888888889
-0.29,-0.185,7016.666666666667
-0.295,-0.2,7019.444444444444
-0.295,-0.205,7022.222222222223
-0.295,-0.205,7025.0
-0.285,-0.19,7027.777777777777
-0.275,-0.195,7030.555555555556
-0.27,-0.2,7033.333333333333
-0.285,-0.205,7036.111111111111
-0.29,-0.195,7038.888888888889
-0.285,-0.185,7041.666666666667
-0.275,-0.175,7044.444444444444
-0.285,-0.175,7047.222222222223
-0.28,-0.17,7050.0
-0.28,-0.175,7052.777777777777
-0.28,-0.175,7055.555555555556
-0.275,-0.165,7058.333333333333
-0.27,-0.145,7061.111111111111
-0.275,-0.145,7063.888888888889
-0.285,-0.14,7066.666666666667
-0.295,-0.155,7069.444444444444
-0.29,-0.155,7072.222222222223
-0.28,-0.135,7075.0
-0.275,-0.14,7077.777777777777
-0.275,-0.165,7080.555555555556
-0.28,-0.18,7083.333333333333
-0.285,-0.185,7086.111111111111
-0.28,-0.205,7088.888888888889
-0.275,-0.2,7091.666666666667
-0.265,-0.21,7094.444444444444
-0.255,-0.235,7097.222222222223
-0.265,-0.25,7100.0
-0.255,-0.255,7102.777777777777
-0.235,-0.265,7105.555555555556
-0.21,-0.245,7108.333333333333
-0.195,-0.245,7111.111111111111
-0.19,-0.265,7113.888888888889
-0.18,-0.285,7116.666666666667
-0.185,-0.3,7119.444444444444
-0.185,-0.29,7122.222222222223
-0.165,-0.27,7125.0
-0.155,-0.275,7127.777777777777
-0.16,-0.27,7130.555555555556
-0.17,-0.285,7133.333333333333
-0.175,-0.295,7136.111111111111
-0.165,-0.285,7138.888888888889
-0.155,-0.275,7141.666666666667
-0.145,-0.265,7144.444444444444
-0.145,-0.255,7147.222222222223
-0.14,-0.26,7150.0
-0.14,-0.25,7152.777777777777
-0.14,-0.225,7155.555555555556
-0.135,-0.235,7158.333333333333
-0.125,-0.23,7161.111111111111
-0.13,-0.23,7163.888888888889
-0.14,-0.235,7166.666666666667
-0.165,-0.235,7169.444444444444
-0.175,-0.225,7172.222222222223
-0.175,-0.215,7175.0
-0.18,-0.21,7177.777777777777
-0.2,-0.21,7180.555555555556
-0.215,-0.21,7183.333333333333
-0.23,-0.215,7186.111111111111
-0.24,-0.185,7188.888888888889
-0.235,-0.175,7191.666666666667
-0.235,-0.165,7194.444444444444
-0.25,-0.16,7197.222222222223
-0.27,-0.16,7200.0
-0.27,-0.155,7202.777777777777
-0.265,-0.145,7205.555555555556
-0.27,-0.145,7208.333333333333
-0.275,-0.145,7211.111111111111
-0.29,-0.155,7213.888888888889
-0.295,-0.155,7216.666666666667
-0.29,-0.165,7219.444444444444
-0.295,-0.16,7222.222222222223
-0.285,-0.135,7225.0
-0.275,-0.135,7227.777777777777
-0.285,-0.13,7230.555555555556
-0.285,-0.135,7233.333333333333
-0.295,-0.145,7236.111111111111
-0.29,-0.145,7238.888888888889
-0.28,-0.135,7241.666666666667
-0.28,-0.145,7244.444444444444
-0.285,-0.15,7247.222222222223
-0.29,-0.15,7250.0
-0.29,-0.17,7252.777777777777
-0.295,-0.16,7255.555555555556
-0.295,-0.16,7258.333333333333
-0.29,-0.175,7261.111111111111
-0.285,-0.18,7263.888888888889
-0.275,-0.195,7266.666666666667
-0.275,-0.185,7269.444444444444
-0.26,-0.195,7272.222222222223
-0.25,-0.195,7275.0
-0.235,-0.21,7277.777777777777
-0.235,-0.215,7280.555555555556
-0.24,-0.215,7283.333333333333
-0.24,-0.23,7286.111111111111
-0.255,-0.225,7288.888888888889
-0.245,-0.215,7291.666666666667
-0.245,-0.21,7294.444444444444
-0.25,-0.21,7297.222222222223
-0.25,-0.215,7300.0
-0.245,-0.225,7302.777777777777
-0.245,-0.21,7305.555555555556
-0.24,-0.2,7308.333333333333
-0.235,-0.2,7311.111111111111
-0.25,-0.205,7313.888888888889
-0.245,-0.205,7316.666666666667
-0.255,-0.215,7319.444444444444
-0.255,-0.215,7322.222222222223
-0.255,-0.215,7325.0
-0.25,-0.205,7327.777777777777
-0.26,-0.21,7330.555555555556
-0.265,-0.23,7333.333333333333
-0.27,-0.23,7336.111111111111
-0.27,-0.22,7338.888888888889
-0.27,-0.21,7341.666666666667
-0.27,-0.195,7344.444444444444
-0.27,-0.185,7347.222222222223
-0.27,-0.205,7350.0
-0.27,-0.195,7352.777777777777
-0.29,-0.175,7355.555555555556
-0.29,-0.165,7358.333333333333
-0.27,-0.165,7361.111111111111
-0.27,-0.155,7363.888888888889
-0.29,-0.165,7366.666666666667
-0.285,-0.16,7369.444444444444
-0.285,-0.15,7372.222222222223
-0.285,-0.145,7375.0
-0.28,-0.15,7377.777777777777
-0.285,-0.165,7380.555555555556
-0.285,-0.165,7383.333333333333
-0.295,-0.17,7386.111111111111
-0.29,-0.16,7388.888888888889
-0.29,-0.135,7391.666666666667
-0.285,-0.14,7394.444444444444
-0.295,-0.13,7397.222222222223
-0.295,-0.14,7400.0
-0.305,-0.145,7402.777777777777
-0.3,-0.145,7405.555555555556
-0.305,-0.13,7408.333333333333
-0.295,-0.135,7411.111111111111
-0.295,-0.15,7413.888888888889
-0.3,-0.16,7416.666666666667
-0.315,-0.17,7419.444444444444
-0.315,-0.17,7422.222222222223
-0.32,-0.165,7425.0
-0.31,-0.175,7427.777777777777
-0.3,-0.17,7430.555555555556
-0.31,-0.16,7433.333333333333
-0.305,-0.165,7436.111111111111
-0.29,-0.16,7438.888888888889
-0.275,-0.17,7441.666666666667
-0.265,-0.17,7444.444444444444
-0.27,-0.19,7447.222222222223
-0.275,-0.2,7450.0
-0.28,-0.2,7452.777777777777
-0.285,-0.215,7455.555555555556
-0.28,-0.205,7458.333333333333
-0.275,-0.225,7461.111111111111
-0.285,-0.235,7463.888888888889
-0.285,-0.245,7466.666666666667
-0.29,-0.26,7469.444444444444
-0.29,-0.24,7472.222222222223
-0.29,-0.225,7475.0
-0.28,-0.225,7477.777777777777
-0.28,-0.225,7480.555555555556
-0.29,-0.23,7483.333333333333
-0.305,-0.235,7486.111111111111
-0.31,-0.24,7488.888888888889
-0.295,-0.235,7491.666666666667
-0.28,-0.24,7494.444444444444
-0.285,-0.24,7497.222222222223
-0.295,-0.245,7500.0
-0.3,-0.24,7502.777777777777
-0.3,-0.22,7505.555555555556
-0.305,-0.2,7508.333333333333
-0.29,-0.17,7511.111111111111
-0.295,-0.155,7513.888888888889
-0.27,-0.145,7516.666666666667
-0.265,-0.165,7519.444444444444
-0.235,-0.19,7522.222222222223
-0.2,-0.26,7525.0
-0.18,-0.355,7527.777777777777
-0.165,-0.43,7530.555555555556
-0.135,-0.52,7533.333333333333
-0.07,-0.58,7536.111111111111
0.02,-0.665,7538.888888888889
0.13,-0.765,7541.666666666667
0.235,-0.885,7544.444444444444
0.35,-0.98,7547.222222222223
0.485,-0.99,7550.0
0.585,-0.93,7552.777777777777
0.68,-0.83,7555.555555555556
0.76,-0.715,7558.333333333333
0.815,-0.54,7561.111111111111
0.76,-0.365,7563.888888888889
0.605,-0.255,7566.666666666667
0.4,-0.165,7569.444444444444
0.16,-0.12,7572.222222222223
-0.04,-0.13,7575.0
-0.165,-0.175,7577.777777777777
-0.235,-0.185,7580.555555555556
-0.285,-0.195,7583.333333333333
-0.295,-0.19,7586.111111111111
-0.285,-0.18,7588.888888888889
-0.25,-0.16,7591.666666666667
-0.235,-0.16,7594.444444444444
-0.24,-0.15,7597.222222222223
-0.265,-0.17,7600.0
-0.295,-0.18,7602.777777777777
-0.3,-0.17,7605.555555555556
-0.295,-0.175,7608.333333333333
-0.27,-0.18,7611.111111111111
-0.265,-0.19,7613.888888888889
-0.265,-0.205,7616.666666666667
-0.275,-0.22,7619.444444444444
-0.28,-0.205,7622.222222222223
-0.27,-0.205,7625.0
-0.27,-0.215,7627.777777777777
-0.275,-0.225,7630.555555555556
-0.28,-0.235,7633.333333333333
-0.3,-0.245,7636.111111111111
-0.3,-0.245,7638.888888888889
-0.31,-0.245,7641.666666666667
-0.3,-0.25,7644.444444444444
-0.31,-0.26,7647.222222222223
-0.32,-0.275,7650.0
-0.34,-0.28,7652.777777777777
-0.34,-0.275,7655.555555555556
-0.325,-0.255,7658.333333333333
-0.315,-0.255,7661.111111111111
-0.32,-0.265,7663.888888888889
-0.32,-0.275,7666.666666666667
-0.315,-0.275,7669.444444444444
-0.31,-0.275,7672.222222222223
-0.295,-0.255,7675.0
-0.285,-0.245,7677.777777777777
-0.29,-0.255,7680.555555555556
-0.295,-0.265,7683.333333333333
-0.3,-0.255,7686.111111111111
-0.295,-0.26,7688.888888888889
-0.29,-0.24,7691.666666666667
-0.28,-0.24,7694.444444444444
-0.29,-0.245,7697.222222222223
-0.29,-0.25,7700.0
-0.3,-0.265,7702.777777777777
-0.28,-0.255,7705.555555555556
-0.275,-0.24,7708.333333333333
-0.265,-0.24,7711.111111111111
-0.265,-0.24,7713.888888888889
-0.265,-0.255,7716.666666666667
-0.265,-0.265,7719.444444444444
-0.26,-0.245,7722.222222222223
-0.25,-0.24,7725.0
-0.24,-0.225,7727.777777777777
-0.255,-0.245,7730.555555555556
-0.255,-0.25,7733.333333333333
-0.245,-0.265,7736.111111111111
-0.24,-0.265,7738.888888888889
-0.23,-0.245,7741.666666666667
-0.22,-0.26,7744.444444444444
-0.215,-0.255,7747.222222222223
-0.215,-0.255,7750.0
-0.205,-0.26,7752.777777777777
-0.2,-0.245,7755.555555555556
-0.195,-0.245,7758.333333333333
-0.18,-0.25,7761.111111111111
-0.165,-0.25,7763.888888888889
-0.15,-0.245,7766.666666666667
-0.145,-0.265,7769.444444444444
-0.13,-0.27,7772.222222222223
-0.11,-0.25,7775.0
-0.105,-0.25,7777.777777777777
-0.1,-0.26,7780.555555555556
-0.11,-0.28,7783.333333333333
-0.125,-0.28,7786.111111111111
-0.14,-0.27,7788.888888888889
-0.125,-0.26,7791.666666666667
-0.13,-0.265,7794.444444444444
-0.13,-0.265,7797.222222222223
-0.145,-0.26,7800.0
-0.16,-0.265,7802.777777777777
-0.175,-0.25,7805.555555555556
-0.175,-0.245,7808.333333333333
-0.17,-0.245,7811.111111111111
-0.19,-0.245,7813.888888888889
-0.22,-0.25,7816.666666666667
-0.24,-0.25,7819.444444444444
-0.245,-0.245,7822.222222222223
-0.245,-0.235,7825.0
-0.25,-0.23,7827.777777777777
-0.255,-0.225,7830.555555555556
-0.27,-0.23,7833.333333333333
-0.295,-0.255,7836.111111111111
-0.295,-0.245,7838.888888888889
-0.285,-0.235,7841.666666666667
-0.27,-0.22,7844.444444444444
-0.275,-0.22,7847.222222222223
-0.28,-0.225,7850.0
-0.29,-0.235,7852.777777777777
-0.3,-0.23,7855.555555555556
-0.28,-0.21,7858.333333333333
-0.28,-0.205,7861.111111111111
-0.28,-0.21,7863.888888888889
-0.29,-0.21,7866.666666666667
-0.305,-0.22,7869.444444444444
-0.305,-0.22,7872.222222222223
-0.3,-0.19,7875.0
-0.29,-0.195,7877.777777777777
-0.295,-0.195,7880.555555555556
-0.3,-0.21,7883.333333333333
-0.305,-0.225,7886.111111111111
-0.31,-0.2,7888.888888888889
-0.31,-0.195,7891.666666666667
-0.3,-0.19,7894.444444444444
-0.305,-0.195,7897.222222222223
-0.31,-0.2,7900.0
-0.33,-0.205,7902.777777777777
-0.335,-0.195,7905.555555555556
-0.325,-0.19,7908.333333333333
-0.315,-0.195,7911.111111111111
-0.315,-0.2,7913.888888888889
-0.31,-0.225,7916.666666666667
-0.315,-0.24,7919.444444444444
-0.315,-0.24,7922.222222222223
-0.32,-0.225,7925.0
-0.31,-0.22,7927.777777777777
-0.32,-0.22,7930.555555555556
-0.33,-0.23,7933.333333333333
-0.345,-0.23,7936.111111111111
-0.345,-0.2,7938.888888888889
-0.345,-0.175,7941.666666666667
-0.315,-0.16,7944.444444444444
-0.315,-0.165,7947.222222222223
-0.305,-0.16,7950.0
-0.3,-0.19,7952.777777777777
-0.285,-0.17,7955.555555555556
-0.26,-0.18,7958.333333333333
-0.245,-0.175,7961.111111111111
-0.25,-0.18,7963.888888888889
-0.255,-0.195,7966.666666666667
-0.27,-0.2,7969.444444444444
-0.27,-0.21,7972.222222222223
-0.27,-0.205,7975.0
-0.265,-0.195,7977.777777777777
-0.27,-0.195,7980.555555555556
-0.28,-0.205,7983.333333333333
-0.275,-0.21,7986.111111111111
-0.27,-0.195,7988.888888888889
-0.26,-0.185,7991.666666666667
-0.255,-0.18,7994.444444444444
-0.265,-0.17,7997.222222222223
-0.27,-0.19,8000.0
-0.285,-0.205,8002.777777777777
-0.285,-0.205,8005.555555555556
-0.27,-0.195,8008.333333333333
-0.255,-0.2,8011.111111111111
-0.255,-0.2,8013.888888888889
-0.27,-0.2,8016.666666666667
-0.275,-0.215,8019.444444444444
-0.275,-0.21,8022.222222222223
-0.265,-0.19,8025.0
-0.255,-0.2,8027.777777777777
-0.26,-0.205,8030.555555555556
-0.265,-0.23,8033.333333333333
-0.275,-0.235,8036.111111111111
-0.275,-0.22,8038.888888888889
-0.28,-0.205,8041.666666666667
-0.265,-0.2,8044.444444444444
-0.27,-0.21,8047.222222222223
-0.27,-0.22,8050.0
-0.29,-0.225,8052.777777777777
-0.29,-0.21,8055.555555555556
-0.285,-0.2,8058.333333333333
-0.28,-0.21,8061.111111111111
-0.285,-0.23,8063.888888888889
-0.3,-0.22,8066.666666666667
-0.305,-0.235,8069.444444444444
-0.315,-0.23,8072.222222222223
-0.305,-0.22,8075.0
-0.29,-0.215,8077.777777777777
-0.29,-0.21,8080.555555555556
-0.305,-0.215,8083.333333333333
-0.315,-0.22,8086.111111111111
-0.305,-0.21,8088.888888888889
-0.285,-0.19,8091.666666666667
-0.275,-0.185,8094.444444444444
-0.28,-0.185,8097.222222222223
-0.3,-0.21,8100.0
-0.31,-0.215,8102.777777777777
-0.305,-0.21,8105.555555555556
-0.3,-0.195,8108.333333333333
-0.285,-0.195,8111.111111111111
-0.295,-0.195,8113.888888888889
-0.3,-0.21,8116.666666666667
-0.305,-0.215,8119.444444444444
-0.31,-0.225,8122.222222222223
-0.31,-0.225,8125.0
-0.29,-0.21,8127.777777777777
-0.28,-0.22,8130.555555555556
-0.295,-0.225,8133.333333333333
-0.285,-0.225,8136.111111111111
-0.275,-0.215,8138.888888888889
-0.255,-0.215,8141.666666666667
-0.225,-0.21,8144.444444444444
-0.23,-0.22,8147.222222222223
-0.235,-0.24,8150.0
-0.245,-0.25,8152.777777777777
-0.245,-0.23,8155.555555555556
-0.24,-0.21,8158.333333333333
-0.22,-0.18,8161.111111111111
-0.22,-0.16,8163.888888888889
-0.215,-0.175,8166.666666666667
-0.215,-0.18,8169.444444444444
-0.205,-0.22,8172.222222222223
-0.17,-0.3,8175.0
-0.135,-0.395,8177.777777777777
-0.105,-0.49,8180.555555555556
-0.065,-0.58,8183.333333333333
0.03,-0.66,8186.111111111111
0.13,-0.74,8188.888888888889
0.255,-0.825,8191.666666666667
0.385,-0.905,8194.444444444445
0.52,-0.94,8197.222222222223
0.64,-0.925,8200.0
0.74,-0.865,8202.777777777777
0.825,-0.78,8205.555555555555
0.915,-0.7,8208.333333333334
0.99,-0.59,8211.111111111111
0.965,-0.445,8213.888888888889
0.85,-0.34,8216.666666666666
0.655,-0.24,8219.444444444445
0.425,-0.15,8222.222222222223
0.19,-0.115,8225.0
-0.005,-0.12,8227.777777777777
-0.145,-0.17,8230.555555555555
-0.235,-0.23,8233.333333333334
-0.305,-0.255,8236.111111111111
-0.335,-0.24,8238.888888888889
-0.325,-0.22,8241.666666666666
-0.28,-0.21,8244.444444444445
-0.26,-0.2,8247.222222222223
-0.245,-0.205,8250.0
-0.25,-0.215,8252.777777777777
-0.265,-0.225,8255.555555555555
-0.26,-0.205,8258.333333333334
-0.25,-0.215,8261.111111111111
-0.265,-0.21,8263.888888888889
-0.275,-0.205,8266.666666666666
-0.285,-0.21,8269.444444444445
-0.305,-0.2,8272.222222222223
-0.295,-0.185,8275.0
-0.295,-0.185,8277.777777777777
-0.31,-0.195,8280.555555555555
-0.305,-0.195,8283.333333333334
-0.31,-0.195,8286.111111111111
-0.325,-0.19,8288.888888888889
-0.325,-0.175,8291.666666666666
-0.315,-0.175,8294.444444444445
-0.32,-0.165,8297.222222222223
-0.32,-0.17,8300.0
-0.32,-0.17,8302.777777777777
-0.32,-0.155,8305.555555555555
-0.32,-0.155,8308.333333333334
-0.31,-0.16,8311.111111111111
-0.315,-0.16,8313.888888888889
-0.31,-0.18,8316.666666666666
-0.3,-0.195,8319.444444444445
-0.305,-0.2,8322.222222222223
-0.29,-0.195,8325.0
-0.265,-0.215,8327.777777777777
-0.28,-0.215,8330.555555555555
-0.285,-0.235,8333.333333333334
-0.295,-0.25,8336.111111111111
-0.295,-0.25,8338.888888888889
-0.275,-0.255,8341.666666666666
-0.27,-0.265,8344.444444444445
-0.27,-0.28,8347.222222222223
-0.265,-0.28,8350.0
-0.27,-0.285,8352.777777777777
-0.265,-0.28,8355.555555555555
-0.26,-0.26,8358.333333333334
-0.26,-0.275,8361.111111111111
-0.255,-0.28,8363.888888888889
-0.265,-0.3,8366.666666666666
-0.26,-0.32,8369.444444444445
-0.255,-0.31,8372.222222222223
-0.25,-0.29,8375.0
-0.255,-0.3,8377.777777777777
-0.235,-0.305,8380.555555555555
-0.24,-0.315,8383.333333333334
-0.245,-0.32,8386.111111111111
-0.24,-0.325,8388.888888888889
-0.235,-0.32,8391.666666666666
-0.215,-0.325,8394.444444444445
-0.215,-0.33,8397.222222222223
-0.215,-0.335,8400.0
-0.22,-0.335,8402.777777777777
-0.21,-0.33,8405.555555555555
-0.195,-0.33,8408.333333333334
-0.175,-0.325,8411.111111111111
-0.175,-0.32,8413.888888888889
-0.175,-0.32,8416.666666666666
-0.175,-0.315,8419.444444444445
-0.18,-0.325,8422.222222222223
-0.165,-0.31,8425.0
-0.155,-0.3,8427.777777777777
-0.155,-0.3,8430.555555555555
-0.15,-0.315,8433.333333333334
-0.155,-0.315,8436.111111111111
-0.155,-0.31,8438.888888888889
-0.155,-0.29,8441.666666666666
-0.15,-0.3,8444.444444444445
-0.145,-0.3,8447.222222222223
-0.145,-0.295,8450.0
-0.155,-0.3,8452.777777777777
-0.155,-0.29,8455.555555555555
-0.155,-0.27,8458.333333333334
-0.155,-0.27,8461.111111111111
-0.16,-0.28,8463.888888888889
-0.17,-0.28,8466.666666666666
-0.185,-0.28,8469.444444444445
-0.195,-0.25,8472.222222222223
-0.2,-0.23,8475.0
-0.215,-0.225,8477.777777777777
-0.225,-0.225,8480.555555555555
-0.23,-0.215,8483.333333333334
-0.255,-0.205,8486.111111111111
-0.265,-0.19,8488.888888888889
-0.27,-0.18,8491.666666666666
-0.26,-0.165,8494.444444444445
-0.27,-0.155,8497.222222222223
-0.275,-0.16,8500.0
-0.275,-0.175,8502.777777777777
-0.275,-0.16,8505.555555555555
-0.255,-0.17,8508.333333333334
-0.245,-0.175,8511.111111111111
-0.245,-0.18,8513.888888888889
-0.245,-0.195,8516.666666666666
-0.255,-0.21,8519.444444444445
-0.24,-0.21,8522.222222222223
-0.235,-0.2,8525.0
-0.225,-0.215,8527.777777777777
-0.23,-0.23,8530.555555555555
-0.245,-0.24,8533.333333333334
-0.255,-0.255,8536.111111111111
-0.25,-0.25,8538.888888888889
-0.25,-0.26,8541.666666666666
-0.245,-0.265,8544.444444444445
-0.25,-0.27,8547.222222222223
-0.25,-0.27,8550.0
-0.255,-0.27,8552.777777777777
-0.255,-0.24,8555.555555555555
-0.255,-0.25,8558.333333333334
-0.24,-0.24,8561.111111111111
-0.225,-0.245,8563.888888888889
-0.235,-0.24,8566.666666666666
-0.24,-0.24,8569.444444444445
-0.235,-0.235,8572.222222222223
-0.22,-0.22,8575.0
-0.22,-0.225,8577.777777777777
-0.23,-0.22,8580.555555555555
-0.24,-0.23,8583.333333333334
-0.25,-0.23,8586.111111111111
-0.24,-0.225,8588.888888888889
-0.23,-0.215,8591.666666666666
-0.225,-0.225,8594.444444444445
-0.225,-0.22,8597.222222222223
-0.24,-0.23,8600.0
-0.245,-0.225,8602.777777777777
-0.255,-0.22,8605.555555555555
-0.24,-0.21,8608.333333333334
-0.245,-0.205,8611.111111111111
-0.24,-0.2,8613.888888888889
-0.25,-0.21,8616.666666666666
-0.255,-0.215,8619.444444444445
-0.255,-0.205,8622.222222222223
-0.24,-0.21,8625.0
-0.23,-0.205,8627.777777777777
-0.235,-0.2,8630.555555555555
-0.245,-0.205,8633.333333333334
-0.26,-0.215,8636.111111111111
-0.26,-0.215,8638.888888888889
-0.25,-0.19,8641.666666666666
-0.245,-0.19,8644.444444444445
-0.25,-0.205,8647.222222222223
-0.265,-0.21,8650.0
-0.27,-0.22,8652.777777777777
-0.275,-0.205,8655.555555555555
-0.275,-0.22,8658.333333333334
-0.29,-0.21,8661.111111111111
-0.275,-0.21,8663.888888888889
-0.3,-0.225,8666.666666666666
-0.32,-0.235,8669.444444444445
-0.325,-0.225,8672.222222222223
-0.32,-0.215,8675.0
-0.305,-0.21,8677.777777777777
-0.315,-0.2,8680.555555555555
-0.335,-0.215,8683.333333333334
-0.345,-0.205,8686.111111111111
-0.345,-0.19,8688.888888888889
-0.32,-0.19,8691.666666666666
-0.29,-0.19,8694.444444444445
-0.285,-0.19,8697.222222222223
-0.285,-0.21,8700.0
-0.275,-0.215,8702.777777777777
-0.27,-0.23,8705.555555555555
-0.25,-0.22,8708.333333333334
-0.24,-0.23,8711.111111111111
-0.21,-0.245,8713.888888888889
-0.2,-0.245,8716.666666666666
-0.205,-0.235,8719.444444444445
-0.2,-0.225,8722.222222222223
-0.19,-0.205,8725.0
-0.18,-0.2,8727.777777777777
-0.195,-0.22,8730.555555555555
-0.21,-0.22,8733.333333333334
-0.21,-0.23,8736.111111111111
-0.22,-0.22,8738.888888888889
-0.22,-0.22,8741.666666666666
-0.2,-0.215,8744.444444444445
-0.205,-0.225,8747.222222222223
-0.23,-0.23,8750.0
-0.25,-0.245,8752.777777777777
-0.25,-0.22,8755.555555555555
-0.24,-0.21,8758.333333333334
-0.235,-0.21,8761.111111111111
-0.235,-0.205,8763.888888888889
-0.245,-0.215,8766.666666666666
-0.27,-0.24,8769.444444444445
-0.275,-0.23,8772.222222222223
-0.27,-0.22,8775.0
-0.265,-0.215,8777.777777777777
-0.26,-0.23,8780.555555555555
-0.27,-0.235,8783.333333333334
-0.275,-0.235,8786.111111111111
-0.275,-0.22,8788.888888888889
-0.265,-0.225,8791.666666666666
-0.245,-0.23,8794.444444444445
-0.255,-0.215,8797.222222222223
-0.265,-0.23,8800.0
-0.28,-0.245,8802.777777777777
-0.275,-0.23,8805.555555555555
-0.27,-0.23,8808.333333333334
-0.26,-0.22,8811.111111111111
-0.26,-0.235,8813.888888888889
-0.265,-0.235,8816.666666666666
-0.285,-0.25,8819.444444444445
-0.285,-0.245,8822.222222222223
-0.275,-0.235,8825.0
-0.26,-0.23,8827.777777777777
-0.26,-0.215,8830.555555555555
-0.265,-0.22,8833.333333333334
-0.27,-0.205,8836.111111111111
-0.26,-0.21,8838.888888888889
-0.23,-0.24,8841.666666666666
-0.195,-0.325,8844.444444444445
-0.175,-0.41,8847.222222222223
-0.155,-0.485,8850.0
-0.12,-0.545,8852.777777777777
-0.04,-0.62,8855.555555555555
0.065,-0.675,8858.333333333334
0.16,-0.785,8861.111111111111
0.255,-0.915,8863.888888888889
0.345,-1.025,8866.666666666666
0.45,-1.07,8869.444444444445
0.545,-1.05,8872.222222222223
0.61,-1.005,8875.0
0.675,-0.93,8877.777777777777
0.73,-0.83,8880.555555555555
0.745,-0.71,8883.333333333334
0.68,-0.555,8886.111111111111
0.585,-0.405,8888.888888888889
0.46,-0.305,8891.666666666666
0.32,-0.25,8894.444444444445
0.155,-0.23,8897.222222222223
0.015,-0.255,8900.0
-0.055,-0.285,8902.777777777777
-0.105,-0.275,8905.555555555555
-0.135,-0.265,8908.333333333334
-0.13,-0.255,8911.111111111111
-0.135,-0.235,8913.888888888889
-0.14,-0.245,8916.666666666666
-0.155,-0.245,8919.444444444445
-0.175,-0.235,8922.222222222223
-0.185,-0.23,8925.0
-0.185,-0.225,8927.777777777777
-0.2,-0.235,8930.555555555555
-0.215,-0.26,8933.333333333334
-0.235,-0.255,8936.111111111111
-0.245,-0.24,8938.888888888889
-0.245,-0.235,8941.666666666666
-0.24,-0.23,8944.444444444445
-0.25,-0.23,8947.222222222223
-0.25,-0.245,8950.0
-0.28,-0.245,8952.777777777777
-0.285,-0.25,8955.555555555555
-0.275,-0.24,8958.333333333334
-0.275,-0.23,8961.111111111111
-0.275,-0.23,8963.888888888889
-0.275,-0.24,8966.666666666666
-0.285,-0.245,8969.444444444445
-0.29,-0.24,8972.222222222223
-0.28,-0.235,8975.0
-0.275,-0.235,8977.777777777777
-0.285,-0.26,8980.555555555555
-0.285,-0.265,8983.333333333334
-0.295,-0.275,8986.111111111111
-0.29,-0.27,8988.888888888889
-0.28,-0.255,8991.666666666666
-0.285,-0.25,8994.444444444445
-0.29,-0.26,8997.222222222223
-0.295,-0.265,9000.0
-0.295,-0.27,9002.777777777777
-0.31,-0.26,9005.555555555555
-0.3,-0.255,9008.333333333334
-0.28,-0.245,9011.111111111111
-0.285,-0.245,9013.888888888889
-0.285,-0.255,9016.666666666666
-0.29,-0.255,9019.444444444445
-0.29,-0.26,9022.222222222223
-0.29,-0.25,9025.0
-0.275,-0.265,9027.777777777777
-0.285,-0.26,9030.555555555555
-0.265,-0.27,9033.333333333334
-0.275,-0.265,9036.111111111111
-0.27,-0.26,9038.888888888889
-0.255,-0.245,9041.666666666666
-0.24,-0.255,9044.444444444445
-0.245,-0.25,9047.222222222223
-0.23,-0.245,9050.0
-0.235,-0.23,9052.777777777777
-0.235,-0.235,9055.555555555555
-0.215,-0.225,9058.333333333334
-0.205,-0.22,9061.111111111111
-0.205,-0.225,9063.888888888889
-0.22,-0.235,9066.666666666666
-0.245,-0.245,9069.444444444445
-0.23,-0.23,9072.222222222223
-0.21,-0.215,9075.0
-0.205,-0.225,9077.777777777777
-0.205,-0.23,9080.555555555555
-0.215,-0.24,9083.333333333334
-0.21,-0.25,9086.111111111111
-0.195,-0.24,9088.888888888889
-0.18,-0.245,9091.666666666666
-0.165,-0.27,9094.444444444445
-0.155,-0.275,9097.222222222223
-0.155,-0.305,9100.0
-0.14,-0.3,9102.777777777777
-0.125,-0.295,9105.555555555555
-0.105,-0.285,9108.333333333334
-0.105,-0.29,9111.111111111111
-0.1,-0.295,9113.888888888889
-0.115,-0.315,9116.666666666666
-0.135,-0.305,9119.444444444445
-0.125,-0.29,9122.222222222223
-0.11,-0.29,9125.0
-0.1,-0.285,9127.777777777777
-0.11,-0.275,9130.555555555555
-0.115,-0.295,9133.333333333334
-0.125,-0.285,9136.111111111111
-0.13,-0.275,9138.888888888889
-0.125,-0.265,9141.666666666666
-0.115,-0.27,9144.444444444445
-0.13,-0.265,9147.222222222223
-0.145,-0.29,9150.0
-0.16,-0.285,9152.777777777777
-0.165,-0.275,9155.555555555555
-0.17,-0.265,9158.333333333334
-0.165,-0.25,9161.111111111111
-0.17,-0.255,9163.888888888889
-0.195,-0.26,9166.666666666666
-0.215,-0.265,9169.444444444445
-0.215,-0.25,9172.222222222223
-0.215,-0.235,9175.0
-0.22,-0.24,9177.777777777777
-0.215,-0.235,9180.555555555555
-0.23,-0.25,9183.333333333334
-0.24,-0.255,9186.111111111111
-0.255,-0.245,9188.888888888889
-0.245,-0.23,9191.666666666666
-0.245,-0.225,9194.444444444445
-0.24,-0.225,9197.222222222223
-0.25,-0.24,9200.0
-0.265,-0.24,9202.777777777777
-0.26,-0.23,9205.555555555555
-0.235,-0.21,9208.333333333334
-0.225,-0.21,9211.111111111111
-0.225,-0.2,9213.888888888889
-0.235,-0.23,9216.666666666666
-0.26,-0.245,9219.444444444445
-0.265,-0.23,9222.222222222223
-0.25,-0.21,9225.0
-0.24,-0.21,9227.777777777777
-0.26,-0.21,9230.555555555555
-0.26,-0.23,9233.333333333334
-0.27,-0.215,9236.111111111111
-0.27,-0.23,9238.888888888889
-0.265,-0.205,9241.666666666666
-0.25,-0.215,9244.444444444445
-0.25,-0.23,9247.222222222223
-0.255,-0.25,9250.0
-0.27,-0.255,9252.777777777777
-0.285,-0.26,9255.555555555555
-0.275,-0.24,9258.333333333334
-0.265,-0.24,9261.111111111111
-0.28,-0.24,9263.888888888889
-0.28,-0.255,9266.666666666666
-0.285,-0.255,9269.444444444445
-0.285,-0.25,9272.222222222223
-0.28,-0.235,9275.0
-0.27,-0.235,9277.777777777777
-0.27,-0.24,9280.555555555555
-0.26,-0.245,9283.333333333334
-0.255,-0.24,9286.111111111111
-0.25,-0.23,9288.888888888889
-0.235,-0.22,9291.666666666666
-0.22,-0.215,9294.444444444445
-0.215,-0.215,9297.222222222223
-0.225,-0.22,9300.0
-0.24,-0.215,9302.777777777777
-0.235,-0.21,9305.555555555555
-0.23,-0.215,9308.333333333334
-0.22,-0.21,9311.111111111111
-0.22,-0.215,9313.888888888889
-0.225,-0.23,9316.666666666666
-0.24,-0.23,9319.444444444445
-0.235,-0.235,9322.222222222223
-0.235,-0.235,9325.0
-0.22,-0.235,9327.777777777777
-0.235,-0.245,9330.555555555555
-0.245,-0.25,9333.333333333334
-0.245,-0.25,9336.111111111111
-0.255,-0.22,9338.888888888889
-0.245,-0.215,9341.666666666666
-0.23,-0.2,9344.444444444445
-0.245,-0.205,9347.222222222223
-0.245,-0.21,9350.0
-0.255,-0.22,9352.777777777777
-0.24,-0.205,9355.555555555555
-0.235,-0.2,9358.333333333334
-0.23,-0.205,9361.111111111111
-0.235,-0.205,9363.888888888889
-0.25,-0.21,9366.666666666666
-0.255,-0.215,9369.444444444445
-0.255,-0.215,9372.222222222223
-0.25,-0.21,9375.0
-0.245,-0.215,9377.777777777777
-0.24,-0.225,9380.555555555555
-0.26,-0.245,9383.333333333334
-0.265,-0.25,9386.111111111111
-0.28,-0.25,9388.888888888889
-0.27,-0.24,9391.666666666666
-0.27,-0.235,9394.444444444445
-0.275,-0.245,9397.222222222223
-0.28,-0.255,9400.0
-0.28,-0.255,9402.777777777777
-0.28,-0.255,9405.555555555555
-0.28,-0.245,9408.333333333334
-0.27,-0.24,9411.111111111111
-0.28,-0.25,9413.888888888889
-0.285,-0.275,9416.666666666666
-0.29,-0.275,9419.444444444445
-0.285,-0.27,9422.222222222223
-0.285,-0.265,9425.0
-0.28,-0.25,9427.777777777777
-0.28,-0.275,9430.555555555555
-0.285,-0.28,9433.333333333334
-0.295,-0.29,9436.111111111111
-0.295,-0.295,9438.888888888889
-0.28,-0.275,9441.666666666666
-0.27,-0.29,9444.444444444445
-0.27,-0.285,9447.222222222223
-0.28,-0.29,9450.0
-0.285,-0.3,9452.777777777777
-0.27,-0.28,9455.555555555555
-0.27,-0.26,9458.333333333334
-0.26,-0.25,9461.111111111111
-0.265,-0.24,9463.888888888889
-0.265,-0.25,9466.666666666666
-0.265,-0.245,9469.444444444445
-0.27,-0.24,9472.222222222223
-0.265,-0.24,9475.0
-0.255,-0.24,9477.777777777777
-0.255,-0.24,9480.555555555555
-0.265,-0.25,9483.333333333334
-0.275,-0.25,9486.111111111111
-0.265,-0.245,9488.888888888889
-0.27,-0.23,9491.666666666666
-0.26,-0.225,9494.444444444445
-0.26,-0.225,9497.222222222223
-0.27,-0.23,9500.0
-0.275,-0.23,9502.777777777777
-0.265,-0.22,9505.555555555555
-0.25,-0.205,9508.333333333334
-0.225,-0.2,9511.111111111111
-0.235,-0.195,9513.888888888889
-0.245,-0.205,9516.666666666666
-0.27,-0.21,9519.444444444445
-0.26,-0.2,9522.222222222223
-0.26,-0.205,9525.0
-0.245,-0.2,9527.777777777777
-0.25,-0.205,9530.555555555555
-0.255,-0.215,9533.333333333334
-0.28,-0.225,9536.111111111111
-0.275,-0.215,9538.888888888889
-0.275,-0.21,9541.666666666666
-0.265,-0.21,9544.444444444445
-0.28,-0.21,9547.222222222223
-0.285,-0.225,9550.0
-0.29,-0.215,9552.777777777777
-0.285,-0.215,9555.555555555555
-0.275,-0.195,9558.333333333334
-0.27,-0.2,9561.111111111111
-0.265,-0.22,9563.888888888889
-0.29,-0.23,9566.666666666666
-0.295,-0.245,9569.444444444445
-0.3,-0.24,9572.222222222223
-0.29,-0.225,9575.0
-0.27,-0.23,9577.777777777777
-0.275,-0.23,9580.555555555555
-0.29,-0.235,9583.333333333334
-0.295,-0.25,9586.111111111111
-0.29,-0.235,9588.888888888889
-0.27,-0.195,9591.666666666666
-0.255,-0.195,9594.444444444445
-0.25,-0.22,9597.222222222223
-0.23,-0.295,9600.0
-0.22,-0.375,9602.777777777777
-0.2,-0.465,9605.555555555555
-0.16,-0.52,9608.333333333334
-0.13,-0.59,9611.111111111111
-0.06,-0.67,9613.888888888889
0.025,-0.75,9616.666666666666
0.105,-0.85,9619.444444444445
0.195,-0.95,9622.222222222223
0.295,-1.035,9625.0
0.42,-1.09,9627.777777777777
0.55,-1.095,9630.555555555555
0.635,-1.065,9633.333333333334
0.675,-1.02,9636.111111111111
0.745,-0.935,9638.888888888889
0.795,-0.81,9641.666666666666
0.785,-0.64,9644.444444444445
0.695,-0.49,9647.222222222223
0.56,-0.38,9650.0
0.39,-0.33,9652.777777777777
0.19,-0.3,9655.555555555555
0.04,-0.3,9658.333333333334
-0.055,-0.305,9661.111111111111
-0.1,-0.305,9663.888888888889
-0.135,-0.31,9666.666666666666
-0.18,-0.3,9669.444444444445
-0.195,-0.27,9672.222222222223
-0.185,-0.25,9675.0
-0.165,-0.25,9677.777777777777
-0.165,-0.245,9680.555555555555
-0.185,-0.265,9683.333333333334
-0.21,-0.255,9686.111111111111
-0.22,-0.24,9688.888888888889
-0.22,-0.215,9691.666666666666
-0.225,-0.22,9694.444444444445
-0.235,-0.225,9697.222222222223
-0.235,-0.225,9700.0
-0.255,-0.245,9702.777777777777
-0.265,-0.225,9705.555555555555
-0.26,-0.22,9708.333333333334
-0.26,-0.21,9711.111111111111
-0.26,-0.21,9713.888888888889
-0.27,-0.22,9716.666666666666
-0.29,-0.215,9719.444444444445
-0.285,-0.22,9722.222222222223
-0.285,-0.21,9725.0
-0.28,-0.215,9727.777777777777
-0.295,-0.215,9730.555555555555
-0.295,-0.22,9733.333333333334
-0.315,-0.235,9736.111111111111
-0.31,-0.21,9738.888888888889
-0.305,-0.22,9741.666666666666
-0.3,-0.23,9744.444444444445
-0.295,-0.23,9747.222222222223
-0.305,-0.24,9750.0
-0.315,-0.245,9752.777777777777
-0.31,-0.23,9755.555555555555
-0.31,-0.24,9758.333333333334
-0.3,-0.23,9761.111111111111
-0.3,-0.245,9763.888888888889
-0.29,-0.25,9766.666666666666
-0.31,-0.27,9769.444444444445
-0.31,-0.27,9772.222222222223
-0.3,-0.27,9775.0
-0.29,-0.28,9777.777777777777
-0.28,-0.285,9780.555555555555
-0.285,-0.285,9783.333333333334
-0.295,-0.295,9786.111111111111
-0.275,-0.29,9788.888888888889
-0.265,-0.29,9791.666666666666
-0.25,-0.295,9794.444444444445
-0.245,-0.305,9797.222222222223
-0.25,-0.32,9800.0
-0.245,-0.33,9802.777777777777
-0.245,-0.315,9805.555555555555
-0.24,-0.315,9808.333333333334
-0.225,-0.315,9811.111111111111
-0.215,-0.31,9813.888888888889
-0.2,-0.31,9816.666666666666
-0.2,-0.3,9819.444444444445
-0.17,-0.285,9822.222222222223
-0.17,-0.27,9825.0
-0.16,-0.27,9827.777777777777
-0.16,-0.27,9830.555555555555
-0.155,-0.275,9833.333333333334
-0.16,-0.29,9836.111111111111
-0.15,-0.29,9838.888888888889
-0.14,-0.285,9841.666666666666
-0.135,-0.295,9844.444444444445
-0.13,-0.29,9847.222222222223
-0.145,-0.3,9850.0
-0.14,-0.295,9852.777777777777
-0.135,-0.285,9855.555555555555
-0.125,-0.27,9858.333333333334
-0.12,-0.28,9861.111111111111
-0.125,-0.285,9863.888888888889
-0.13,-0.285,9866.666666666666
-0.14,-0.285,9869.444444444445
-0.12,-0.27,9872.222222222223
-0.12,-0.26,9875.0
-0.115,-0.265,9877.777777777777
-0.11,-0.275,9880.555555555555
-0.125,-0.285,9883.333333333334
-0.13,-0.285,9886.111111111111
-0.125,-0.27,9888.888888888889
-0.12,-0.26,9891.666666666666
-0.115,-0.26,9894.444444444445
-0.11,-0.265,9897.222222222223
-0.13,-0.265,9900.0
-0.15,-0.27,9902.777777777777
-0.145,-0.265,9905.555555555555
-0.145,-0.25,9908.333333333334
-0.14,-0.24,9911.111111111111
-0.15,-0.245,9913.888888888889
-0.165,-0.26,9916.666666666666
-0.19,-0.255,9919.444444444445
-0.195,-0.25,9922.222222222223
-0.2,-0.25,9925.0
-0.195,-0.24,9927.777777777777
-0.2,-0.235,9930.555555555555
-0.215,-0.24,9933.333333333334
-0.22,-0.245,9936.111111111111
-0.225,-0.235,9938.888888888889
-0.215,-0.235,9941.666666666666
-0.22,-0.23,9944.444444444445
-0.22,-0.245,9947.222222222223
-0.225,-0.265,9950.0
-0.23,-0.27,9952.777777777777
-0.235,-0.27,9955.555555555555
-0.23,-0.255,9958.333333333334
-0.225,-0.25,9961.111111111111
-0.22,-0.26,9963.888888888889
-0.23,-0.255,9966.666666666666
-0.245,-0.27,9969.444444444445
-0.24,-0.265,9972.222222222223
-0.23,-0.265,9975.0
-0.225,-0.265,9977.777777777777
-0.225,-0.275,9980.555555555555
-0.24,-0.285,9983.333333333334
-0.25,-0.27,9986.111111111111
-0.25,-0.27,9988.888888888889
-0.25,-0.26,9991.666666666666
-0.245,-0.265,9994.444444444445
-0.245,-0.26,9997.222222222223
-0.26,-0.265,10000.0
-0.27,-0.26,10002.777777777777
-0.26,-0.245,10005.555555555555
-0.255,-0.23,10008.333333333334
-0.245,-0.24,10011.111111111111
-0.25,-0.235,10013.888888888889
-0.255,-0.235,10016.666666666666
-0.27,-0.23,10019.444444444445
-0.26,-0.22,10022.222222222223
-0.25,-0.205,10025.0
-0.245,-0.22,10027.777777777777
-0.245,-0.22,10030.555555555555
-0.255,-0.22,10033.333333333334
-0.265,-0.22,10036.111111111111
-0.255,-0.205,10038.888888888889
-0.26,-0.19,10041.666666666666
-0.25,-0.19,10044.444444444445
-0.26,-0.19,10047.222222222223
-0.25,-0.19,10050.0
-0.265,-0.18,10052.777777777777
-0.26,-0.18,10055.555555555555
-0.265,-0.19,10058.333333333334
-0.26,-0.2,10061.111111111111
-0.26,-0.2,10063.888888888889
-0.265,-0.215,10066.666666666666
-0.285,-0.225,10069.444444444445
-0.275,-0.21,10072.222222222223
-0.265,-0.21,10075.0
-0.26,-0.215,10077.777777777777
-0.255,-0.215,10080.555555555555
-0.255,-0.23,10083.333333333334
-0.255,-0.235,10086.111111111111
-0.255,-0.215,10088.888888888889
-0.235,-0.205,10091.666666666666
-0.22,-0.2,10094.444444444445
-0.225,-0.215,10097.222222222223
-0.23,-0.225,10100.0
-0.245,-0.22,10102.777777777777
-0.23,-0.22,10105.555555555555
-0.225,-0.21,10108.333333333334
-0.22,-0.215,10111.111111111111
-0.22,-0.225,10113.888888888889
-0.23,-0.245,10116.666666666666
-0.245,-0.25,10119.444444444445
-0.24,-0.25,10122.222222222223
-0.23,-0.24,10125.0
-0.23,-0.245,10127.777777777777
-0.23,-0.255,10130.555555555555
-0.23,-0.265,10133.333333333334
-0.245,-0.27,10136.111111111111
-0.245,-0.255,10138.888888888889
-0.24,-0.245,10141.666666666666
-0.235,-0.25,10144.444444444445
-0.235,-0.26,10147.222222222223
-0.245,-0.265,10150.0
-0.26,-0.26,10152.777777777777
-0.275,-0.265,10155.555555555555
-0.27,-0.255,10158.333333333334
-0.25,-0.25,10161.111111111111
-0.25,-0.25,10163.888888888889
-0.26,-0.265,10166.666666666666
-0.27,-0.245,10169.444444444445
-0.275,-0.24,10172.222222222223
-0.265,-0.235,10175.0
-0.265,-0.225,10177.777777777777
-0.26,-0.225,10180.555555555555
-0.28,-0.24,10183.333333333334
-0.3,-0.235,10186.111111111111
-0.29,-0.23,10188.888888888889
-0.27,-0.21,10191.666666666666
-0.26,-0.21,10194.444444444445
-0.265,-0.205,10197.222222222223
-0.28,-0.22,10200.0
-0.3,-0.235,10202.777777777777
-0.285,-0.22,10205.555555555555
-0.285,-0.22,10208.333333333334
-0.265,-0.215,10211.111111111111
-0.27,-0.21,10213.888888888889
-0.27,-0.215,10216.666666666666
-0.28,-0.215,10219.444444444445
-0.28,-0.215,10222.222222222223
-0.28,-0.205,10225.0
-0.275,-0.205,10227.777777777777
-0.275,-0.215,10230.555555555555
-0.28,-0.23,10233.333333333334
-0.295,-0.22,10236.111111111111
-0.29,-0.205,10238.888888888889
-0.275,-0.195,10241.666666666666
-0.26,-0.185,10244.444444444445
-0.265,-0.175,10247.222222222223
-0.265,-0.18,10250.0
-0.265,-0.185,10252.777777777777
-0.26,-0.18,10255.555555555555
-0.25,-0.18,10258.333333333334
-0.24,-0.185,10261.111111111111
-0.25,-0.19,10263.888888888889
-0.255,-0.22,10266.666666666666
-0.255,-0.22,10269.444444444445
-0.25,-0.21,10272.222222222223
-0.24,-0.21,10275.0
-0.235,-0.205,10277.777777777777
-0.23,-0.205,10280.555555555555
-0.235,-0.225,10283.333333333334
-0.245,-0.23,10286.111111111111
-0.245,-0.235,10288.888888888889
-0.24,-0.22,10291.666666666666
-0.235,-0.225,10294.444444444445
-0.245,-0.23,10297.222222222223
-0.255,-0.25,10300.0
-0.27,-0.255,10302.777777777777
-0.27,-0.26,10305.555555555555
-0.275,-0.245,10308.333333333334
-0.265,-0.25,10311.111111111111
-0.27,-0.255,10313.888888888889
-0.285,-0.27,10316.666666666666
-0.29,-0.27,10319.444444444445
-0.28,-0.26,10322.222222222223
-0.27,-0.235,10325.0
-0.265,-0.235,10327.777777777777
-0.27,-0.235,10330.555555555555
-0.27,-0.245,10333.333333333334
-0.275,-0.25,10336.111111111111
-0.265,-0.23,10338.888888888889
-0.24,-0.23,10341.666666666666
-0.24,-0.235,10344.444444444445
-0.255,-0.23,10347.222222222223
-0.26,-0.25,10350.0
-0.27,-0.245,10352.777777777777
-0.265,-0.245,10355.555555555555
-0.255,-0.235,10358.333333333334
-0.255,-0.235,10361.111111111111
-0.255,-0.245,10363.888888888889
-0.265,-0.25,10366.666666666666
-0.275,-0.26,10369.444444444445
-0.28,-0.255,10372.222222222223
-0.28,-0.25,10375.0
-0.275,-0.245,10377.777777777777
-0.275,-0.245,10380.555555555555
-0.28,-0.265,10383.333333333334
-0.295,-0.25,10386.111111111111
-0.295,-0.245,10388.888888888889
-0.285,-0.24,10391.666666666666
-0.28,-0.24,10394.444444444445
-0.28,-0.23,10397.222222222223
-0.285,-0.23,10400.0
-0.3,-0.22,10402.777777777777
-0.285,-0.21,10405.555555555555
-0.28,-0.195,10408.333333333334
-0.26,-0.2,10411.111111111111
-0.26,-0.19,10413.888888888889
-0.265,-0.2,10416.666666666666
-0.28,-0.185,10419.444444444445
-0.26,-0.18,10422.222222222223
-0.25,-0.17,10425.0
-0.24,-0.185,10427.777777777777
-0.245,-0.21,10430.555555555555
-0.24,-0.225,10433.333333333334
-0.26,-0.235,10436.111111111111
-0.255,-0.22,10438.888888888889
-0.245,-0.21,10441.666666666666
-0.235,-0.205,10444.444444444445
-0.24,-0.225,10447.222222222223
-0.245,-0.23,10450.0
-0.24,-0.245,10452.777777777777
-0.235,-0.23,10455.555555555555
-0.225,-0.245,10458.333333333334
-0.23,-0.24,10461.111111111111
-0.235,-0.245,10463.888888888889
-0.255,-0.265,10466.666666666666
-0.255,-0.265,10469.444444444445
-0.245,-0.275,10472.222222222223
-0.23,-0.27,10475.0
-0.225,-0.275,10477.777777777777
-0.235,-0.29,10480.555555555555
-0.235,-0.3,10483.333333333334
-0.26,-0.3,10486.111111111111
-0.245,-0.28,10488.888888888889
-0.235,-0.265,10491.666666666666
-0.22,-0.27,10494.444444444445
-0.225,-0.27,10497.222222222223
-0.23,-0.265,10500.0
-0.24,-0.24,10502.777777777777
-0.245,-0.215,10505.555555555555
-0.225,-0.215,10508.333333333334
-0.19,-0.195,10511.111111111111
-0.175,-0.26,10513.888888888889
-0.14,-0.345,10516.666666666666
-0.14,-0.45,10519.444444444445
-0.11,-0.535,10522.222222222223
-0.065,-0.6,10525.0
0.025,-0.67,10527.777777777777
0.135,-0.75,10530.555555555555
0.235,-0.85,10533.333333333334
0.325,-0.94,10536.111111111111
0.445,-0.995,10538.888888888889
0.58,-0.98,10541.666666666666
0.685,-0.94,10544.444444444445
0.78,-0.855,10547.222222222223
0.855,-0.795,10550.0
0.925,-0.695,10552.777777777777
0.925,-0.54,10555.555555555555
0.845,-0.395,10558.333333333334
0.69,-0.285,10561.111111111111
0.47,-0.195,10563.888888888889
0.245,-0.16,10566.666666666666
0.04,-0.15,10569.444444444445
-0.105,-0.18,10572.222222222223
-0.2,-0.225,10575.0
-0.245,-0.26,10577.777777777777
-0.295,-0.275,10580.555555555555
-0.315,-0.27,10583.333333333334
-0.29,-0.27,10586.111111111111
-0.255,-0.25,10588.888888888889
-0.23,-0.23,10591.666666666666
-0.235,-0.22,10594.444444444445
-0.23,-0.225,10597.222222222223
-0.255,-0.235,10600.0
-0.275,-0.23,10602.777777777777
-0.27,-0.22,10605.555555555555
-0.27,-0.21,10608.333333333334
-0.28,-0.2,10611.111111111111
-0.28,-0.195,10613.888888888889
-0.27,-0.21,10616.666666666666
-0.28,-0.195,10619.444444444445
-0.28,-0.175,10622.222222222223
-0.265,-0.17,10625.0
-0.25,-0.165,10627.777777777777
-0.25,-0.165,10630.555555555555
-0.245,-0.2,10633.333333333334
-0.26,-0.22,10636.111111111111
-0.255,-0.23,10638.888888888889
-0.245,-0.22,10641.666666666666
-0.24,-0.225,10644.444444444445
-0.24,-0.24,10647.222222222223
-0.245,-0.265,10650.0
-0.26,-0.265,10652.777777777777
-0.255,-0.265,10655.555555555555
-0.25,-0.25,10658.333333333334
-0.24,-0.26,10661.111111111111
-0.25,-0.275,10663.888888888889
-0.26,-0.305,10666.666666666666
-0.265,-0.31,10669.444444444445
-0.26,-0.315,10672.222222222223
-0.26,-0.31,10675.0
-0.245,-0.305,10677.777777777777
-0.25,-0.305,10680.555555555555
-0.255,-0.32,10683.333333333334
-0.27,-0.31,10686.111111111111
-0.265,-0.315,10688.888888888889
-0.255,-0.305,10691.666666666666
-0.25,-0.305,10694.444444444445
-0.24,-0.31,10697.222222222223
-0.255,-0.315,10700.0
-0.265,-0.325,10702.777777777777
-0.255,-0.325,10705.555555555555
-0.25,-0.315,10708.333333333334
-0.245,-0.325,10711.111111111111
-0.255,-0.34,10713.888888888889
-0.245,-0.35,10716.666666666666
-0.25,-0.35,10719.444444444445
-0.25,-0.335,10722.222222222223
-0.24,-0.335,10725.0
-0.225,-0.32,10727.777777777777
-0.215,-0.335,10730.555555555555
-0.22,-0.34,10733.333333333334
-0.225,-0.35,10736.111111111111
-0.205,-0.335,10738.888888888889
-0.195,-0.32,10741.666666666666
-0.18,-0.32,10744.444444444445
-0.185,-0.315,10747.222222222223
-0.19,-0.335,10750.0
-0.19,-0.335,10752.777777777777
-0.185,-0.33,10755.555555555555
-0.175,-0.33,10758.333333333334
-0.16,-0.34,10761.111111111111
-0.165,-0.34,10763.888888888889
-0.17,-0.35,10766.666666666666
-0.17,-0.365,10769.444444444445
-0.155,-0.34,10772.222222222223
-0.15,-0.33,10775.0
-0.14,-0.305,10777.777777777777
-0.145,-0.31,10780.555555555555
-0.15,-0.32,10783.333333333334
-0.15,-0.31,10786.111111111111
-0.145,-0.295,10788.888888888889
-0.13,-0.29,10791.666666666666
-0.125,-0.295,10794.444444444445
-0.125,-0.3,10797.222222222223
-0.13,-0.305,10800.0
-0.145,-0.29,10802.777777777777
-0.15,-0.27,10805.555555555555
-0.125,-0.25,10808.333333333334
-0.105,-0.24,10811.111111111111
-0.1,-0.235,10813.888888888889
-0.105,-0.245,10816.666666666666
-0.12,-0.25,10819.444444444445
-0.11,-0.235,10822.222222222223
-0.11,-0.245,10825.0
-0.11,-0.25,10827.777777777777
-0.125,-0.265,10830.555555555555
-0.14,-0.28,10833.333333333334
-0.165,-0.275,10836.111111111111
-0.175,-0.27,10838.888888888889
-0.18,-0.265,10841.666666666666
-0.17,-0.28,10844.444444444445
-0.19,-0.265,10847.222222222223
-0.2,-0.29,10850.0
-0.22,-0.28,10852.777777777777
-0.22,-0.275,10855.555555555555
-0.21,-0.27,10858.333333333334
-0.21,-0.28,10861.111111111111
-0.23,-0.275,10863.888888888889
-0.235,-0.295,10866.666666666666
-0.245,-0.29,10869.444444444445
-0.245,-0.27,10872.222222222223
-0.24,-0.26,10875.0
-0.25,-0.28,10877.777777777777
-0.255,-0.285,10880.555555555555
-0.265,-0.3,10883.333333333334
-0.28,-0.305,10886.111111111111
-0.27,-0.29,10888.888888888889
-0.265,-0.275,10891.666666666666
-0.26,-0.27,10894.444444444445
-0.245,-0.265,10897.222222222223
-0.265,-0.27,10900.0
-0.26,-0.265,10902.777777777777
-0.255,-0.25,10905.555555555555
-0.25,-0.24,10908.333333333334
-0.25,-0.245,10911.111111111111
-0.25,-0.245,10913.888888888889
-0.255,-0.26,10916.666666666666
-0.27,-0.255,10919.444444444445
-0.28,-0.25,10922.222222222223
-0.265,-0.235,10925.0
-0.255,-0.24,10927.777777777777
-0.27,-0.235,10930.555555555555
-0.265,-0.25,10933.333333333334
-0.285,-0.245,10936.111111111111
-0.27,-0.235,10938.888888888889
-0.265,-0.22,10941.666666666666
-0.255,-0.23,10944.444444444445
-0.265,-0.24,10947.222222222223
-0.26,-0.25,10950.0
-0.285,-0.245,10952.777777777777
-0.285,-0.24,10955.555555555555
-0.285,-0.235,10958.333333333334
-0.275,-0.235,10961.111111111111
-0.275,-0.235,10963.888888888889
-0.275,-0.22,10966.666666666666
-0.3,-0.19,10969.444444444445
-0.275,-0.18,10972.222222222223
-0.255,-0.145,10975.0
-0.235,-0.155,10977.777777777777
-0.235,-0.175,10980.555555555555
-0.23,-0.195,10983.333333333334
-0.235,-0.2,10986.111111111111
-0.22,-0.19,10988.888888888889
-0.215,-0.175,10991.666666666666
-0.21,-0.185,10994.444444444445
-0.205,-0.195,10997.222222222223
-0.22,-0.21,11000.0
-0.22,-0.215,11002.777777777777
-0.21,-0.2,11005.555555555555
-0.205,-0.19,11008.333333333334
-0.2,-0.205,11011.111111111111
-0.205,-0.205,11013.888888888889
-0.215,-0.215,11016.666666666666
-0.23,-0.22,11019.444444444445
-0.22,-0.215,11022.222222222223
-0.21,-0.2,11025.0
-0.21,-0.2,11027.777777777777
-0.23,-0.205,11030.555555555555
-0.235,-0.225,11033.333333333334
-0.25,-0.235,11036.111111111111
-0.235,-0.23,11038.888888888889
-0.235,-0.23,11041.666666666666
-0.225,-0.24,11044.444444444445
-0.23,-0.24,11047.222222222223
-0.245,-0.255,11050.0
-0.255,-0.245,11052.777777777777
-0.25,-0.23,11055.555555555555
-0.255,-0.21,11058.333333333334
-0.25,-0.215,11061.111111111111
-0.23,-0.225,11063.888888888889
-0.23,-0.22,11066.666666666666
-0.235,-0.225,11069.444444444445
-0.225,-0.21,11072.222222222223
-0.22,-0.195,11075.0
-0.215,-0.2,11077.777777777777
-0.23,-0.205,11080.555555555555
-0.245,-0.22,11083.333333333334
-0.255,-0.23,11086.111111111111
-0.25,-0.225,11088.888888888889
-0.255,-0.215,11091.666666666666
-0.25,-0.215,11094.444444444445
-0.255,-0.225,11097.222222222223
-0.275,-0.235,11100.0
-0.285,-0.23,11102.777777777777
-0.28,-0.23,11105.555555555555
-0.275,-0.225,11108.333333333334
-0.275,-0.235,11111.111111111111
-0.285,-0.245,11113.888888888889
-0.3,-0.255,11116.666666666666
-0.31,-0.25,11119.444444444445
-0.31,-0.255,11122.222222222223
-0.305,-0.23,11125.0
-0.305,-0.23,11127.777777777777
-0.31,-0.225,11130.555555555555
-0.33,-0.235,11133.333333333334
-0.33,-0.225,11136.111111111111
