MLII,V1,time_ms
0.0,0.125,0.0
0.0,0.125,2.7777777777777777
0.0,0.125,5.555555555555555
0.0,0.125,8.333333333333334
0.0,0.125,11.11111111111111
0.0,0.125,13.88888888888889
0.0,0.125,16.666666666666668
0.0,0.125,19.444444444444443
0.0,0.125,22.22222222222222
0.005,0.13,25.0
0.015,0.145,27.77777777777778
0.025,0.17,30.555555555555557
0.035,0.16,33.333333333333336
0.035,0.14,36.111111111111114
0.015,0.135,38.888888888888886
0.015,0.13,41.666666666666664
0.025,0.14,44.44444444444444
0.05,0.145,47.22222222222222
0.06,0.14,50.0
0.055,0.12,52.77777777777778
0.04,0.115,55.55555555555556
0.045,0.125,58.333333333333336
0.065,0.13,61.111111111111114
0.085,0.125,63.888888888888886
0.095,0.11,66.66666666666667
0.085,0.105,69.44444444444444
0.085,0.08,72.22222222222223
0.085,0.09,75.0
0.105,0.105,77.77777777777777
0.125,0.1,80.55555555555556
0.135,0.085,83.33333333333333
0.135,0.07,86.11111111111111
0.135,0.06,88.88888888888889
0.145,0.06,91.66666666666667
0.15,0.06,94.44444444444444
0.175,0.07,97.22222222222223
0.195,0.045,100.0
0.2,0.02,102.77777777777777
0.18,0.015,105.55555555555556
0.19,0.015,108.33333333333333
0.215,0.03,111.11111111111111
0.255,0.035,113.88888888888889
0.27,0.025,116.66666666666667
0.275,0.005,119.44444444444444
0.265,0.005,122.22222222222223
0.27,-0.005,125.0
0.28,0.0,127.77777777777777
0.305,0.015,130.55555555555554
0.325,0.0,133.33333333333334
0.32,0.0,136.11111111111111
0.325,-0.015,138.88888888888889
0.32,0.005,141.66666666666666
0.335,0.005,144.44444444444446
0.35,0.03,147.22222222222223
0.355,0.015,150.0
0.335,0.01,152.77777777777777
0.325,0.015,155.55555555555554
0.315,0.03,158.33333333333334
0.315,0.04,161.11111111111111
0.31,0.08,163.88888888888889
0.29,0.075,166.66666666666666
0.265,0.07,169.44444444444446
0.235,0.075,172.22222222222223
0.215,0.09,175.0
0.195,0.12,177.77777777777777
0.18,0.13,180.55555555555554
0.17,0.11,183.33333333333334
0.14,0.09,186.11111111111111
0.105,0.095,188.88888888888889
0.085,0.105,191.66666666666666
0.09,0.11,194.44444444444446
0.085,0.12,197.22222222222223
0.075,0.125,200.0
0.045,0.105,202.77777777777777
0.01,0.11,205.55555555555554
-0.01,0.12,208.33333333333334
-0.01,0.135,211.11111111111111
0.005,0.145,213.88888888888889
0.005,0.13,216.66666666666666
-0.015,0.115,219.44444444444446
-0.03,0.115,222.22222222222223
-0.045,0.125,225.0
-0.045,0.125,227.77777777777777
-0.025,0.14,230.55555555555554
-0.03,0.135,233.33333333333334
-0.03,0.11,236.11111111111111
-0.05,0.105,238.88888888888889
-0.07,0.115,241.66666666666666
-0.05,0.125,244.44444444444446
-0.04,0.145,247.22222222222223
-0.035,0.135,250.0
-0.05,0.12,252.77777777777777
-0.07,0.12,255.55555555555554
-0.07,0.12,258.3333333333333
-0.06,0.14,261.1111111111111
-0.045,0.145,263.8888888888889
-0.045,0.13,266.6666666666667
-0.06,0.115,269.44444444444446
-0.06,0.115,272.22222222222223
-0.075,0.115,275.0
-0.05,0.13,277.77777777777777
-0.04,0.14,280.55555555555554
-0.03,0.145,283.3333333333333
-0.035,0.13,286.1111111111111
-0.06,0.13,288.8888888888889
-0.085,0.145,291.6666666666667
-0.065,0.15,294.44444444444446
-0.045,0.17,297.22222222222223
-0.045,0.165,300.0
-0.05,0.155,302.77777777777777
-0.065,0.14,305.55555555555554
-0.075,0.14,308.3333333333333
-0.06,0.15,311.1111111111111
-0.055,0.155,313.8888888888889
-0.05,0.15,316.6666666666667
-0.06,0.145,319.44444444444446
-0.08,0.14,322.22222222222223
-0.085,0.155,325.0
-0.075,0.175,327.77777777777777
-0.045,0.175,330.55555555555554
-0.04,0.165,333.3333333333333
-0.055,0.155,336.1111111111111
-0.06,0.14,338.8888888888889
-0.075,0.14,341.6666666666667
-0.065,0.165,344.44444444444446
-0.06,0.185,347.22222222222223
-0.055,0.165,350.0
-0.055,0.155,352.77777777777777
-0.075,0.135,355.55555555555554
-0.07,0.145,358.3333333333333
-0.05,0.155,361.1111111111111
-0.045,0.165,363.8888888888889
-0.045,0.155,366.6666666666667
-0.055,0.14,369.44444444444446
-0.07,0.135,372.22222222222223
-0.08,0.135,375.0
-0.075,0.16,377.77777777777777
-0.055,0.185,380.55555555555554
-0.045,0.16,383.3333333333333
-0.06,0.16,386.1111111111111
-0.07,0.155,388.8888888888889
-0.085,0.15,391.6666666666667
-0.065,0.16,394.44444444444446
-0.05,0.175,397.22222222222223
-0.05,0.165,400.0
-0.05,0.155,402.77777777777777
-0.065,0.135,405.55555555555554
-0.075,0.16,408.3333333333333
-0.06,0.17,411.1111111111111
-0.05,0.18,413.8888888888889
-0.04,0.185,416.6666666666667
-0.05,0.165,419.44444444444446
-0.07,0.155,422.22222222222223
-0.065,0.15,425.0
-0.06,0.165,427.77777777777777
-0.065,0.17,430.55555555555554
-0.055,0.165,433.3333333333333
-0.055,0.15,436.1111111111111
-0.08,0.15,438.8888888888889
-0.08,0.155,441.6666666666667
-0.065,0.175,444.44444444444446
-0.055,0.175,447.22222222222223
-0.04,0.185,450.0
-0.045,0.155,452.77777777777777
-0.065,0.145,455.55555555555554
-0.08,0.15,458.3333333333333
-0.07,0.16,461.1111111111111
-0.06,0.165,463.8888888888889
-0.06,0.175,466.6666666666667
-0.07,0.165,469.44444444444446
-0.065,0.15,472.22222222222223
-0.085,0.155,475.0
-0.05,0.175,477.77777777777777
-0.045,0.175,480.55555555555554
-0.05,0.165,483.3333333333333
-0.055,0.145,486.1111111111111
-0.07,0.145,488.8888888888889
-0.07,0.14,491.6666666666667
-0.05,0.155,494.44444444444446
-0.05,0.17,497.22222222222223
-0.035,0.18,500.0
-0.045,0.16,502.77777777777777
-0.065,0.15,505.55555555555554
-0.065,0.16,508.3333333333333
-0.06,0.17,511.1111111111111
-0.055,0.175,513.8888888888889
-0.055,0.175,516.6666666666666
-0.055,0.155,519.4444444444445
-0.065,0.155,522.2222222222222
-0.055,0.155,525.0
-0.05,0.185,527.7777777777778
-0.04,0.19,530.5555555555555
-0.035,0.185,533.3333333333334
-0.04,0.165,536.1111111111111
-0.06,0.155,538.8888888888889
-0.065,0.16,541.6666666666666
-0.065,0.17,544.4444444444445
-0.045,0.18,547.2222222222222
-0.055,0.175,550.0
-0.055,0.155,552.7777777777778
-0.06,0.14,555.5555555555555
-0.065,0.16,558.3333333333334
-0.07,0.18,561.1111111111111
-0.05,0.195,563.8888888888889
-0.04,0.175,566.6666666666666
-0.05,0.165,569.4444444444445
-0.06,0.145,572.2222222222222
-0.065,0.155,575.0
-0.05,0.15,577.7777777777778
-0.025,0.175,580.5555555555555
-0.03,0.17,583.3333333333334
-0.045,0.15,586.1111111111111
-0.055,0.16,588.8888888888889
-0.065,0.16,591.6666666666666
-0.05,0.17,594.4444444444445
-0.045,0.17,597.2222222222222
-0.04,0.155,600.0
-0.045,0.14,602.7777777777778
-0.05,0.15,605.5555555555555
-0.065,0.145,608.3333333333334
-0.055,0.17,611.1111111111111
-0.03,0.19,613.8888888888889
-0.04,0.18,616.6666666666666
-0.035,0.165,619.4444444444445
-0.04,0.135,622.2222222222222
-0.055,0.16,625.0
-0.05,0.165,627.7777777777778
-0.02,0.17,630.5555555555555
-0.03,0.165,633.3333333333334
-0.045,0.145,636.1111111111111
-0.05,0.15,638.8888888888889
-0.05,0.145,641.6666666666666
-0.04,0.16,644.4444444444445
-0.025,0.18,647.2222222222222
-0.03,0.165,650.0
-0.035,0.145,652.7777777777778
-0.055,0.14,655.5555555555555
-0.035,0.14,658.3333333333334
-0.03,0.17,661.1111111111111
-0.02,0.175,663.8888888888889
-0.025,0.18,666.6666666666666
-0.025,0.155,669.4444444444445
-0.035,0.155,672.2222222222222
-0.04,0.16,675.0
-0.025,0.18,677.7777777777778
-0.015,0.17,680.5555555555555
-0.02,0.17,683.3333333333334
-0.03,0.165,686.1111111111111
-0.035,0.16,688.8888888888889
-0.05,0.165,691.6666666666666
-0.025,0.18,694.4444444444445
-0.015,0.185,697.2222222222222
-0.02,0.19,700.0
-0.02,0.15,702.7777777777778
-0.04,0.135,705.5555555555555
-0.05,0.135,708.3333333333334
-0.025,0.15,711.1111111111111
-0.02,0.145,713.8888888888889
-0.005,0.145,716.6666666666666
-0.02,0.135,719.4444444444445
-0.025,0.12,722.2222222222222
-0.025,0.135,725.0
-0.02,0.15,727.7777777777778
-0.005,0.17,730.5555555555555
-0.01,0.155,733.3333333333334
-0.01,0.145,736.1111111111111
-0.04,0.14,738.8888888888889
-0.025,0.14,741.6666666666666
-0.015,0.155,744.4444444444445
-0.005,0.165,747.2222222222222
0.005,0.155,750.0
-0.01,0.135,752.7777777777778
-0.03,0.13,755.5555555555555
-0.03,0.13,758.3333333333334
-0.02,0.14,761.1111111111111
-0.005,0.155,763.8888888888889
-0.01,0.135,766.6666666666666
-0.025,0.125,769.4444444444445
-0.035,0.105,772.2222222222222
-0.035,0.12,775.0
-0.01,0.125,777.7777777777778
-0.005,0.15,780.5555555555555
0.0,0.14,783.3333333333334
-0.005,0.135,786.1111111111111
-0.025,0.13,788.8888888888889
-0.02,0.15,791.6666666666666
-0.02,0.17,794.4444444444445
-0.01,0.195,797.2222222222222
0.0,0.185,800.0
-0.02,0.17,802.7777777777778
-0.035,0.165,805.5555555555555
-0.045,0.185,808.3333333333334
-0.04,0.2,811.1111111111111
-0.015,0.215,813.8888888888889
0.0,0.18,816.6666666666666
0.015,0.17,819.4444444444445
0.025,0.135,822.2222222222222
0.015,0.145,825.0
0.045,0.16,827.7777777777778
0.045,0.175,830.5555555555555
0.06,0.165,833.3333333333334
0.05,0.155,836.1111111111111
0.025,0.14,838.8888888888889
0.04,0.155,841.6666666666666
0.045,0.16,844.4444444444445
0.05,0.16,847.2222222222222
0.04,0.145,850.0
0.02,0.135,852.7777777777778
0.005,0.14,855.5555555555555
0.0,0.145,858.3333333333334
-0.01,0.15,861.1111111111111
0.01,0.16,863.8888888888889
-0.005,0.145,866.6666666666666
-0.015,0.135,869.4444444444445
-0.035,0.11,872.2222222222222
-0.035,0.11,875.0
-0.04,0.13,877.7777777777778
-0.025,0.145,880.5555555555555
-0.005,0.145,883.3333333333334
-0.005,0.125,886.1111111111111
-0.005,0.12,888.8888888888889
-0.025,0.125,891.6666666666666
-0.02,0.13,894.4444444444445
-0.005,0.145,897.2222222222222
-0.01,0.135,900.0
-0.005,0.125,902.7777777777778
-0.025,0.115,905.5555555555555
-0.015,0.12,908.3333333333334
-0.02,0.14,911.1111111111111
0.015,0.145,913.8888888888889
0.015,0.165,916.6666666666666
0.025,0.175,919.4444444444445
0.025,0.185,922.2222222222222
0.03,0.205,925.0
0.07,0.2,927.7777777777778
0.1,0.155,930.5555555555555
0.14,0.045,933.3333333333334
0.15,-0.09,936.1111111111111
0.175,-0.225,938.8888888888889
0.235,-0.355,941.6666666666666
0.325,-0.48,944.4444444444445
0.465,-0.63,947.2222222222222
0.59,-0.81,950.0
0.74,-0.94,952.7777777777778
0.875,-1.02,955.5555555555555
1.005,-0.97,958.3333333333334
1.14,-0.885,961.1111111111111
1.29,-0.78,963.8888888888889
1.415,-0.67,966.6666666666666
1.465,-0.5,969.4444444444445
1.44,-0.33,972.2222222222222
1.3,-0.17,975.0
1.105,-0.03,977.7777777777778
0.88,0.075,980.5555555555555
0.67,0.11,983.3333333333334
0.47,0.095,986.1111111111111
0.285,0.055,988.8888888888889
0.135,0.025,991.6666666666666
0.065,0.04,994.4444444444445
0.05,0.085,997.2222222222222
0.055,0.105,1000.0
0.065,0.1,1002.7777777777778
0.06,0.1,1005.5555555555555
0.045,0.13,1008.3333333333334
0.03,0.135,1011.1111111111111
0.03,0.14,1013.8888888888889
0.02,0.14,1016.6666666666666
0.0,0.13,1019.4444444444445
-0.03,0.115,1022.2222222222222
-0.045,0.135,1025.0
-0.045,0.15,1027.7777777777778
-0.035,0.165,1030.5555555555557
-0.035,0.16,1033.3333333333333
-0.055,0.15,1036.111111111111
-0.065,0.15,1038.888888888889
-0.07,0.15,1041.6666666666667
-0.065,0.155,1044.4444444444443
-0.055,0.16,1047.2222222222222
-0.065,0.165,1050.0
-0.055,0.15,1052.7777777777778
-0.08,0.145,1055.5555555555557
-0.075,0.16,1058.3333333333333
-0.085,0.18,1061.111111111111
-0.06,0.18,1063.888888888889
-0.055,0.165,1066.6666666666667
-0.065,0.145,1069.4444444444443
-0.085,0.12,1072.2222222222222
-0.11,0.12,1075.0
-0.08,0.135,1077.7777777777778
-0.07,0.145,1080.5555555555557
-0.055,0.125,1083.3333333333333
-0.08,0.115,1086.111111111111
-0.09,0.115,1088.888888888889
-0.095,0.11,1091.6666666666667
-0.08,0.125,1094.4444444444443
-0.065,0.155,1097.2222222222222
-0.05,0.135,1100.0
-0.065,0.115,1102.7777777777778
-0.065,0.1,1105.5555555555557
-0.07,0.11,1108.3333333333333
-0.065,0.12,1111.111111111111
-0.045,0.125,1113.888888888889
-0.04,0.115,1116.6666666666667
-0.05,0.105,1119.4444444444443
-0.055,0.1,1122.2222222222222
-0.07,0.09,1125.0
-0.055,0.1,1127.7777777777778
-0.025,0.12,1130.5555555555557
-0.015,0.125,1133.3333333333333
-0.015,0.1,1136.111111111111
-0.03,0.085,1138.888888888889
-0.025,0.115,1141.6666666666667
-0.03,0.1,1144.4444444444443
0.01,0.12,1147.2222222222222
0.02,0.105,1150.0
0.025,0.09,1152.7777777777778
0.0,0.09,1155.5555555555557
0.005,0.08,1158.3333333333333
0.03,0.075,1161.111111111111
0.055,0.08,1163.888888888889
0.055,0.065,1166.6666666666667
0.065,0.035,1169.4444444444443
0.06,0.02,1172.2222222222222
0.07,0.025,1175.0
0.09,0.03,1177.7777777777778
0.12,0.03,1180.5555555555557
0.13,0.02,1183.3333333333333
0.13,-0.005,1186.111111111111
0.13,-0.005,1188.888888888889
0.15,0.0,1191.6666666666667
0.16,0.0,1194.4444444444443
0.175,0.01,1197.2222222222222
0.2,-0.015,1200.0
0.205,-0.01,1202.7777777777778
0.2,-0.03,1205.5555555555557
0.215,-0.035,1208.3333333333333
0.23,-0.04,1211.111111111111
0.26,-0.025,1213.888888888889
0.29,-0.03,1216.6666666666667
0.275,-0.055,1219.4444444444443
0.285,-0.055,1222.2222222222222
0.285,-0.05,1225.0
0.31,-0.035,1227.7777777777778
0.335,-0.015,1230.5555555555557
0.32,-0.01,1233.3333333333333
0.335,-0.01,1236.111111111111
0.31,-0.02,1238.888888888889
0.31,0.0,1241.6666666666667
0.315,0.02,1244.4444444444443
0.305,0.045,1247.2222222222222
0.295,0.035,1250.0
0.265,0.035,1252.7777777777778
0.235,0.035,1255.5555555555557
0.2,0.05,1258.3333333333333
0.21,0.07,1261.111111111111
0.205,0.075,1263.888888888889
0.185,0.08,1266.6666666666667
0.155,0.075,1269.4444444444443
0.12,0.065,1272.2222222222222
0.09,0.08,1275.0
0.1,0.095,1277.7777777777778
0.08,0.11,1280.5555555555557
0.075,0.11,1283.3333333333333
0.055,0.09,1286.111111111111
0.02,0.09,1288.888888888889
0.015,0.105,1291.6666666666667
0.01,0.115,1294.4444444444443
0.015,0.135,1297.2222222222222
0.01,0.12,1300.0
-0.01,0.125,1302.7777777777778
-0.03,0.13,1305.5555555555557
-0.04,0.14,1308.3333333333333
-0.05,0.155,1311.111111111111
-0.035,0.155,1313.888888888889
-0.035,0.13,1316.6666666666667
-0.045,0.1,1319.4444444444443
-0.075,0.075,1322.2222222222222
-0.06,0.07,1325.0
-0.055,0.07,1327.7777777777778
-0.045,0.08,1330.5555555555557
-0.04,0.085,1333.3333333333333
-0.045,0.085,1336.111111111111
-0.055,0.075,1338.888888888889
-0.06,0.08,1341.6666666666667
-0.07,0.1,1344.4444444444443
-0.04,0.115,1347.2222222222222
-0.045,0.095,1350.0
-0.05,0.095,1352.7777777777778
-0.065,0.08,1355.5555555555557
-0.075,0.085,1358.3333333333333
-0.065,0.11,1361.111111111111
-0.04,0.125,1363.888888888889
-0.035,0.12,1366.6666666666667
-0.05,0.11,1369.4444444444443
-0.055,0.11,1372.2222222222222
-0.06,0.115,1375.0
-0.045,0.125,1377.7777777777778
-0.05,0.13,1380.5555555555557
-0.025,0.125,1383.3333333333333
-0.04,0.105,1386.111111111111
-0.055,0.11,1388.888888888889
-0.06,0.12,1391.6666666666667
-0.05,0.14,1394.4444444444443
-0.025,0.145,1397.2222222222222
-0.025,0.145,1400.0
-0.025,0.14,1402.7777777777778
-0.04,0.13,1405.5555555555557
-0.05,0.135,1408.3333333333333
-0.04,0.15,1411.111111111111
-0.03,0.155,1413.888888888889
-0.02,0.13,1416.6666666666667
-0.035,0.12,1419.4444444444443
-0.045,0.115,1422.2222222222222
-0.045,0.115,1425.0
-0.045,0.125,1427.7777777777778
-0.025,0.14,1430.5555555555557
-0.02,0.15,1433.3333333333333
-0.025,0.13,1436.111111111111
-0.04,0.13,1438.888888888889
-0.04,0.12,1441.6666666666667
-0.035,0.13,1444.4444444444443
-0.025,0.135,1447.2222222222222
-0.02,0.13,1450.0
-0.03,0.12,1452.7777777777778
-0.04,0.105,1455.5555555555557
-0.035,0.115,1458.3333333333333
-0.035,0.13,1461.111111111111
-0.03,0.14,1463.888888888889
-0.025,0.13,1466.6666666666667
-0.04,0.115,1469.4444444444443
-0.06,0.115,1472.2222222222222
-0.07,0.12,1475.0
-0.045,0.13,1477.7777777777778
-0.04,0.14,1480.5555555555557
-0.03,0.135,1483.3333333333333
-0.04,0.125,1486.111111111111
-0.055,0.11,1488.888888888889
-0.055,0.11,1491.6666666666667
-0.05,0.125,1494.4444444444443
-0.03,0.135,1497.2222222222222
-0.035,0.125,1500.0
-0.04,0.11,1502.7777777777778
-0.055,0.12,1505.5555555555557
-0.055,0.12,1508.3333333333333
-0.055,0.145,1511.111111111111
-0.03,0.155,1513.888888888889
-0.04,0.15,1516.6666666666667
-0.05,0.135,1519.4444444444443
-0.055,0.125,1522.2222222222222
-0.055,0.12,1525.0
-0.05,0.125,1527.7777777777778
-0.04,0.14,1530.5555555555557
-0.055,0.13,1533.3333333333333
-0.05,0.12,1536.111111111111
-0.06,0.115,1538.888888888889
-0.06,0.11,1541.6666666666667
-0.065,0.12,1544.4444444444443
-0.05,0.14,1547.2222222222222
-0.05,0.125,1550.0
-0.05,0.11,1552.7777777777778
-0.07,0.095,1555.5555555555557
-0.075,0.115,1558.3333333333333
-0.06,0.12,1561.111111111111
-0.045,0.12,1563.888888888889
-0.05,0.105,1566.6666666666667
-0.07,0.1,1569.4444444444443
-0.075,0.09,1572.2222222222222
-0.065,0.11,1575.0
-0.05,0.12,1577.7777777777778
-0.045,0.145,1580.5555555555557
-0.03,0.135,1583.3333333333333
-0.05,0.12,1586.111111111111
-0.06,0.12,1588.888888888889
-0.06,0.11,1591.6666666666667
-0.06,0.125,1594.4444444444443
-0.035,0.135,1597.2222222222222
-0.035,0.14,1600.0
-0.045,0.12,1602.7777777777778
-0.07,0.105,1605.5555555555557
-0.065,0.115,1608.3333333333333
-0.05,0.13,1611.111111111111
-0.04,0.155,1613.888888888889
-0.04,0.14,1616.6666666666667
-0.04,0.12,1619.4444444444443
-0.06,0.115,1622.2222222222222
-0.055,0.125,1625.0
-0.06,0.14,1627.7777777777778
-0.04,0.145,1630.5555555555557
-0.04,0.15,1633.3333333333333
-0.04,0.13,1636.111111111111
-0.055,0.12,1638.888888888889
-0.065,0.13,1641.6666666666667
-0.055,0.135,1644.4444444444443
-0.035,0.145,1647.2222222222222
-0.035,0.135,1650.0
-0.045,0.125,1652.7777777777778
-0.055,0.135,1655.5555555555557
-0.05,0.13,1658.3333333333333
-0.045,0.135,1661.111111111111
-0.035,0.14,1663.888888888889
-0.03,0.125,1666.6666666666667
-0.04,0.095,1669.4444444444443
-0.05,0.105,1672.2222222222222
-0.05,0.105,1675.0
-0.045,0.115,1677.7777777777778
-0.025,0.13,1680.5555555555557
-0.03,0.125,1683.3333333333333
-0.03,0.12,1686.111111111111
-0.045,0.115,1688.888888888889
-0.055,0.115,1691.6666666666667
-0.055,0.125,1694.4444444444443
-0.02,0.14,1697.2222222222222
-0.025,0.12,1700.0
-0.03,0.12,1702.7777777777778
-0.05,0.1,1705.5555555555557
-0.065,0.105,1708.3333333333333
-0.035,0.125,1711.111111111111
-0.02,0.13,1713.888888888889
-0.03,0.13,1716.6666666666667
-0.03,0.105,1719.4444444444443
-0.035,0.1,1722.2222222222222
-0.04,0.115,1725.0
-0.035,0.13,1727.7777777777778
-0.03,0.14,1730.5555555555557
-0.03,0.14,1733.3333333333333
-0.055,0.125,1736.111111111111
-0.055,0.115,1738.888888888889
-0.065,0.12,1741.6666666666667
-0.04,0.135,1744.4444444444443
-0.015,0.155,1747.2222222222222
-0.03,0.155,1750.0
-0.03,0.13,1752.7777777777778
-0.035,0.13,1755.5555555555557
-0.045,0.115,1758.3333333333333
-0.035,0.135,1761.111111111111
-0.025,0.145,1763.888888888889
-0.01,0.125,1766.6666666666667
-0.025,0.095,1769.4444444444443
-0.04,0.095,1772.2222222222222
-0.035,0.1,1775.0
-0.025,0.11,1777.7777777777778
-0.015,0.125,1780.5555555555557
-0.025,0.13,1783.3333333333333
-0.02,0.105,1786.111111111111
-0.03,0.1,1788.888888888889
-0.035,0.095,1791.6666666666667
-0.025,0.11,1794.4444444444443
-0.015,0.115,1797.2222222222222
0.005,0.125,1800.0
-0.015,0.12,1802.7777777777778
-0.03,0.11,1805.5555555555557
-0.03,0.12,1808.3333333333333
-0.02,0.13,1811.111111111111
-0.01,0.14,1813.888888888889
0.0,0.135,1816.6666666666667
-0.01,0.115,1819.4444444444443
-0.02,0.115,1822.2222222222222
-0.025,0.11,1825.0
-0.01,0.13,1827.7777777777778
0.0,0.13,1830.5555555555557
0.005,0.13,1833.3333333333333
-0.005,0.12,1836.111111111111
-0.025,0.1,1838.888888888889
-0.03,0.11,1841.6666666666667
-0.01,0.125,1844.4444444444443
0.005,0.15,1847.2222222222222
-0.015,0.135,1850.0
-0.01,0.115,1852.7777777777778
-0.025,0.1,1855.5555555555557
-0.02,0.105,1858.3333333333333
-0.015,0.11,1861.111111111111
-0.015,0.11,1863.888888888889
0.005,0.11,1866.6666666666667
0.005,0.095,1869.4444444444443
-0.005,0.1,1872.2222222222222
-0.005,0.1,1875.0
0.015,0.115,1877.7777777777778
0.005,0.13,1880.5555555555557
0.03,0.135,1883.3333333333333
0.0,0.135,1886.111111111111
0.0,0.135,1888.888888888889
-0.005,0.145,1891.6666666666667
-0.005,0.16,1894.4444444444443
0.01,0.17,1897.2222222222222
0.015,0.17,1900.0
0.0,0.15,1902.7777777777778
0.01,0.145,1905.5555555555557
0.025,0.155,1908.3333333333333
0.04,0.155,1911.111111111111
0.075,0.15,1913.888888888889
0.07,0.135,1916.6666666666667
0.07,0.12,1919.4444444444443
0.07,0.105,1922.2222222222222
0.07,0.125,1925.0
0.065,0.135,1927.7777777777778
0.085,0.145,1930.5555555555557
0.08,0.13,1933.3333333333333
0.075,0.12,1936.111111111111
0.045,0.105,1938.888888888889
0.02,0.095,1941.6666666666667
0.03,0.11,1944.4444444444443
0.035,0.13,1947.2222222222222
0.035,0.12,1950.0
0.035,0.115,1952.7777777777778
0.0,0.105,1955.5555555555557
-0.005,0.12,1958.3333333333333
0.0,0.11,1961.111111111111
0.02,0.12,1963.888888888889
0.03,0.115,1966.6666666666667
0.02,0.1,1969.4444444444443
0.01,0.095,1972.2222222222222
0.005,0.09,1975.0
0.015,0.125,1977.7777777777778
0.03,0.13,1980.5555555555557
0.04,0.125,1983.3333333333333
0.035,0.115,1986.111111111111
-0.005,0.11,1988.888888888889
0.015,0.105,1991.6666666666667
0.04,0.115,1994.4444444444443
0.05,0.135,1997.2222222222222
0.055,0.125,2000.0
0.05,0.115,2002.7777777777778
0.045,0.1,2005.5555555555557
0.04,0.125,2008.3333333333333
0.05,0.15,2011.111111111111
0.09,0.19,2013.888888888889
0.105,0.195,2016.6666666666667
0.11,0.165,2019.4444444444443
0.135,0.11,2022.2222222222222
0.155,0.035,2025.0
0.21,-0.065,2027.7777777777778
0.245,-0.16,2030.5555555555557
0.305,-0.285,2033.3333333333333
0.405,-0.44,2036.111111111111
0.5,-0.61,2038.888888888889
0.63,-0.765,2041.6666666666667
0.77,-0.885,2044.4444444444443
0.925,-0.92,2047.2222222222222
1.05,-0.915,2050.0
1.16,-0.865,2052.777777777778
1.27,-0.8,2055.5555555555557
1.375,-0.665,2058.3333333333335
1.465,-0.48,2061.1111111111113
1.465,-0.29,2063.8888888888887
1.37,-0.15,2066.6666666666665
1.2,-0.045,2069.4444444444443
0.985,0.02,2072.222222222222
0.78,0.05,2075.0
0.615,0.045,2077.777777777778
0.475,0.04,2080.5555555555557
0.345,0.035,2083.3333333333335
0.24,0.04,2086.1111111111113
0.165,0.06,2088.8888888888887
0.155,0.09,2091.6666666666665
0.15,0.115,2094.4444444444443
0.16,0.125,2097.222222222222
0.15,0.125,2100.0
0.11,0.125,2102.777777777778
0.07,0.14,2105.5555555555557
0.055,0.135,2108.3333333333335
0.04,0.16,2111.1111111111113
0.045,0.17,2113.8888888888887
0.04,0.16,2116.6666666666665
0.02,0.145,2119.4444444444443
0.0,0.14,2122.222222222222
0.01,0.14,2125.0
-0.01,0.16,2127.777777777778
0.0,0.17,2130.5555555555557
0.005,0.16,2133.3333333333335
-0.01,0.14,2136.1111111111113
-0.005,0.135,2138.8888888888887
-0.02,0.155,2141.6666666666665
-0.01,0.155,2144.4444444444443
0.005,0.17,2147.222222222222
-0.01,0.17,2150.0
-0.01,0.16,2152.777777777778
-0.015,0.15,2155.5555555555557
-0.02,0.16,2158.3333333333335
-0.03,0.17,2161.1111111111113
0.01,0.175,2163.8888888888887
0.015,0.165,2166.6666666666665
0.0,0.15,2169.4444444444443
-0.005,0.145,2172.222222222222
-0.02,0.155,2175.0
0.0,0.165,2177.777777777778
0.01,0.18,2180.5555555555557
0.02,0.18,2183.3333333333335
0.005,0.165,2186.1111111111113
-0.015,0.155,2188.8888888888887
-0.01,0.145,2191.6666666666665
0.01,0.16,2194.4444444444443
0.03,0.175,2197.222222222222
0.025,0.17,2200.0
0.03,0.165,2202.777777777778
0.01,0.135,2205.5555555555557
0.015,0.145,2208.3333333333335
0.015,0.16,2211.1111111111113
0.03,0.165,2213.8888888888887
0.05,0.155,2216.6666666666665
0.045,0.15,2219.4444444444443
0.035,0.135,2222.222222222222
0.045,0.145,2225.0
0.055,0.15,2227.777777777778
0.08,0.16,2230.5555555555557
0.07,0.16,2233.3333333333335
0.06,0.135,2236.1111111111113
0.06,0.125,2238.8888888888887
0.055,0.135,2241.6666666666665
0.095,0.14,2244.4444444444443
0.11,0.145,2247.222222222222
0.125,0.13,2250.0
0.1,0.11,2252.777777777778
0.105,0.09,2255.5555555555557
0.115,0.095,2258.3333333333335
0.13,0.11,2261.1111111111113
0.145,0.115,2263.8888888888887
0.17,0.11,2266.6666666666665
0.16,0.09,2269.4444444444443
0.175,0.08,2272.222222222222
0.175,0.08,2275.0
0.195,0.08,2277.777777777778
0.22,0.085,2280.5555555555557
0.23,0.075,2283.3333333333335
0.23,0.045,2286.1111111111113
0.23,0.04,2288.8888888888887
0.23,0.045,2291.6666666666665
0.255,0.05,2294.4444444444443
0.275,0.055,2297.222222222222
0.29,0.035,2300.0
0.295,0.03,2302.777777777778
0.285,0.005,2305.5555555555557
0.28,0.015,2308.3333333333335
0.31,0.025,2311.1111111111113
0.33,0.025,2313.8888888888887
0.34,0.025,2316.6666666666665
0.335,0.005,2319.4444444444443
0.35,0.0,2322.222222222222
0.355,-0.005,2325.0
0.355,0.015,2327.777777777778
0.375,0.045,2330.5555555555557
0.375,0.04,2333.3333333333335
0.36,0.03,2336.1111111111113
0.34,0.02,2338.8888888888887
0.33,0.05,2341.6666666666665
0.335,0.06,2344.4444444444443
0.335,0.085,2347.222222222222
0.325,0.09,2350.0
0.31,0.085,2352.777777777778
0.27,0.08,2355.5555555555557
0.24,0.095,2358.3333333333335
0.235,0.115,2361.1111111111113
0.23,0.12,2363.8888888888887
0.195,0.115,2366.6666666666665
0.18,0.11,2369.4444444444443
0.145,0.11,2372.222222222222
0.11,0.11,2375.0
0.115,0.13,2377.777777777778
0.11,0.145,2380.5555555555557
0.11,0.13,2383.3333333333335
0.075,0.11,2386.1111111111113
0.05,0.095,2388.8888888888887
0.02,0.12,2391.6666666666665
0.02,0.14,2394.4444444444443
0.025,0.155,2397.222222222222
0.01,0.16,2400.0
0.0,0.14,2402.777777777778
-0.02,0.115,2405.5555555555557
-0.025,0.125,2408.3333333333335
-0.005,0.14,2411.1111111111113
-0.005,0.145,2413.8888888888887
-0.005,0.14,2416.6666666666665
-0.01,0.135,2419.4444444444443
-0.035,0.11,2422.222222222222
-0.025,0.13,2425.0
-0.015,0.14,2427.777777777778
-0.015,0.145,2430.5555555555557
-0.005,0.14,2433.3333333333335
-0.01,0.12,2436.1111111111113
-0.035,0.11,2438.8888888888887
-0.035,0.13,2441.6666666666665
-0.02,0.145,2444.4444444444443
-0.015,0.14,2447.222222222222
-0.01,0.13,2450.0
-0.02,0.14,2452.777777777778
-0.04,0.115,2455.5555555555557
-0.045,0.13,2458.3333333333335
-0.045,0.15,2461.1111111111113
-0.025,0.155,2463.8888888888887
-0.015,0.165,2466.6666666666665
-0.03,0.155,2469.4444444444443
-0.045,0.135,2472.222222222222
-0.055,0.13,2475.0
-0.035,0.14,2477.777777777778
-0.025,0.16,2480.5555555555557
-0.03,0.155,2483.3333333333335
-0.03,0.145,2486.1111111111113
-0.045,0.14,2488.8888888888887
-0.06,0.15,2491.6666666666665
-0.045,0.175,2494.4444444444443
-0.02,0.18,2497.222222222222
-0.04,0.17,2500.0
-0.03,0.15,2502.777777777778
-0.04,0.145,2505.5555555555557
-0.05,0.155,2508.3333333333335
-0.035,0.16,2511.1111111111113
-0.015,0.18,2513.8888888888887
-0.015,0.165,2516.6666666666665
-0.03,0.155,2519.4444444444443
-0.04,0.15,2522.222222222222
-0.045,0.145,2525.0
-0.04,0.16,2527.777777777778
-0.03,0.16,2530.5555555555557
-0.015,0.155,2533.3333333333335
-0.04,0.145,2536.1111111111113
-0.035,0.135,2538.8888888888887
-0.04,0.145,2541.6666666666665
-0.035,0.155,2544.4444444444443
-0.03,0.165,2547.222222222222
-0.03,0.15,2550.0
-0.04,0.14,2552.777777777778
-0.05,0.135,2555.5555555555557
-0.055,0.14,2558.3333333333335
-0.045,0.145,2561.1111111111113
-0.025,0.15,2563.8888888888887
-0.03,0.145,2566.6666666666665
-0.035,0.13,2569.4444444444443
-0.05,0.13,2572.222222222222
-0.055,0.13,2575.0
-0.065,0.155,2577.777777777778
-0.04,0.16,2580.5555555555557
-0.035,0.15,2583.3333333333335
-0.05,0.12,2586.1111111111113
-0.06,0.125,2588.8888888888887
-0.06,0.135,2591.6666666666665
-0.055,0.145,2594.4444444444443
-0.04,0.145,2597.222222222222
-0.035,0.145,2600.0
-0.06,0.13,2602.777777777778
-0.05,0.125,2605.5555555555557
-0.055,0.135,2608.3333333333335
-0.065,0.155,2611.1111111111113
-0.03,0.16,2613.8888888888887
-0.04,0.155,2616.6666666666665
-0.05,0.14,2619.4444444444443
-0.065,0.14,2622.222222222222
-0.055,0.13,2625.0
-0.04,0.145,2627.777777777778
-0.02,0.15,2630.5555555555557
-0.03,0.145,2633.3333333333335
-0.04,0.135,2636.1111111111113
-0.05,0.13,2638.8888888888887
-0.06,0.14,2641.6666666666665
-0.075,0.145,2644.4444444444443
-0.05,0.155,2647.222222222222
-0.04,0.145,2650.0
-0.035,0.135,2652.777777777778
-0.05,0.14,2655.5555555555557
-0.065,0.14,2658.3333333333335
-0.04,0.15,2661.1111111111113
-0.045,0.15,2663.8888888888887
-0.02,0.15,2666.6666666666665
-0.03,0.13,2669.4444444444443
-0.05,0.125,2672.222222222222
-0.05,0.125,2675.0
-0.05,0.135,2677.777777777778
-0.025,0.135,2680.5555555555557
-0.025,0.145,2683.3333333333335
-0.025,0.125,2686.1111111111113
-0.045,0.12,2688.8888888888887
-0.045,0.125,2691.6666666666665
-0.04,0.135,2694.4444444444443
-0.025,0.155,2697.222222222222
-0.025,0.13,2700.0
-0.035,0.13,2702.777777777778
-0.05,0.12,2705.5555555555557
-0.055,0.115,2708.3333333333335
-0.04,0.135,2711.1111111111113
-0.025,0.14,2713.8888888888887
-0.015,0.14,2716.6666666666665
-0.015,0.135,2719.4444444444443
-0.04,0.125,2722.222222222222
-0.045,0.125,2725.0
-0.04,0.145,2727.777777777778
-0.025,0.155,2730.5555555555557
-0.015,0.145,2733.3333333333335
-0.03,0.13,2736.1111111111113
-0.06,0.12,2738.8888888888887
-0.065,0.135,2741.6666666666665
-0.04,0.14,2744.4444444444443
-0.02,0.155,2747.222222222222
-0.015,0.155,2750.0
-0.02,0.14,2752.777777777778
-0.035,0.125,2755.5555555555557
-0.04,0.125,2758.3333333333335
-0.03,0.14,2761.1111111111113
-0.025,0.14,2763.8888888888887
-0.015,0.14,2766.6666666666665
-0.02,0.13,2769.4444444444443
-0.035,0.12,2772.222222222222
-0.035,0.14,2775.0
-0.005,0.14,2777.777777777778
-0.005,0.135,2780.5555555555557
-0.025,0.12,2783.3333333333335
-0.04,0.105,2786.1111111111113
-0.04,0.135,2788.8888888888887
-0.025,0.135,2791.6666666666665
-0.015,0.14,2794.4444444444443
-0.015,0.13,2797.222222222222
-0.015,0.12,2800.0
-0.035,0.105,2802.777777777778
-0.03,0.11,2805.5555555555557
-0.03,0.115,2808.3333333333335
-0.015,0.13,2811.1111111111113
-0.01,0.13,2813.8888888888887
-0.005,0.115,2816.6666666666665
-0.025,0.1,2819.4444444444443
-0.03,0.115,2822.222222222222
-0.03,0.135,2825.0
-0.02,0.14,2827.777777777778
-0.02,0.13,2830.5555555555557
-0.03,0.115,2833.3333333333335
-0.035,0.11,2836.1111111111113
-0.035,0.115,2838.8888888888887
-0.04,0.125,2841.6666666666665
-0.025,0.135,2844.4444444444443
-0.02,0.12,2847.222222222222
-0.02,0.12,2850.0
-0.035,0.115,2852.777777777778
-0.025,0.125,2855.5555555555557
-0.025,0.135,2858.3333333333335
-0.005,0.15,2861.1111111111113
-0.01,0.145,2863.8888888888887
-0.015,0.13,2866.6666666666665
-0.025,0.115,2869.4444444444443
-0.025,0.11,2872.222222222222
-0.015,0.125,2875.0
-0.005,0.13,2877.777777777778
-0.005,0.115,2880.5555555555557
-0.005,0.09,2883.3333333333335
-0.015,0.09,2886.1111111111113
-0.03,0.095,2888.8888888888887
-0.01,0.1,2891.6666666666665
-0.01,0.13,2894.4444444444443
-0.01,0.11,2897.222222222222
-0.02,0.1,2900.0
-0.02,0.095,2902.777777777778
-0.02,0.095,2905.5555555555557
-0.01,0.11,2908.3333333333335
0.015,0.12,2911.1111111111113
0.02,0.135,2913.8888888888887
0.0,0.1,2916.6666666666665
-0.01,0.105,2919.4444444444443
-0.015,0.11,2922.222222222222
0.0,0.12,2925.0
0.01,0.125,2927.777777777778
0.005,0.125,2930.5555555555557
0.005,0.11,2933.3333333333335
-0.015,0.1,2936.1111111111113
-0.015,0.11,2938.8888888888887
0.0,0.11,2941.6666666666665
0.01,0.145,2944.4444444444443
0.015,0.135,2947.222222222222
0.0,0.11,2950.0
-0.005,0.105,2952.777777777778
-0.005,0.12,2955.5555555555557
0.0,0.13,2958.3333333333335
0.005,0.12,2961.1111111111113
0.01,0.13,2963.8888888888887
-0.01,0.11,2966.6666666666665
-0.015,0.095,2969.4444444444443
-0.02,0.11,2972.222222222222
0.005,0.12,2975.0
0.005,0.135,2977.777777777778
0.015,0.125,2980.5555555555557
0.025,0.105,2983.3333333333335
0.01,0.095,2986.1111111111113
-0.02,0.1,2988.8888888888887
0.015,0.12,2991.6666666666665
0.03,0.115,2994.4444444444443
0.03,0.115,2997.222222222222
0.005,0.1,3000.0
0.005,0.085,3002.777777777778
0.005,0.09,3005.5555555555557
0.005,0.1,3008.3333333333335
0.025,0.125,3011.1111111111113
0.02,0.13,3013.8888888888887
0.02,0.125,3016.6666666666665
0.0,0.13,3019.4444444444443
0.01,0.145,3022.222222222222
-0.005,0.165,3025.0
0.02,0.165,3027.777777777778
0.015,0.16,3030.5555555555557
-0.01,0.16,3033.3333333333335
-0.01,0.155,3036.1111111111113
-0.01,0.155,3038.8888888888887
0.025,0.165,3041.6666666666665
0.035,0.185,3044.4444444444443
0.065,0.155,3047.222222222222
0.06,0.13,3050.0
0.055,0.12,3052.777777777778
0.06,0.125,3055.5555555555557
0.065,0.13,3058.3333333333335
0.08,0.135,3061.1111111111113
0.08,0.13,3063.8888888888887
0.065,0.125,3066.6666666666665
0.06,0.11,3069.4444444444443
0.05,0.11,3072.222222222222
0.05,0.13,3075.0
0.05,0.125,3077.777777777778
0.04,0.12,3080.5555555555557
0.03,0.115,3083.3333333333335
0.025,0.105,3086.1111111111113
0.005,0.11,3088.8888888888887
0.015,0.115,3091.6666666666665
0.025,0.13,3094.4444444444443
0.015,0.115,3097.222222222222
0.005,0.11,3100.0
0.0,0.1,3102.777777777778
-0.02,0.105,3105.5555555555557
0.005,0.125,3108.3333333333335
0.02,0.13,3111.1111111111113
0.015,0.12,3113.8888888888887
0.015,0.105,3116.6666666666665
0.005,0.09,3119.4444444444443
-0.005,0.095,3122.222222222222
0.01,0.11,3125.0
0.01,0.115,3127.777777777778
0.03,0.115,3130.5555555555557
0.03,0.095,3133.3333333333335
0.01,0.095,3136.1111111111113
0.005,0.095,3138.8888888888887
0.01,0.11,3141.6666666666665
0.025,0.125,3144.4444444444443
0.055,0.11,3147.222222222222
0.025,0.135,3150.0
0.02,0.13,3152.777777777778
0.035,0.165,3155.5555555555557
0.05,0.17,3158.3333333333335
0.065,0.19,3161.1111111111113
0.1,0.16,3163.8888888888887
0.115,0.1,3166.6666666666665
0.14,-0.005,3169.4444444444443
0.145,-0.085,3172.222222222222
0.195,-0.18,3175.0
0.265,-0.275,3177.777777777778
0.36,-0.405,3180.5555555555557
0.455,-0.56,3183.3333333333335
0.54,-0.715,3186.1111111111113
0.66,-0.865,3188.8888888888887
0.795,-0.955,3191.6666666666665
0.935,-0.975,3194.4444444444443
1.05,-0.94,3197.222222222222
1.145,-0.89,3200.0
1.235,-0.83,3202.777777777778
1.345,-0.71,3205.5555555555557
1.41,-0.53,3208.3333333333335
1.41,-0.355,3211.1111111111113
1.335,-0.215,3213.8888888888887
1.18,-0.085,3216.6666666666665
0.99,-0.02,3219.4444444444443
0.79,0.045,3222.222222222222
0.625,0.05,3225.0
0.475,0.05,3227.777777777778
0.335,0.01,3230.5555555555557
0.22,0.005,3233.3333333333335
0.14,0.02,3236.1111111111113
0.115,0.06,3238.8888888888887
0.12,0.085,3241.6666666666665
0.12,0.11,3244.4444444444443
0.12,0.11,3247.222222222222
0.1,0.11,3250.0
0.075,0.105,3252.777777777778
0.065,0.125,3255.5555555555557
0.045,0.135,3258.3333333333335
0.045,0.16,3261.1111111111113
0.03,0.14,3263.8888888888887
0.015,0.13,3266.6666666666665
-0.01,0.13,3269.4444444444443
-0.005,0.15,3272.222222222222
-0.005,0.155,3275.0
0.005,0.175,3277.777777777778
-0.005,0.165,3280.5555555555557
-0.015,0.155,3283.3333333333335
-0.025,0.15,3286.1111111111113
-0.035,0.135,3288.8888888888887
-0.035,0.145,3291.6666666666665
-0.015,0.165,3294.4444444444443
-0.01,0.16,3297.222222222222
-0.02,0.15,3300.0
-0.03,0.135,3302.777777777778
-0.035,0.14,3305.5555555555557
-0.025,0.17,3308.3333333333335
-0.01,0.17,3311.1111111111113
-0.015,0.165,3313.8888888888887
-0.015,0.155,3316.6666666666665
-0.03,0.135,3319.4444444444443
-0.045,0.135,3322.222222222222
-0.045,0.15,3325.0
-0.015,0.155,3327.777777777778
-0.02,0.155,3330.5555555555557
-0.03,0.135,3333.3333333333335
-0.035,0.13,3336.1111111111113
-0.03,0.14,3338.8888888888887
-0.04,0.145,3341.6666666666665
-0.005,0.165,3344.4444444444443
-0.01,0.15,3347.222222222222
-0.035,0.14,3350.0
-0.015,0.12,3352.777777777778
-0.03,0.14,3355.5555555555557
-0.025,0.14,3358.3333333333335
-0.01,0.145,3361.1111111111113
0.0,0.13,3363.8888888888887
-0.01,0.13,3366.6666666666665
-0.01,0.105,3369.4444444444443
0.005,0.115,3372.222222222222
0.005,0.12,3375.0
0.005,0.125,3377.777777777778
0.025,0.12,3380.5555555555557
0.015,0.115,3383.3333333333335
0.005,0.095,3386.1111111111113
0.0,0.115,3388.8888888888887
0.01,0.115,3391.6666666666665
0.02,0.13,3394.4444444444443
0.045,0.125,3397.222222222222
0.04,0.095,3400.0
0.03,0.08,3402.777777777778
0.035,0.085,3405.5555555555557
0.04,0.095,3408.3333333333335
0.06,0.085,3411.1111111111113
0.075,0.075,3413.8888888888887
0.075,0.055,3416.6666666666665
0.06,0.04,3419.4444444444443
0.055,0.045,3422.222222222222
0.075,0.05,3425.0
0.115,0.05,3427.777777777778
0.125,0.03,3430.5555555555557
0.11,0.02,3433.3333333333335
0.105,0.0,3436.1111111111113
0.13,0.005,3438.8888888888887
0.145,0.02,3441.6666666666665
0.17,0.02,3444.4444444444443
0.185,0.0,3447.222222222222
0.185,0.0,3450.0
0.19,-0.01,3452.777777777778
0.185,-0.02,3455.5555555555557
0.215,-0.015,3458.3333333333335
0.23,-0.01,3461.1111111111113
0.245,-0.03,3463.8888888888887
0.25,-0.04,3466.6666666666665
0.235,-0.045,3469.4444444444443
0.24,-0.045,3472.222222222222
0.265,-0.045,3475.0
0.28,-0.035,3477.777777777778
0.305,-0.045,3480.5555555555557
0.285,-0.07,3483.3333333333335
0.3,-0.075,3486.1111111111113
0.31,-0.07,3488.8888888888887
0.315,-0.05,3491.6666666666665
0.34,-0.03,3494.4444444444443
0.355,-0.035,3497.222222222222
0.345,-0.03,3500.0
0.33,-0.03,3502.777777777778
0.315,-0.01,3505.5555555555557
0.325,0.01,3508.3333333333335
0.335,0.025,3511.1111111111113
0.315,0.02,3513.8888888888887
0.3,0.025,3516.6666666666665
0.28,0.025,3519.4444444444443
0.25,0.035,3522.222222222222
0.26,0.055,3525.0
0.255,0.085,3527.777777777778
0.24,0.075,3530.5555555555557
0.21,0.06,3533.3333333333335
0.18,0.05,3536.1111111111113
0.165,0.055,3538.8888888888887
0.145,0.08,3541.6666666666665
0.135,0.1,3544.4444444444443
0.135,0.105,3547.222222222222
0.095,0.09,3550.0
0.07,0.085,3552.777777777778
0.055,0.085,3555.5555555555557
0.04,0.105,3558.3333333333335
0.05,0.115,3561.1111111111113
0.045,0.085,3563.8888888888887
0.03,0.085,3566.6666666666665
0.005,0.08,3569.4444444444443
0.0,0.09,3572.222222222222
0.01,0.1,3575.0
0.005,0.11,3577.777777777778
0.015,0.105,3580.5555555555557
-0.005,0.085,3583.3333333333335
-0.035,0.085,3586.1111111111113
-0.045,0.085,3588.8888888888887
-0.04,0.09,3591.6666666666665
-0.025,0.11,3594.4444444444443
-0.01,0.095,3597.222222222222
-0.035,0.09,3600.0
-0.07,0.08,3602.777777777778
-0.065,0.09,3605.5555555555557
-0.04,0.1,3608.3333333333335
-0.04,0.115,3611.1111111111113
-0.04,0.1,3613.8888888888887
-0.04,0.09,3616.6666666666665
-0.06,0.08,3619.4444444444443
-0.055,0.08,3622.222222222222
-0.065,0.105,3625.0
-0.03,0.12,3627.777777777778
-0.02,0.115,3630.5555555555557
-0.045,0.09,3633.3333333333335
-0.05,0.07,3636.1111111111113
-0.045,0.09,3638.8888888888887
-0.05,0.1,3641.6666666666665
-0.02,0.11,3644.4444444444443
-0.02,0.115,3647.222222222222
-0.03,0.11,3650.0
-0.05,0.115,3652.777777777778
-0.05,0.105,3655.5555555555557
-0.045,0.12,3658.3333333333335
-0.05,0.135,3661.1111111111113
-0.04,0.11,3663.8888888888887
-0.03,0.095,3666.6666666666665
-0.045,0.105,3669.4444444444443
-0.055,0.1,3672.222222222222
-0.055,0.115,3675.0
-0.025,0.12,3677.777777777778
-0.03,0.115,3680.5555555555557
-0.04,0.105,3683.3333333333335
-0.055,0.09,3686.1111111111113
-0.05,0.095,3688.8888888888887
-0.04,0.115,3691.6666666666665
-0.04,0.125,3694.4444444444443
-0.03,0.115,3697.222222222222
-0.045,0.095,3700.0
-0.04,0.085,3702.777777777778
-0.05,0.1,3705.5555555555557
-0.035,0.115,3708.3333333333335
-0.025,0.11,3711.1111111111113
-0.025,0.11,3713.8888888888887
-0.03,0.095,3716.6666666666665
-0.06,0.085,3719.4444444444443
-0.07,0.095,3722.222222222222
-0.05,0.105,3725.0
-0.02,0.12,3727.777777777778
-0.02,0.115,3730.5555555555557
-0.025,0.105,3733.3333333333335
-0.04,0.085,3736.1111111111113
-0.045,0.095,3738.8888888888887
-0.03,0.105,3741.6666666666665
-0.005,0.11,3744.4444444444443
0.0,0.115,3747.222222222222
-0.01,0.095,3750.0
-0.02,0.08,3752.777777777778
-0.04,0.085,3755.5555555555557
-0.02,0.105,3758.3333333333335
-0.005,0.105,3761.1111111111113
-0.005,0.11,3763.8888888888887
-0.015,0.105,3766.6666666666665
-0.04,0.085,3769.4444444444443
-0.045,0.085,3772.222222222222
-0.035,0.095,3775.0
-0.025,0.11,3777.777777777778
0.0,0.115,3780.5555555555557
-0.015,0.105,3783.3333333333335
-0.035,0.09,3786.1111111111113
-0.05,0.105,3788.8888888888887
-0.03,0.115,3791.6666666666665
-0.015,0.12,3794.4444444444443
-0.01,0.11,3797.222222222222
-0.015,0.095,3800.0
-0.035,0.075,3802.777777777778
-0.035,0.09,3805.5555555555557
-0.035,0.1,3808.3333333333335
-0.015,0.105,3811.1111111111113
-0.02,0.095,3813.8888888888887
-0.015,0.08,3816.6666666666665
-0.03,0.08,3819.4444444444443
-0.05,0.085,3822.222222222222
-0.035,0.11,3825.0
-0.01,0.12,3827.777777777778
0.0,0.11,3830.5555555555557
-0.02,0.095,3833.3333333333335
-0.03,0.075,3836.1111111111113
-0.045,0.09,3838.8888888888887
-0.02,0.085,3841.6666666666665
-0.01,0.1,3844.4444444444443
-0.005,0.11,3847.222222222222
-0.015,0.1,3850.0
-0.035,0.075,3852.777777777778
-0.035,0.085,3855.5555555555557
-0.03,0.1,3858.3333333333335
-0.005,0.1,3861.1111111111113
-0.015,0.095,3863.8888888888887
-0.01,0.07,3866.6666666666665
-0.04,0.06,3869.4444444444443
-0.04,0.075,3872.222222222222
-0.045,0.09,3875.0
-0.05,0.1,3877.777777777778
-0.035,0.095,3880.5555555555557
-0.035,0.06,3883.3333333333335
-0.065,0.055,3886.1111111111113
-0.055,0.065,3888.8888888888887
-0.055,0.075,3891.6666666666665
-0.03,0.105,3894.4444444444443
-0.02,0.09,3897.222222222222
-0.04,0.075,3900.0
-0.045,0.075,3902.777777777778
-0.04,0.07,3905.5555555555557
-0.04,0.085,3908.3333333333335
-0.035,0.1,3911.1111111111113
-0.025,0.085,3913.8888888888887
-0.035,0.075,3916.6666666666665
-0.04,0.065,3919.4444444444443
-0.05,0.075,3922.222222222222
-0.04,0.09,3925.0
-0.025,0.095,3927.777777777778
-0.03,0.075,3930.5555555555557
-0.025,0.07,3933.3333333333335
-0.04,0.045,3936.1111111111113
-0.065,0.07,3938.8888888888887
-0.05,0.08,3941.6666666666665
-0.02,0.085,3944.4444444444443
-0.015,0.075,3947.222222222222
-0.03,0.065,3950.0
-0.035,0.05,3952.777777777778
-0.05,0.07,3955.5555555555557
-0.035,0.08,3958.3333333333335
-0.02,0.09,3961.1111111111113
-0.025,0.075,3963.8888888888887
-0.035,0.065,3966.6666666666665
-0.06,0.045,3969.4444444444443
-0.065,0.05,3972.222222222222
-0.045,0.06,3975.0
-0.025,0.085,3977.777777777778
-0.03,0.085,3980.5555555555557
-0.035,0.065,3983.3333333333335
-0.06,0.055,3986.1111111111113
-0.055,0.065,3988.8888888888887
-0.04,0.075,3991.6666666666665
-0.03,0.085,3994.4444444444443
-0.035,0.07,3997.222222222222
-0.035,0.06,4000.0
-0.035,0.05,4002.777777777778
-0.045,0.06,4005.5555555555557
-0.05,0.065,4008.3333333333335
-0.03,0.09,4011.1111111111113
-0.015,0.085,4013.8888888888887
-0.04,0.075,4016.6666666666665
-0.06,0.065,4019.4444444444443
-0.055,0.07,4022.222222222222
-0.04,0.08,4025.0
-0.035,0.095,4027.777777777778
-0.035,0.09,4030.5555555555557
-0.045,0.075,4033.3333333333335
-0.05,0.07,4036.1111111111113
-0.05,0.075,4038.8888888888887
-0.04,0.085,4041.6666666666665
-0.02,0.085,4044.4444444444443
-0.03,0.075,4047.222222222222
-0.04,0.06,4050.0
-0.045,0.045,4052.777777777778
-0.05,0.07,4055.5555555555557
-0.03,0.08,4058.3333333333335
-0.02,0.09,4061.1111111111113
-0.02,0.075,4063.8888888888887
-0.035,0.075,4066.6666666666665
-0.04,0.055,4069.4444444444443
-0.045,0.055,4072.222222222222
-0.035,0.075,4075.0
-0.025,0.08,4077.777777777778
-0.02,0.08,4080.5555555555557
-0.025,0.065,4083.3333333333335
-0.035,0.06,4086.1111111111113
-0.05,0.07,4088.8888888888887
-0.04,0.07,4091.6666666666665
-0.045,0.1,4094.4444444444443
-0.02,0.085,4097.222222222223
-0.025,0.065,4100.0
-0.03,0.05,4102.777777777777
-0.045,0.07,4105.555555555556
-0.04,0.075,4108.333333333333
-0.015,0.085,4111.111111111111
-0.01,0.085,4113.888888888889
-0.025,0.065,4116.666666666667
-0.035,0.06,4119.444444444444
-0.04,0.06,4122.222222222223
-0.035,0.07,4125.0
-0.01,0.095,4127.777777777777
-0.005,0.085,4130.555555555556
-0.02,0.075,4133.333333333333
-0.04,0.07,4136.111111111111
-0.035,0.06,4138.888888888889
-0.015,0.09,4141.666666666667
-0.02,0.095,4144.444444444444
-0.025,0.09,4147.222222222223
-0.01,0.08,4150.0
-0.045,0.06,4152.777777777777
-0.035,0.055,4155.555555555556
-0.03,0.085,4158.333333333333
-0.01,0.09,4161.111111111111
-0.02,0.08,4163.888888888889
-0.015,0.07,4166.666666666667
-0.025,0.055,4169.444444444444
-0.02,0.06,4172.222222222223
-0.02,0.075,4175.0
-0.005,0.08,4177.777777777777
0.005,0.07,4180.555555555556
-0.02,0.055,4183.333333333333
-0.03,0.03,4186.111111111111
-0.01,0.055,4188.888888888889
0.005,0.075,4191.666666666667
0.01,0.095,4194.444444444444
0.01,0.12,4197.222222222223
0.01,0.095,4200.0
-0.015,0.1,4202.777777777777
-0.02,0.1,4205.555555555556
-0.02,0.125,4208.333333333333
-0.005,0.135,4211.111111111111
-0.01,0.125,4213.888888888889
0.01,0.12,4216.666666666667
0.005,0.105,4219.444444444444
0.03,0.115,4222.222222222223
0.04,0.13,4225.0
0.055,0.135,4227.777777777777
0.075,0.115,4230.555555555556
0.075,0.105,4233.333333333333
0.06,0.095,4236.111111111111
0.05,0.105,4238.888888888889
0.055,0.12,4241.666666666667
0.075,0.135,4244.444444444444
0.07,0.115,4247.222222222223
0.06,0.1,4250.0
0.05,0.085,4252.777777777777
0.03,0.095,4255.555555555556
0.035,0.1,4258.333333333333
0.04,0.11,4261.111111111111
0.035,0.1,4263.888888888889
0.02,0.085,4266.666666666667
0.0,0.08,4269.444444444444
-0.005,0.085,4272.222222222223
0.005,0.105,4275.0
0.02,0.105,4277.777777777777
0.015,0.12,4280.555555555556
0.01,0.11,4283.333333333333
0.01,0.1,4286.111111111111
0.005,0.105,4288.888888888889
0.01,0.11,4291.666666666667
0.025,0.12,4294.444444444444
0.02,0.095,4297.222222222223
0.02,0.08,4300.0
-0.005,0.07,4302.777777777777
-0.01,0.085,4305.555555555556
0.015,0.08,4308.333333333333
0.03,0.09,4311.111111111111
0.035,0.09,4313.888888888889
0.02,0.085,4316.666666666667
0.02,0.075,4319.444444444444
0.03,0.095,4322.222222222223
0.05,0.12,4325.0
0.06,0.155,4327.777777777777
0.075,0.165,4330.555555555556
0.075,0.16,4333.333333333333
0.075,0.135,4336.111111111111
0.095,0.09,4338.888888888889
0.135,0.04,4341.666666666667
0.17,-0.05,4344.444444444444
0.2,-0.175,4347.222222222223
0.22,-0.295,4350.0
0.295,-0.445,4352.777777777777
0.405,-0.59,4355.555555555556
0.54,-0.73,4358.333333333333
0.69,-0.85,4361.111111111111
0.835,-0.935,4363.888888888889
0.97,-0.94,4366.666666666667
1.065,-0.9,4369.444444444444
1.205,-0.8,4372.222222222223
1.36,-0.685,4375.0
1.48,-0.53,4377.777777777777
1.515,-0.37,4380.555555555556
1.455,-0.225,4383.333333333333
1.315,-0.12,4386.111111111111
1.11,-0.01,4388.888888888889
0.875,0.065,4391.666666666667
0.7,0.09,4394.444444444444
0.515,0.06,4397.222222222223
0.335,0.02,4400.0
0.175,-0.005,4402.777777777777
0.09,0.02,4405.555555555556
0.08,0.06,4408.333333333333
0.105,0.1,4411.111111111111
0.115,0.095,4413.888888888889
0.105,0.11,4416.666666666667
0.075,0.085,4419.444444444444
0.045,0.095,4422.222222222223
0.035,0.12,4425.0
0.035,0.125,4427.777777777777
0.025,0.105,4430.555555555556
0.01,0.115,4433.333333333333
-0.02,0.105,4436.111111111111
-0.02,0.105,4438.888888888889
-0.02,0.125,4441.666666666667
-0.015,0.14,4444.444444444444
-0.005,0.145,4447.222222222223
-0.02,0.12,4450.0
-0.035,0.12,4452.777777777777
-0.045,0.13,4455.555555555556
-0.04,0.135,4458.333333333333
-0.025,0.15,4461.111111111111
-0.03,0.14,4463.888888888889
-0.03,0.135,4466.666666666667
-0.045,0.105,4469.444444444444
-0.05,0.115,4472.222222222223
-0.05,0.13,4475.0
-0.05,0.135,4477.777777777777
-0.045,0.15,4480.555555555556
-0.035,0.125,4483.333333333333
-0.06,0.12,4486.111111111111
-0.065,0.12,4488.888888888889
-0.06,0.13,4491.666666666667
-0.04,0.145,4494.444444444444
-0.03,0.135,4497.222222222223
-0.045,0.12,4500.0
-0.045,0.105,4502.777777777777
-0.04,0.125,4505.555555555556
-0.03,0.125,4508.333333333333
-0.015,0.14,4511.111111111111
-0.015,0.14,4513.888888888889
-0.025,0.125,4516.666666666667
-0.025,0.11,4519.444444444444
-0.03,0.12,4522.222222222223
-0.025,0.125,4525.0
-0.005,0.135,4527.777777777777
0.01,0.13,4530.555555555556
0.0,0.12,4533.333333333333
-0.015,0.12,4536.111111111111
-0.005,0.105,4538.888888888889
-0.005,0.115,4541.666666666667
0.02,0.12,4544.444444444444
0.01,0.135,4547.222222222223
0.015,0.105,4550.0
0.0,0.095,4552.777777777777
0.01,0.09,4555.555555555556
0.025,0.115,4558.333333333333
0.055,0.11,4561.111111111111
0.06,0.095,4563.888888888889
0.055,0.085,4566.666666666667
0.055,0.075,4569.444444444444
0.055,0.085,4572.222222222223
0.06,0.09,4575.0
0.09,0.11,4577.777777777777
0.09,0.095,4580.555555555556
0.095,0.07,4583.333333333333
0.1,0.05,4586.111111111111
0.085,0.06,4588.888888888889
0.12,0.065,4591.666666666667
0.145,0.075,4594.444444444444
0.15,0.06,4597.222222222223
0.145,0.04,4600.0
0.15,0.03,4602.777777777777
0.15,0.03,4605.555555555556
0.18,0.04,4608.333333333333
0.2,0.025,4611.111111111111
0.21,0.025,4613.888888888889
0.22,0.01,4616.666666666667
0.22,0.01,4619.444444444444
0.22,0.0,4622.222222222223
0.24,0.005,4625.0
0.255,0.015,4627.777777777777
0.285,0.0,4630.555555555556
0.275,-0.01,4633.333333333333
0.265,-0.015,4636.111111111111
0.275,-0.01,4638.888888888889
0.29,0.01,4641.666666666667
0.29,0.01,4644.444444444444
0.31,-0.005,4647.222222222223
0.32,-0.01,4650.0
0.3,-0.005,4652.777777777777
0.29,-0.005,4655.555555555556
0.315,0.015,4658.333333333333
0.305,0.025,4661.111111111111
0.32,0.025,4663.888888888889
0.29,0.025,4666.666666666667
0.28,0.02,4669.444444444444
0.25,0.03,4672.222222222223
0.245,0.05,4675.0
0.25,0.08,4677.777777777777
0.225,0.075,4680.555555555556
0.21,0.07,4683.333333333333
0.175,0.07,4686.111111111111
0.155,0.07,4688.888888888889
0.145,0.095,4691.666666666667
0.13,0.105,4694.444444444444
0.12,0.105,4697.222222222223
0.095,0.085,4700.0
0.065,0.095,4702.777777777777
0.045,0.105,4705.555555555556
0.045,0.12,4708.333333333333
0.04,0.14,4711.111111111111
0.03,0.135,4713.888888888889
0.015,0.105,4716.666666666667
-0.01,0.11,4719.444444444444
-0.03,0.115,4722.222222222223
-0.02,0.125,4725.0
-0.015,0.125,4727.777777777777
-0.02,0.125,4730.555555555556
-0.055,0.12,4733.333333333333
-0.06,0.095,4736.111111111111
-0.065,0.11,4738.888888888889
-0.08,0.125,4741.666666666667
-0.06,0.135,4744.444444444444
-0.045,0.13,4747.222222222223
-0.065,0.12,4750.0
-0.08,0.11,4752.777777777777
-0.085,0.115,4755.555555555556
-0.08,0.115,4758.333333333333
-0.08,0.13,4761.111111111111
-0.085,0.135,4763.888888888889
-0.085,0.11,4766.666666666667
-0.08,0.11,4769.444444444444
-0.095,0.12,4772.222222222223
-0.08,0.125,4775.0
-0.075,0.145,4777.777777777777
-0.075,0.13,4780.555555555556
-0.075,0.125,4783.333333333333
-0.09,0.12,4786.111111111111
-0.1,0.135,4788.888888888889
-0.085,0.14,4791.666666666667
-0.075,0.15,4794.444444444444
-0.07,0.14,4797.222222222223
-0.08,0.13,4800.0
-0.095,0.13,4802.777777777777
-0.09,0.135,4805.555555555556
-0.085,0.145,4808.333333333333
-0.065,0.155,4811.111111111111
-0.065,0.145,4813.888888888889
-0.07,0.15,4816.666666666667
-0.085,0.13,4819.444444444444
-0.09,0.135,4822.222222222223
-0.08,0.145,4825.0
-0.055,0.16,4827.777777777777
-0.075,0.15,4830.555555555556
-0.065,0.145,4833.333333333333
-0.09,0.12,4836.111111111111
-0.085,0.13,4838.888888888889
-0.075,0.145,4841.666666666667
-0.055,0.155,4844.444444444444
-0.055,0.145,4847.222222222223
-0.065,0.135,4850.0
-0.085,0.12,4852.777777777777
-0.075,0.13,4855.555555555556
-0.065,0.14,4858.333333333333
-0.06,0.16,4861.111111111111
-0.055,0.145,4863.888888888889
-0.065,0.14,4866.666666666667
-0.075,0.115,4869.444444444444
-0.085,0.13,4872.222222222223
-0.065,0.145,4875.0
-0.05,0.155,4877.777777777777
-0.065,0.15,4880.555555555556
-0.06,0.14,4883.333333333333
-0.07,0.125,4886.111111111111
-0.075,0.135,4888.888888888889
-0.075,0.145,4891.666666666667
-0.055,0.155,4894.444444444444
-0.05,0.155,4897.222222222223
-0.065,0.14,4900.0
-0.075,0.13,4902.777777777777
-0.075,0.14,4905.555555555556
-0.07,0.145,4908.333333333333
-0.055,0.15,4911.111111111111
-0.06,0.145,4913.888888888889
-0.06,0.135,4916.666666666667
-0.075,0.135,4919.444444444444
-0.085,0.135,4922.222222222223
-0.08,0.15,4925.0
-0.065,0.15,4927.777777777777
-0.05,0.145,4930.555555555556
-0.065,0.14,4933.333333333333
-0.08,0.13,4936.111111111111
-0.09,0.135,4938.888888888889
-0.075,0.14,4941.666666666667
-0.07,0.15,4944.444444444444
-0.04,0.15,4947.222222222223
-0.07,0.14,4950.0
-0.075,0.13,4952.777777777777
-0.085,0.135,4955.555555555556
-0.075,0.15,4958.333333333333
-0.06,0.155,4961.111111111111
-0.045,0.15,4963.888888888889
-0.06,0.14,4966.666666666667
-0.09,0.125,4969.444444444444
-0.09,0.13,4972.222222222223
-0.075,0.14,4975.0
-0.055,0.155,4977.777777777777
-0.055,0.145,4980.555555555556
-0.06,0.145,4983.333333333333
-0.07,0.145,4986.111111111111
-0.065,0.145,4988.888888888889
-0.06,0.155,4991.666666666667
-0.07,0.16,4994.444444444444
-0.06,0.15,4997.222222222223
-0.055,0.145,5000.0
-0.07,0.12,5002.777777777777
-0.085,0.135,5005.555555555556
-0.075,0.15,5008.333333333333
-0.065,0.16,5011.111111111111
-0.055,0.16,5013.888888888889
-0.075,0.13,5016.666666666667
-0.085,0.12,5019.444444444444
-0.085,0.14,5022.222222222223
-0.08,0.145,5025.0
-0.065,0.155,5027.777777777777
-0.065,0.135,5030.555555555556
-0.075,0.135,5033.333333333333
-0.085,0.115,5036.111111111111
-0.08,0.13,5038.888888888889
-0.07,0.125,5041.666666666667
-0.07,0.145,5044.444444444444
-0.08,0.155,5047.222222222223
-0.07,0.115,5050.0
-0.08,0.125,5052.777777777777
-0.095,0.12,5055.555555555556
-0.07,0.14,5058.333333333333
-0.055,0.145,5061.111111111111
-0.055,0.13,5063.888888888889
-0.065,0.115,5066.666666666667
-0.085,0.12,5069.444444444444
-0.095,0.12,5072.222222222223
-0.075,0.135,5075.0
-0.075,0.145,5077.777777777777
-0.065,0.135,5080.555555555556
-0.075,0.115,5083.333333333333
-0.08,0.115,5086.111111111111
-0.085,0.12,5088.888888888889
-0.07,0.125,5091.666666666667
-0.06,0.14,5094.444444444444
-0.055,0.13,5097.222222222223
-0.07,0.11,5100.0
-0.095,0.105,5102.777777777777
-0.08,0.12,5105.555555555556
-0.075,0.135,5108.333333333333
-0.055,0.14,5111.111111111111
-0.055,0.14,5113.888888888889
-0.075,0.12,5116.666666666667
-0.075,0.105,5119.444444444444
-0.075,0.115,5122.222222222223
-0.075,0.12,5125.0
-0.065,0.14,5127.777777777777
-0.065,0.12,5130.555555555556
-0.07,0.115,5133.333333333333
-0.095,0.105,5136.111111111111
-0.09,0.12,5138.888888888889
-0.075,0.135,5141.666666666667
-0.065,0.15,5144.444444444444
-0.075,0.13,5147.222222222223
-0.075,0.13,5150.0
-0.085,0.115,5152.777777777777
-0.09,0.13,5155.555555555556
-0.075,0.13,5158.333333333333
-0.06,0.15,5161.111111111111
-0.055,0.14,5163.888888888889
-0.055,0.12,5166.666666666667
-0.075,0.13,5169.444444444444
-0.07,0.115,5172.222222222223
-0.065,0.13,5175.0
-0.055,0.135,5177.777777777777
-0.065,0.13,5180.555555555556
-0.045,0.125,5183.333333333333
-0.065,0.12,5186.111111111111
-0.075,0.11,5188.888888888889
-0.065,0.115,5191.666666666667
-0.045,0.125,5194.444444444444
-0.04,0.115,5197.222222222223
-0.045,0.115,5200.0
-0.07,0.105,5202.777777777777
-0.065,0.12,5205.555555555556
-0.06,0.13,5208.333333333333
-0.035,0.155,5211.111111111111
-0.035,0.13,5213.888888888889
-0.045,0.115,5216.666666666667
-0.065,0.105,5219.444444444444
-0.08,0.11,5222.222222222223
-0.065,0.125,5225.0
-0.055,0.14,5227.777777777777
-0.06,0.11,5230.555555555556
-0.075,0.11,5233.333333333333
-0.065,0.115,5236.111111111111
-0.08,0.115,5238.888888888889
-0.06,0.115,5241.666666666667
-0.05,0.125,5244.444444444444
-0.035,0.115,5247.222222222223
-0.05,0.1,5250.0
-0.065,0.095,5252.777777777777
-0.065,0.1,5255.555555555556
-0.07,0.125,5258.333333333333
-0.06,0.125,5261.111111111111
-0.045,0.125,5263.888888888889
-0.055,0.115,5266.666666666667
-0.06,0.105,5269.444444444444
-0.05,0.11,5272.222222222223
-0.06,0.12,5275.0
-0.04,0.13,5277.777777777777
-0.04,0.12,5280.555555555556
-0.05,0.11,5283.333333333333
-0.08,0.11,5286.111111111111
-0.075,0.11,5288.888888888889
-0.085,0.13,5291.666666666667
-0.04,0.135,5294.444444444444
-0.04,0.125,5297.222222222223
-0.05,0.11,5300.0
-0.06,0.095,5302.777777777777
-0.05,0.11,5305.555555555556
-0.04,0.115,5308.333333333333
-0.03,0.125,5311.111111111111
-0.015,0.1,5313.888888888889
-0.02,0.1,5316.666666666667
-0.035,0.085,5319.444444444444
-0.045,0.11,5322.222222222223
-0.03,0.135,5325.0
-0.035,0.155,5327.777777777777
-0.035,0.145,5330.555555555556
-0.045,0.145,5333.333333333333
-0.055,0.145,5336.111111111111
-0.065,0.15,5338.888888888889
-0.045,0.155,5341.666666666667
-0.025,0.17,5344.444444444444
-0.01,0.16,5347.222222222223
0.01,0.13,5350.0
0.0,0.125,5352.777777777777
0.01,0.115,5355.555555555556
0.015,0.11,5358.333333333333
0.025,0.135,5361.111111111111
0.03,0.125,5363.888888888889
0.01,0.115,5366.666666666667
0.005,0.1,5369.444444444444
0.01,0.12,5372.222222222223
0.015,0.135,5375.0
0.02,0.14,5377.777777777777
0.015,0.12,5380.555555555556
-0.005,0.105,5383.333333333333
-0.02,0.095,5386.111111111111
-0.035,0.105,5388.888888888889
-0.025,0.12,5391.666666666667
-0.035,0.12,5394.444444444444
-0.03,0.12,5397.222222222223
-0.05,0.11,5400.0
-0.055,0.095,5402.777777777777
-0.06,0.1,5405.555555555556
-0.05,0.11,5408.333333333333
-0.05,0.125,5411.111111111111
-0.035,0.125,5413.888888888889
-0.04,0.105,5416.666666666667
-0.06,0.1,5419.444444444444
-0.06,0.085,5422.222222222223
-0.05,0.105,5425.0
-0.03,0.115,5427.777777777777
-0.035,0.115,5430.555555555556
-0.055,0.105,5433.333333333333
-0.055,0.085,5436.111111111111
-0.065,0.11,5438.888888888889
-0.055,0.105,5441.666666666667
-0.035,0.135,5444.444444444444
-0.02,0.135,5447.222222222223
-0.01,0.14,5450.0
-0.01,0.14,5452.777777777777
-0.025,0.155,5455.555555555556
0.02,0.145,5458.333333333333
0.055,0.13,5461.111111111111
0.095,0.025,5463.888888888889
0.1,-0.085,5466.666666666667
0.13,-0.195,5469.444444444444
0.19,-0.315,5472.222222222223
0.29,-0.43,5475.0
0.405,-0.57,5477.777777777777
0.51,-0.725,5480.555555555556
0.635,-0.86,5483.333333333333
0.75,-0.945,5486.111111111111
0.875,-0.965,5488.888888888889
1.0,-0.9,5491.666666666667
1.145,-0.815,5494.444444444444
1.27,-0.695,5497.222222222223
1.35,-0.545,5500.0
1.335,-0.365,5502.777777777777
1.24,-0.195,5505.555555555556
1.095,-0.06,5508.333333333333
0.915,0.03,5511.111111111111
0.7,0.05,5513.888888888889
0.51,0.045,5516.666666666667
0.335,0.0,5519.444444444444
0.195,0.025,5522.222222222223
0.105,0.045,5525.0
0.085,0.095,5527.777777777777
0.08,0.11,5530.555555555556
0.055,0.11,5533.333333333333
0.045,0.11,5536.111111111111
0.03,0.11,5538.888888888889
0.005,0.125,5541.666666666667
-0.015,0.15,5544.444444444444
-0.03,0.145,5547.222222222223
-0.055,0.14,5550.0
-0.07,0.13,5552.777777777777
-0.08,0.14,5555.555555555556
-0.075,0.155,5558.333333333333
-0.07,0.165,5561.111111111111
-0.065,0.175,5563.888888888889
-0.075,0.15,5566.666666666667
-0.11,0.145,5569.444444444444
-0.1,0.145,5572.222222222223
-0.095,0.16,5575.0
-0.085,0.17,5577.777777777777
-0.085,0.165,5580.555555555556
-0.095,0.15,5583.333333333333
-0.11,0.14,5586.111111111111
-0.11,0.155,5588.888888888889
-0.105,0.15,5591.666666666667
-0.1,0.16,5594.444444444444
-0.09,0.16,5597.222222222223
-0.1,0.15,5600.0
-0.115,0.15,5602.777777777777
-0.115,0.145,5605.555555555556
-0.115,0.155,5608.333333333333
-0.1,0.175,5611.111111111111
-0.1,0.155,5613.888888888889
-0.09,0.145,5616.666666666667
-0.11,0.125,5619.444444444444
-0.11,0.14,5622.222222222223
-0.1,0.165,5625.0
-0.1,0.17,5627.777777777777
-0.09,0.15,5630.555555555556
-0.08,0.14,5633.333333333333
-0.095,0.125,5636.111111111111
-0.09,0.13,5638.888888888889
-0.085,0.145,5641.666666666667
-0.06,0.165,5644.444444444444
-0.055,0.15,5647.222222222223
-0.065,0.145,5650.0
-0.07,0.135,5652.777777777777
-0.065,0.135,5655.555555555556
-0.06,0.14,5658.333333333333
-0.035,0.15,5661.111111111111
-0.03,0.14,5663.888888888889
-0.025,0.13,5666.666666666667
-0.04,0.115,5669.444444444444
-0.045,0.125,5672.222222222223
-0.025,0.12,5675.0
-0.005,0.135,5677.777777777777
0.01,0.115,5680.555555555556
0.005,0.1,5683.333333333333
-0.005,0.095,5686.111111111111
-0.005,0.09,5688.888888888889
0.015,0.1,5691.666666666667
0.035,0.105,5694.444444444444
0.05,0.085,5697.222222222223
0.05,0.08,5700.0
0.05,0.065,5702.777777777777
0.06,0.065,5705.555555555556
0.06,0.085,5708.333333333333
0.1,0.095,5711.111111111111
0.12,0.07,5713.888888888889
0.125,0.05,5716.666666666667
0.12,0.04,5719.444444444444
0.135,0.045,5722.222222222223
0.155,0.06,5725.0
0.19,0.055,5727.777777777777
0.19,0.04,5730.555555555556
0.195,0.025,5733.333333333333
0.195,0.015,5736.111111111111
0.195,0.01,5738.888888888889
0.22,0.01,5741.666666666667
0.245,0.025,5744.444444444444
0.25,0.015,5747.222222222223
0.25,0.005,5750.0
0.245,0.0,5752.777777777777
0.26,0.005,5755.555555555556
0.275,0.01,5758.333333333333
0.295,0.02,5761.111111111111
0.3,0.035,5763.888888888889
0.29,0.025,5766.666666666667
0.27,0.015,5769.444444444444
0.26,0.035,5772.222222222223
0.265,0.06,5775.0
0.26,0.075,5777.777777777777
0.25,0.07,5780.555555555556
0.22,0.075,5783.333333333333
0.175,0.06,5786.111111111111
0.16,0.085,5788.888888888889
0.15,0.1,5791.666666666667
0.145,0.115,5794.444444444444
0.12,0.11,5797.222222222223
0.09,0.105,5800.0
0.055,0.095,5802.777777777777
0.025,0.1,5805.555555555556
0.01,0.105,5808.333333333333
0.01,0.115,5811.111111111111
-0.005,0.115,5813.888888888889
-0.01,0.115,5816.666666666667
-0.035,0.105,5819.444444444444
-0.055,0.1,5822.222222222223
-0.045,0.115,5825.0
-0.05,0.13,5827.777777777777
-0.05,0.12,5830.555555555556
-0.07,0.125,5833.333333333333
-0.1,0.095,5836.111111111111
-0.1,0.105,5838.888888888889
-0.1,0.125,5841.666666666667
-0.08,0.125,5844.444444444444
-0.085,0.115,5847.222222222223
-0.095,0.105,5850.0
-0.11,0.085,5852.777777777777
-0.12,0.095,5855.555555555556
-0.115,0.115,5858.333333333333
-0.11,0.12,5861.111111111111
-0.115,0.115,5863.888888888889
-0.11,0.105,5866.666666666667
-0.12,0.095,5869.444444444444
-0.14,0.11,5872.222222222223
-0.125,0.115,5875.0
-0.105,0.13,5877.777777777777
-0.095,0.115,5880.555555555556
-0.105,0.11,5883.333333333333
-0.12,0.105,5886.111111111111
-0.135,0.11,5888.888888888889
-0.115,0.115,5891.666666666667
-0.095,0.13,5894.444444444444
-0.095,0.12,5897.222222222223
-0.105,0.125,5900.0
-0.11,0.1,5902.777777777777
-0.12,0.125,5905.555555555556
-0.1,0.14,5908.333333333333
-0.095,0.135,5911.111111111111
-0.085,0.14,5913.888888888889
-0.105,0.13,5916.666666666667
-0.11,0.125,5919.444444444444
-0.12,0.13,5922.222222222223
-0.1,0.145,5925.0
-0.09,0.15,5927.777777777777
-0.09,0.14,5930.555555555556
-0.095,0.13,5933.333333333333
-0.115,0.12,5936.111111111111
-0.115,0.13,5938.888888888889
-0.1,0.15,5941.666666666667
-0.1,0.16,5944.444444444444
-0.095,0.15,5947.222222222223
-0.105,0.13,5950.0
-0.115,0.12,5952.777777777777
-0.12,0.13,5955.555555555556
-0.12,0.14,5958.333333333333
-0.105,0.15,5961.111111111111
-0.1,0.15,5963.888888888889
-0.105,0.12,5966.666666666667
-0.105,0.115,5969.444444444444
-0.125,0.135,5972.222222222223
-0.11,0.145,5975.0
-0.095,0.145,5977.777777777777
-0.095,0.145,5980.555555555556
-0.11,0.12,5983.333333333333
-0.125,0.11,5986.111111111111
-0.105,0.115,5988.888888888889
-0.105,0.135,5991.666666666667
-0.09,0.145,5994.444444444444
-0.09,0.13,5997.222222222223
-0.095,0.12,6000.0
-0.115,0.11,6002.777777777777
-0.12,0.12,6005.555555555556
-0.115,0.14,6008.333333333333
-0.1,0.13,6011.111111111111
-0.105,0.135,6013.888888888889
-0.095,0.115,6016.666666666667
-0.11,0.11,6019.444444444444
-0.125,0.105,6022.222222222223
-0.11,0.125,6025.0
-0.095,0.135,6027.777777777777
-0.1,0.125,6030.555555555556
-0.105,0.11,6033.333333333333
-0.11,0.115,6036.111111111111
-0.12,0.105,6038.888888888889
-0.11,0.13,6041.666666666667
-0.115,0.135,6044.444444444444
-0.11,0.12,6047.222222222223
-0.11,0.11,6050.0
-0.13,0.1,6052.777777777777
-0.13,0.1,6055.555555555556
-0.12,0.11,6058.333333333333
-0.105,0.12,6061.111111111111
-0.115,0.12,6063.888888888889
-0.11,0.12,6066.666666666667
-0.125,0.1,6069.444444444444
-0.135,0.105,6072.222222222223
-0.14,0.115,6075.0
-0.12,0.115,6077.777777777777
-0.12,0.11,6080.555555555556
-0.13,0.105,6083.333333333333
-0.14,0.075,6086.111111111111
-0.15,0.08,6088.888888888889
-0.13,0.105,6091.666666666667
-0.125,0.11,6094.444444444444
-0.115,0.105,6097.222222222223
-0.13,0.105,6100.0
-0.14,0.09,6102.777777777777
-0.13,0.085,6105.555555555556
-0.125,0.105,6108.333333333333
-0.11,0.115,6111.111111111111
-0.125,0.12,6113.888888888889
-0.12,0.105,6116.666666666667
-0.125,0.09,6119.444444444444
-0.14,0.085,6122.222222222223
-0.125,0.1,6125.0
-0.115,0.11,6127.777777777777
-0.12,0.1,6130.555555555556
-0.12,0.085,6133.333333333333
-0.135,0.075,6136.111111111111
-0.125,0.09,6138.888888888889
-0.12,0.105,6141.666666666667
-0.105,0.12,6144.444444444444
-0.105,0.105,6147.222222222223
-0.125,0.085,6150.0
-0.135,0.07,6152.777777777777
-0.125,0.085,6155.555555555556
-0.135,0.09,6158.333333333333
-0.115,0.105,6161.111111111111
-0.11,0.095,6163.888888888889
-0.135,0.09,6166.666666666667
-0.14,0.07,6169.444444444444
-0.15,0.07,6172.222222222223
-0.13,0.09,6175.0
-0.12,0.09,6177.777777777777
-0.11,0.1,6180.555555555556
-0.125,0.085,6183.333333333333
-0.14,0.06,6186.111111111111
-0.14,0.07,6188.888888888889
-0.135,0.085,6191.666666666667
-0.12,0.085,6194.444444444444
-0.115,0.085,6197.222222222223
-0.12,0.075,6200.0
-0.135,0.075,6202.777777777777
-0.155,0.08,6205.555555555556
-0.145,0.095,6208.333333333333
-0.105,0.095,6211.111111111111
-0.11,0.09,6213.888888888889
-0.13,0.085,6216.666666666667
-0.145,0.075,6219.444444444444
-0.14,0.075,6222.222222222223
-0.13,0.085,6225.0
-0.12,0.09,6227.777777777777
-0.12,0.09,6230.555555555556
-0.125,0.08,6233.333333333333
-0.145,0.065,6236.111111111111
-0.14,0.09,6238.888888888889
-0.135,0.085,6241.666666666667
-0.115,0.09,6244.444444444444
-0.115,0.08,6247.222222222223
-0.12,0.07,6250.0
-0.135,0.055,6252.777777777777
-0.125,0.075,6255.555555555556
-0.125,0.08,6258.333333333333
-0.115,0.085,6261.111111111111
-0.115,0.09,6263.888888888889
-0.12,0.065,6266.666666666667
-0.14,0.06,6269.444444444444
-0.14,0.07,6272.222222222223
-0.13,0.09,6275.0
-0.13,0.09,6277.777777777777
-0.11,0.085,6280.555555555556
-0.125,0.07,6283.333333333333
-0.13,0.065,6286.111111111111
-0.14,0.065,6288.888888888889
-0.13,0.075,6291.666666666667
-0.11,0.08,6294.444444444444
-0.11,0.075,6297.222222222223
-0.12,0.055,6300.0
-0.14,0.055,6302.777777777777
-0.14,0.06,6305.555555555556
-0.13,0.06,6308.333333333333
-0.11,0.08,6311.111111111111
-0.105,0.07,6313.888888888889
-0.11,0.06,6316.666666666667
-0.13,0.045,6319.444444444444
-0.16,0.05,6322.222222222223
-0.135,0.065,6325.0
-0.125,0.08,6327.777777777777
-0.1,0.075,6330.555555555556
-0.115,0.04,6333.333333333333
-0.145,0.04,6336.111111111111
-0.13,0.06,6338.888888888889
-0.12,0.065,6341.666666666667
-0.1,0.075,6344.444444444444
-0.105,0.065,6347.222222222223
-0.1,0.05,6350.0
-0.12,0.04,6352.777777777777
-0.125,0.05,6355.555555555556
-0.12,0.055,6358.333333333333
-0.1,0.065,6361.111111111111
-0.09,0.07,6363.888888888889
-0.1,0.055,6366.666666666667
-0.115,0.03,6369.444444444444
-0.13,0.045,6372.222222222223
-0.12,0.04,6375.0
-0.095,0.065,6377.777777777777
-0.1,0.055,6380.555555555556
-0.115,0.035,6383.333333333333
-0.125,0.035,6386.111111111111
-0.11,0.04,6388.888888888889
-0.1,0.045,6391.666666666667
-0.085,0.065,6394.444444444444
-0.095,0.055,6397.222222222223
-0.09,0.06,6400.0
-0.095,0.06,6402.777777777777
-0.1,0.07,6405.555555555556
-0.095,0.095,6408.333333333333
-0.095,0.1,6411.111111111111
-0.095,0.095,6413.888888888889
-0.095,0.1,6416.666666666667
-0.095,0.085,6419.444444444444
-0.085,0.085,6422.222222222223
-0.06,0.09,6425.0
-0.045,0.11,6427.777777777777
-0.03,0.1,6430.555555555556
-0.02,0.075,6433.333333333333
-0.025,0.055,6436.111111111111
-0.025,0.07,6438.888888888889
-0.02,0.085,6441.666666666667
-0.01,0.09,6444.444444444444
-0.01,0.075,6447.222222222223
-0.01,0.075,6450.0
-0.045,0.055,6452.777777777777
-0.05,0.065,6455.555555555556
-0.035,0.06,6458.333333333333
-0.035,0.07,6461.111111111111
-0.035,0.065,6463.888888888889
-0.05,0.055,6466.666666666667
-0.065,0.04,6469.444444444444
-0.09,0.045,6472.222222222223
-0.075,0.06,6475.0
-0.045,0.065,6477.777777777777
-0.045,0.065,6480.555555555556
-0.055,0.045,6483.333333333333
-0.075,0.045,6486.111111111111
-0.065,0.045,6488.888888888889
-0.07,0.05,6491.666666666667
-0.06,0.055,6494.444444444444
-0.04,0.055,6497.222222222223
-0.055,0.04,6500.0
-0.055,0.04,6502.777777777777
-0.06,0.025,6505.555555555556
-0.06,0.04,6508.333333333333
-0.035,0.055,6511.111111111111
-0.04,0.05,6513.888888888889
-0.045,0.035,6516.666666666667
-0.045,0.05,6519.444444444444
-0.045,0.065,6522.222222222223
-0.03,0.09,6525.0
0.0,0.115,6527.777777777777
0.005,0.09,6530.555555555556
0.025,0.045,6533.333333333333
0.03,-0.04,6536.111111111111
0.07,-0.145,6538.888888888889
0.115,-0.25,6541.666666666667
0.19,-0.38,6544.444444444444
0.265,-0.52,6547.222222222223
0.395,-0.68,6550.0
0.52,-0.835,6552.777777777777
0.665,-0.94,6555.555555555556
0.84,-0.96,6558.333333333333
0.99,-0.925,6561.111111111111
1.135,-0.845,6563.888888888889
1.265,-0.765,6566.666666666667
1.37,-0.645,6569.444444444444
1.43,-0.485,6572.222222222223
1.4,-0.335,6575.0
1.275,-0.2,6577.777777777777
1.06,-0.09,6580.555555555556
0.815,-0.025,6583.333333333333
0.6,-0.015,6586.111111111111
0.4,-0.01,6588.888888888889
0.23,-0.03,6591.666666666667
0.105,-0.03,6594.444444444444
0.03,-0.015,6597.222222222223
0.005,-0.01,6600.0
-0.005,0.0,6602.777777777777
-0.01,0.02,6605.555555555556
0.0,0.05,6608.333333333333
-0.005,0.055,6611.111111111111
-0.015,0.06,6613.888888888889
-0.045,0.05,6616.666666666667
-0.075,0.055,6619.444444444444
-0.095,0.06,6622.222222222223
-0.1,0.075,6625.0
-0.095,0.09,6627.777777777777
-0.095,0.09,6630.555555555556
-0.095,0.07,6633.333333333333
-0.125,0.06,6636.111111111111
-0.125,0.08,6638.888888888889
-0.125,0.08,6641.666666666667
-0.11,0.095,6644.444444444444
-0.105,0.105,6647.222222222223
-0.115,0.095,6650.0
-0.135,0.07,6652.777777777777
-0.135,0.08,6655.555555555556
-0.125,0.1,6658.333333333333
-0.11,0.11,6661.111111111111
-0.115,0.08,6663.888888888889
-0.115,0.08,6666.666666666667
-0.135,0.065,6669.444444444444
-0.14,0.085,6672.222222222223
-0.13,0.095,6675.0
-0.115,0.115,6677.777777777777
-0.125,0.105,6680.555555555556
-0.115,0.08,6683.333333333333
-0.135,0.08,6686.111111111111
-0.125,0.085,6688.888888888889
-0.12,0.095,6691.666666666667
-0.105,0.105,6694.444444444444
-0.105,0.095,6697.222222222223
-0.11,0.09,6700.0
-0.105,0.075,6702.777777777777
-0.11,0.08,6705.555555555556
-0.095,0.095,6708.333333333333
-0.085,0.105,6711.111111111111
-0.085,0.1,6713.888888888889
-0.08,0.08,6716.666666666667
-0.08,0.06,6719.444444444444
-0.09,0.075,6722.222222222223
-0.075,0.08,6725.0
-0.06,0.09,6727.777777777777
-0.05,0.08,6730.555555555556
-0.05,0.055,6733.333333333333
-0.06,0.05,6736.111111111111
-0.075,0.06,6738.888888888889
-0.045,0.06,6741.666666666667
-0.05,0.055,6744.444444444444
-0.035,0.06,6747.222222222223
-0.045,0.04,6750.0
-0.045,0.03,6752.777777777777
-0.045,0.04,6755.555555555556
-0.02,0.045,6758.333333333333
0.0,0.06,6761.111111111111
0.005,0.04,6763.888888888889
0.01,0.02,6766.666666666667
0.005,0.01,6769.444444444444
0.005,0.005,6772.222222222223
0.03,0.01,6775.0
0.055,0.025,6777.777777777777
0.075,0.01,6780.555555555556
0.07,0.0,6783.333333333333
0.075,-0.02,6786.111111111111
0.08,0.0,6788.888888888889
0.1,-0.005,6791.666666666667
0.13,0.005,6794.444444444444
0.14,-0.01,6797.222222222223
0.14,-0.015,6800.0
0.14,-0.04,6802.777777777777
0.155,-0.03,6805.555555555556
0.175,-0.025,6808.333333333333
0.2,-0.025,6811.111111111111
0.21,-0.035,6813.888888888889
0.205,-0.045,6816.666666666667
0.195,-0.06,6819.444444444444
0.19,-0.045,6822.222222222223
0.21,-0.04,6825.0
0.24,-0.025,6827.777777777777
0.255,-0.03,6830.555555555556
0.245,-0.03,6833.333333333333
0.245,-0.04,6836.111111111111
0.23,-0.02,6838.888888888889
0.24,-0.005,6841.666666666667
0.25,0.01,6844.444444444444
0.24,0.01,6847.222222222223
0.225,0.01,6850.0
0.195,0.0,6852.777777777777
0.175,0.01,6855.555555555556
0.16,0.035,6858.333333333333
0.14,0.05,6861.111111111111
0.13,0.05,6863.888888888889
0.115,0.055,6866.666666666667
0.08,0.045,6869.444444444444
0.055,0.06,6872.222222222223
0.04,0.065,6875.0
0.045,0.09,6877.777777777777
0.03,0.075,6880.555555555556
0.005,0.07,6883.333333333333
-0.02,0.055,6886.111111111111
-0.045,0.075,6888.888888888889
-0.045,0.075,6891.666666666667
-0.045,0.095,6894.444444444444
-0.06,0.09,6897.222222222223
-0.08,0.075,6900.0
-0.085,0.075,6902.777777777777
-0.09,0.075,6905.555555555556
-0.08,0.09,6908.333333333333
-0.09,0.1,6911.111111111111
-0.09,0.105,6913.888888888889
-0.105,0.085,6916.666666666667
-0.105,0.075,6919.444444444444
-0.115,0.075,6922.222222222223
-0.115,0.09,6925.0
-0.1,0.105,6927.777777777777
-0.095,0.09,6930.555555555556
-0.1,0.09,6933.333333333333
-0.12,0.08,6936.111111111111
-0.12,0.08,6938.888888888889
-0.12,0.095,6941.666666666667
-0.11,0.1,6944.444444444444
-0.1,0.105,6947.222222222223
-0.115,0.09,6950.0
-0.13,0.075,6952.777777777777
-0.13,0.085,6955.555555555556
-0.125,0.105,6958.333333333333
-0.11,0.125,6961.111111111111
-0.12,0.12,6963.888888888889
-0.12,0.095,6966.666666666667
-0.12,0.1,6969.444444444444
-0.125,0.11,6972.222222222223
-0.115,0.115,6975.0
-0.11,0.12,6977.777777777777
-0.095,0.12,6980.555555555556
-0.1,0.1,6983.333333333333
-0.115,0.095,6986.111111111111
-0.135,0.105,6988.888888888889
-0.125,0.11,6991.666666666667
-0.095,0.14,6994.444444444444
-0.1,0.125,6997.222222222223
-0.1,0.115,7000.0
-0.12,0.105,7002.777777777777
-0.12,0.115,7005.555555555556
-0.11,0.115,7008.333333333333
-0.08,0.13,7011.111111111111
-0.085,0.125,7013.888888888889
-0.09,0.1,7016.666666666667
-0.105,0.09,7019.444444444444
-0.12,0.1,7022.222222222223
-0.1,0.12,7025.0
-0.095,0.13,7027.777777777777
-0.085,0.135,7030.555555555556
-0.1,0.115,7033.333333333333
-0.105,0.1,7036.111111111111
-0.12,0.11,7038.888888888889
-0.115,0.12,7041.666666666667
-0.11,0.125,7044.444444444444
-0.11,0.12,7047.222222222223
-0.11,0.105,7050.0
-0.12,0.095,7052.777777777777
-0.125,0.1,7055.555555555556
-0.115,0.11,7058.333333333333
-0.11,0.125,7061.111111111111
-0.11,0.13,7063.888888888889
-0.13,0.1,7066.666666666667
-0.12,0.105,7069.444444444444
-0.135,0.11,7072.222222222223
-0.115,0.115,7075.0
-0.11,0.12,7077.777777777777
-0.105,0.125,7080.555555555556
-0.105,0.1,7083.333333333333
-0.135,0.1,7086.111111111111
-0.145,0.105,7088.888888888889
-0.12,0.125,7091.666666666667
-0.11,0.12,7094.444444444444
-0.115,0.115,7097.222222222223
-0.13,0.1,7100.0
-0.15,0.1,7102.777777777777
-0.14,0.105,7105.555555555556
-0.12,0.11,7108.333333333333
-0.12,0.12,7111.111111111111
-0.1,0.13,7113.888888888889
-0.12,0.095,7116.666666666667
-0.13,0.105,7119.444444444444
-0.135,0.12,7122.222222222223
-0.125,0.115,7125.0
-0.11,0.125,7127.777777777777
-0.11,0.12,7130.555555555556
-0.13,0.11,7133.333333333333
-0.135,0.1,7136.111111111111
-0.13,0.105,7138.888888888889
-0.12,0.115,7141.666666666667
-0.11,0.13,7144.444444444444
-0.1,0.125,7147.222222222223
-0.11,0.11,7150.0
-0.13,0.095,7152.777777777777
-0.135,0.11,7155.555555555556
-0.125,0.125,7158.333333333333
-0.12,0.125,7161.111111111111
-0.11,0.125,7163.888888888889
-0.11,0.11,7166.666666666667
-0.125,0.105,7169.444444444444
-0.135,0.115,7172.222222222223
-0.125,0.12,7175.0
-0.105,0.135,7177.777777777777
-0.11,0.135,7180.555555555556
-0.11,0.13,7183.333333333333
-0.135,0.115,7186.111111111111
-0.125,0.12,7188.888888888889
-0.125,0.135,7191.666666666667
-0.12,0.15,7194.444444444444
-0.12,0.14,7197.222222222223
-0.11,0.115,7200.0
-0.125,0.11,7202.777777777777
-0.145,0.125,7205.555555555556
-0.105,0.135,7208.333333333333
-0.105,0.125,7211.111111111111
-0.115,0.14,7213.888888888889
-0.12,0.13,7216.666666666667
-0.125,0.11,7219.444444444444
-0.12,0.115,7222.222222222223
-0.11,0.135,7225.0
-0.11,0.15,7227.777777777777
-0.095,0.135,7230.555555555556
-0.11,0.13,7233.333333333333
-0.125,0.105,7236.111111111111
-0.125,0.115,7238.888888888889
-0.115,0.13,7241.666666666667
-0.115,0.14,7244.444444444444
-0.1,0.13,7247.222222222223
-0.1,0.12,7250.0
-0.13,0.11,7252.777777777777
-0.14,0.12,7255.555555555556
-0.125,0.13,7258.333333333333
-0.105,0.145,7261.111111111111
-0.105,0.13,7263.888888888889
-0.1,0.105,7266.666666666667
-0.105,0.105,7269.444444444444
-0.115,0.11,7272.222222222223
-0.11,0.135,7275.0
-0.1,0.14,7277.777777777777
-0.105,0.13,7280.555555555556
-0.11,0.125,7283.333333333333
-0.125,0.11,7286.111111111111
-0.12,0.12,7288.888888888889
-0.105,0.135,7291.666666666667
-0.1,0.145,7294.444444444444
-0.1,0.13,7297.222222222223
-0.1,0.125,7300.0
-0.12,0.11,7302.777777777777
-0.135,0.12,7305.555555555556
-0.11,0.135,7308.333333333333
-0.11,0.14,7311.111111111111
-0.1,0.125,7313.888888888889
-0.115,0.125,7316.666666666667
-0.11,0.12,7319.444444444444
-0.115,0.12,7322.222222222223
-0.105,0.135,7325.0
-0.08,0.15,7327.777777777777
-0.08,0.13,7330.555555555556
-0.1,0.125,7333.333333333333
-0.1,0.105,7336.111111111111
-0.12,0.12,7338.888888888889
-0.095,0.125,7341.666666666667
-0.085,0.14,7344.444444444444
-0.09,0.135,7347.222222222223
-0.095,0.11,7350.0
-0.11,0.105,7352.777777777777
-0.1,0.115,7355.555555555556
-0.11,0.13,7358.333333333333
-0.09,0.14,7361.111111111111
-0.09,0.135,7363.888888888889
-0.095,0.12,7366.666666666667
-0.105,0.105,7369.444444444444
-0.11,0.125,7372.222222222223
-0.095,0.135,7375.0
-0.095,0.15,7377.777777777777
-0.095,0.14,7380.555555555556
-0.09,0.12,7383.333333333333
-0.105,0.105,7386.111111111111
-0.105,0.12,7388.888888888889
-0.095,0.13,7391.666666666667
-0.075,0.16,7394.444444444444
-0.08,0.125,7397.222222222223
-0.08,0.125,7400.0
-0.105,0.125,7402.777777777777
-0.095,0.13,7405.555555555556
-0.08,0.13,7408.333333333333
-0.085,0.15,7411.111111111111
-0.075,0.14,7413.888888888889
-0.07,0.125,7416.666666666667
-0.09,0.115,7419.444444444444
-0.09,0.13,7422.222222222223
-0.075,0.135,7425.0
-0.065,0.155,7427.777777777777
-0.065,0.145,7430.555555555556
-0.08,0.135,7433.333333333333
-0.09,0.125,7436.111111111111
-0.08,0.12,7438.888888888889
-0.075,0.135,7441.666666666667
-0.065,0.16,7444.444444444444
-0.055,0.145,7447.222222222223
-0.065,0.12,7450.0
-0.08,0.12,7452.777777777777
-0.07,0.12,7455.555555555556
-0.08,0.135,7458.333333333333
-0.05,0.145,7461.111111111111
-0.055,0.125,7463.888888888889
-0.06,0.11,7466.666666666667
-0.065,0.1,7469.444444444444
-0.08,0.12,7472.222222222223
-0.065,0.125,7475.0
-0.04,0.135,7477.777777777777
-0.045,0.13,7480.555555555556
-0.045,0.135,7483.333333333333
-0.065,0.12,7486.111111111111
-0.06,0.14,7488.888888888889
-0.06,0.155,7491.666666666667
-0.055,0.17,7494.444444444444
-0.06,0.17,7497.222222222223
-0.06,0.155,7500.0
-0.065,0.15,7502.777777777777
-0.06,0.155,7505.555555555556
-0.05,0.165,7508.333333333333
-0.02,0.175,7511.111111111111
0.005,0.15,7513.888888888889
-0.005,0.13,7516.666666666667
-0.01,0.13,7519.444444444444
-0.02,0.14,7522.222222222223
-0.005,0.14,7525.0
-0.01,0.15,7527.777777777777
0.0,0.145,7530.555555555556
-0.005,0.125,7533.333333333333
-0.025,0.115,7536.111111111111
-0.04,0.12,7538.888888888889
-0.03,0.135,7541.666666666667
-0.025,0.14,7544.444444444444
-0.025,0.135,7547.222222222223
-0.04,0.125,7550.0
-0.065,0.11,7552.777777777777
-0.08,0.12,7555.555555555556
-0.09,0.145,7558.333333333333
-0.06,0.135,7561.111111111111
-0.06,0.145,7563.888888888889
-0.06,0.13,7566.666666666667
-0.07,0.12,7569.444444444444
-0.07,0.12,7572.222222222223
-0.065,0.125,7575.0
-0.04,0.15,7577.777777777777
-0.035,0.13,7580.555555555556
-0.04,0.115,7583.333333333333
-0.05,0.1,7586.111111111111
-0.065,0.125,7588.888888888889
-0.055,0.15,7591.666666666667
-0.03,0.14,7594.444444444444
-0.025,0.14,7597.222222222223
-0.025,0.13,7600.0
-0.04,0.125,7602.777777777777
-0.03,0.155,7605.555555555556
-0.02,0.185,7608.333333333333
0.0,0.2,7611.111111111111
0.015,0.185,7613.888888888889
0.035,0.15,7616.666666666667
0.035,0.09,7619.444444444444
0.065,0.0,7622.222222222223
0.115,-0.085,7625.0
0.165,-0.185,7627.777777777777
0.25,-0.305,7630.555555555556
0.335,-0.46,7633.333333333333
0.43,-0.605,7636.111111111111
0.545,-0.745,7638.888888888889
0.67,-0.85,7641.666666666667
0.82,-0.9,7644.444444444444
0.955,-0.905,7647.222222222223
1.05,-0.855,7650.0
1.13,-0.785,7652.777777777777
1.24,-0.665,7655.555555555556
1.325,-0.485,7658.333333333333
1.315,-0.305,7661.111111111111
1.21,-0.155,7663.888888888889
1.05,-0.06,7666.666666666667
0.85,0.005,7669.444444444444
0.65,0.035,7672.222222222223
0.475,0.05,7675.0
0.34,0.045,7677.777777777777
0.215,0.05,7680.555555555556
0.125,0.07,7683.333333333333
0.055,0.075,7686.111111111111
0.045,0.11,7688.888888888889
0.05,0.135,7691.666666666667
0.05,0.16,7694.444444444444
0.04,0.16,7697.222222222223
0.015,0.15,7700.0
-0.03,0.15,7702.777777777777
-0.04,0.15,7705.555555555556
-0.055,0.175,7708.333333333333
-0.06,0.175,7711.111111111111
-0.07,0.18,7713.888888888889
-0.1,0.165,7716.666666666667
-0.1,0.145,7719.444444444444
-0.13,0.155,7722.222222222223
-0.135,0.175,7725.0
-0.11,0.19,7727.777777777777
-0.125,0.18,7730.555555555556
-0.135,0.17,7733.333333333333
-0.145,0.16,7736.111111111111
-0.17,0.165,7738.888888888889
-0.16,0.18,7741.666666666667
-0.14,0.18,7744.444444444444
-0.13,0.18,7747.222222222223
-0.14,0.175,7750.0
-0.15,0.165,7752.777777777777
-0.155,0.17,7755.555555555556
-0.135,0.185,7758.333333333333
-0.13,0.205,7761.111111111111
-0.14,0.205,7763.888888888889
-0.14,0.17,7766.666666666667
-0.14,0.16,7769.444444444444
-0.135,0.18,7772.222222222223
-0.125,0.19,7775.0
-0.115,0.205,7777.777777777777
-0.1,0.205,7780.555555555556
-0.11,0.18,7783.333333333333
-0.135,0.165,7786.111111111111
-0.125,0.175,7788.888888888889
-0.105,0.185,7791.666666666667
-0.11,0.195,7794.444444444444
-0.1,0.185,7797.222222222223
-0.095,0.175,7800.0
-0.105,0.16,7802.777777777777
-0.1,0.17,7805.555555555556
-0.095,0.18,7808.333333333333
-0.07,0.185,7811.111111111111
-0.055,0.17,7813.888888888889
-0.07,0.155,7816.666666666667
-0.095,0.155,7819.444444444444
-0.075,0.145,7822.222222222223
-0.06,0.16,7825.0
-0.05,0.165,7827.777777777777
-0.04,0.18,7830.555555555556
-0.04,0.15,7833.333333333333
-0.055,0.135,7836.111111111111
-0.035,0.13,7838.888888888889
-0.035,0.16,7841.666666666667
0.0,0.16,7844.444444444444
0.02,0.155,7847.222222222223
0.02,0.135,7850.0
0.01,0.125,7852.777777777777
0.01,0.125,7855.555555555556
0.035,0.14,7858.333333333333
0.055,0.14,7861.111111111111
0.065,0.13,7863.888888888889
0.06,0.11,7866.666666666667
0.07,0.095,7869.444444444444
0.065,0.09,7872.222222222223
0.09,0.1,7875.0
0.12,0.1,7877.777777777777
0.13,0.105,7880.555555555556
0.125,0.08,7883.333333333333
0.125,0.055,7886.111111111111
0.125,0.06,7888.888888888889
0.135,0.07,7891.666666666667
0.16,0.075,7894.444444444444
0.185,0.06,7897.222222222223
0.185,0.045,7900.0
0.175,0.02,7902.777777777777
0.185,0.035,7905.555555555556
0.195,0.055,7908.333333333333
0.24,0.065,7911.111111111111
0.255,0.06,7913.888888888889
0.255,0.045,7916.666666666667
0.22,0.04,7919.444444444444
0.23,0.035,7922.222222222223
0.23,0.07,7925.0
0.25,0.09,7927.777777777777
0.245,0.075,7930.555555555556
0.225,0.07,7933.333333333333
0.21,0.065,7936.111111111111
0.19,0.075,7938.888888888889
0.195,0.095,7941.666666666667
0.18,0.105,7944.444444444444
0.17,0.12,7947.222222222223
0.14,0.115,7950.0
0.105,0.11,7952.777777777777
0.085,0.115,7955.555555555556
0.075,0.125,7958.333333333333
0.065,0.14,7961.111111111111
0.045,0.135,7963.888888888889
0.03,0.13,7966.666666666667
-0.01,0.125,7969.444444444444
-0.035,0.135,7972.222222222223
-0.04,0.145,7975.0
-0.04,0.155,7977.777777777777
-0.04,0.15,7980.555555555556
-0.06,0.14,7983.333333333333
-0.085,0.135,7986.111111111111
-0.095,0.14,7988.888888888889
-0.1,0.14,7991.666666666667
-0.1,0.155,7994.444444444444
-0.1,0.155,7997.222222222223
-0.115,0.14,8000.0
-0.135,0.135,8002.777777777777
-0.145,0.14,8005.555555555556
-0.14,0.15,8008.333333333333
-0.14,0.16,8011.111111111111
-0.135,0.15,8013.888888888889
-0.14,0.13,8016.666666666667
-0.145,0.125,8019.444444444444
-0.16,0.13,8022.222222222223
-0.16,0.14,8025.0
-0.145,0.15,8027.777777777777
-0.14,0.14,8030.555555555556
-0.155,0.13,8033.333333333333
-0.165,0.12,8036.111111111111
-0.17,0.125,8038.888888888889
-0.165,0.145,8041.666666666667
-0.145,0.15,8044.444444444444
-0.16,0.14,8047.222222222223
-0.155,0.125,8050.0
-0.165,0.12,8052.777777777777
-0.185,0.12,8055.555555555556
-0.17,0.145,8058.333333333333
-0.16,0.145,8061.111111111111
-0.14,0.15,8063.888888888889
-0.15,0.145,8066.666666666667
-0.165,0.13,8069.444444444444
-0.175,0.14,8072.222222222223
-0.175,0.155,8075.0
-0.165,0.165,8077.777777777777
-0.145,0.15,8080.555555555556
-0.155,0.14,8083.333333333333
-0.165,0.135,8086.111111111111
-0.185,0.145,8088.888888888889
-0.17,0.165,8091.666666666667
-0.155,0.185,8094.444444444444
-0.145,0.17,8097.222222222223
-0.155,0.165,8100.0
-0.17,0.15,8102.777777777777
-0.165,0.155,8105.555555555556
-0.16,0.165,8108.333333333333
-0.145,0.175,8111.111111111111
-0.135,0.165,8113.888888888889
-0.145,0.155,8116.666666666667
-0.165,0.135,8119.444444444444
-0.17,0.15,8122.222222222223
-0.15,0.175,8125.0
-0.14,0.185,8127.777777777777
-0.125,0.175,8130.555555555556
-0.14,0.155,8133.333333333333
-0.155,0.15,8136.111111111111
-0.155,0.165,8138.888888888889
-0.14,0.165,8141.666666666667
-0.13,0.18,8144.444444444444
-0.125,0.17,8147.222222222223
-0.135,0.15,8150.0
-0.16,0.135,8152.777777777777
-0.155,0.155,8155.555555555556
-0.155,0.165,8158.333333333333
-0.135,0.17,8161.111111111111
-0.135,0.175,8163.888888888889
-0.13,0.15,8166.666666666667
-0.15,0.145,8169.444444444444
-0.16,0.165,8172.222222222223
-0.155,0.16,8175.0
-0.145,0.175,8177.777777777777
-0.125,0.175,8180.555555555556
-0.135,0.14,8183.333333333333
-0.16,0.145,8186.111111111111
-0.16,0.15,8188.888888888889
-0.145,0.16,8191.666666666667
-0.135,0.165,8194.444444444445
-0.14,0.165,8197.222222222223
-0.15,0.145,8200.0
-0.165,0.135,8202.777777777777
-0.165,0.13,8205.555555555555
-0.175,0.155,8208.333333333334
-0.145,0.16,8211.111111111111
-0.15,0.155,8213.888888888889
-0.145,0.14,8216.666666666666
-0.175,0.125,8219.444444444445
-0.17,0.145,8222.222222222223
-0.16,0.135,8225.0
-0.15,0.155,8227.777777777777
-0.14,0.14,8230.555555555555
-0.16,0.14,8233.333333333334
-0.18,0.13,8236.111111111111
-0.175,0.135,8238.888888888889
-0.165,0.155,8241.666666666666
-0.15,0.14,8244.444444444445
-0.145,0.145,8247.222222222223
-0.165,0.13,8250.0
-0.175,0.125,8252.777777777777
-0.18,0.13,8255.555555555555
-0.175,0.135,8258.333333333334
-0.16,0.145,8261.111111111111
-0.155,0.135,8263.888888888889
-0.18,0.12,8266.666666666666
-0.19,0.125,8269.444444444445
-0.19,0.12,8272.222222222223
-0.175,0.15,8275.0
-0.16,0.14,8277.777777777777
-0.155,0.12,8280.555555555555
-0.165,0.11,8283.333333333334
-0.18,0.125,8286.111111111111
-0.185,0.115,8288.888888888889
-0.175,0.135,8291.666666666666
-0.165,0.135,8294.444444444445
-0.16,0.135,8297.222222222223
-0.17,0.11,8300.0
-0.18,0.1,8302.777777777777
-0.19,0.115,8305.555555555555
-0.175,0.125,8308.333333333334
-0.175,0.125,8311.111111111111
-0.155,0.13,8313.888888888889
-0.175,0.11,8316.666666666666
-0.185,0.11,8319.444444444445
-0.19,0.105,8322.222222222223
-0.16,0.12,8325.0
-0.15,0.14,8327.777777777777
-0.16,0.13,8330.555555555555
-0.165,0.11,8333.333333333334
-0.17,0.105,8336.111111111111
-0.175,0.095,8338.888888888889
-0.17,0.115,8341.666666666666
-0.165,0.135,8344.444444444445
-0.155,0.13,8347.222222222223
-0.175,0.125,8350.0
-0.18,0.1,8352.777777777777
-0.185,0.11,8355.555555555555
-0.155,0.11,8358.333333333334
-0.145,0.125,8361.111111111111
-0.145,0.14,8363.888888888889
-0.15,0.12,8366.666666666666
-0.165,0.1,8369.444444444445
-0.175,0.115,8372.222222222223
-0.155,0.13,8375.0
-0.15,0.14,8377.777777777777
-0.145,0.135,8380.555555555555
-0.14,0.11,8383.333333333334
-0.155,0.11,8386.111111111111
-0.16,0.105,8388.888888888889
-0.14,0.115,8391.666666666666
-0.135,0.125,8394.444444444445
-0.135,0.13,8397.222222222223
-0.14,0.105,8400.0
-0.17,0.1,8402.777777777777
-0.15,0.105,8405.555555555555
-0.14,0.12,8408.333333333334
-0.135,0.125,8411.111111111111
-0.13,0.125,8413.888888888889
-0.13,0.1,8416.666666666666
-0.135,0.105,8419.444444444445
-0.16,0.11,8422.222222222223
-0.15,0.115,8425.0
-0.125,0.125,8427.777777777777
-0.125,0.13,8430.555555555555
-0.135,0.115,8433.333333333334
-0.15,0.095,8436.111111111111
-0.15,0.11,8438.888888888889
-0.135,0.11,8441.666666666666
-0.12,0.135,8444.444444444445
-0.125,0.12,8447.222222222223
-0.12,0.105,8450.0
-0.155,0.095,8452.777777777777
-0.145,0.1,8455.555555555555
-0.145,0.115,8458.333333333334
-0.125,0.13,8461.111111111111
-0.135,0.12,8463.888888888889
-0.13,0.11,8466.666666666666
-0.15,0.1,8469.444444444445
-0.145,0.11,8472.222222222223
-0.135,0.115,8475.0
-0.12,0.135,8477.777777777777
-0.125,0.135,8480.555555555555
-0.12,0.11,8483.333333333334
-0.145,0.105,8486.111111111111
-0.145,0.1,8488.888888888889
-0.125,0.115,8491.666666666666
-0.115,0.125,8494.444444444445
-0.11,0.12,8497.222222222223
-0.13,0.1,8500.0
-0.14,0.1,8502.777777777777
-0.145,0.1,8505.555555555555
-0.145,0.11,8508.333333333334
-0.125,0.12,8511.111111111111
-0.12,0.115,8513.888888888889
-0.125,0.115,8516.666666666666
-0.135,0.095,8519.444444444445
-0.135,0.105,8522.222222222223
-0.125,0.12,8525.0
-0.12,0.115,8527.777777777777
-0.105,0.115,8530.555555555555
-0.115,0.1,8533.333333333334
-0.125,0.09,8536.111111111111
-0.135,0.1,8538.888888888889
-0.135,0.11,8541.666666666666
-0.105,0.115,8544.444444444445
-0.1,0.11,8547.222222222223
-0.115,0.09,8550.0
-0.125,0.08,8552.777777777777
-0.13,0.095,8555.555555555555
-0.13,0.11,8558.333333333334
-0.12,0.11,8561.111111111111
-0.11,0.105,8563.888888888889
-0.125,0.09,8566.666666666666
-0.12,0.075,8569.444444444445
-0.12,0.085,8572.222222222223
-0.11,0.09,8575.0
-0.105,0.105,8577.777777777777
-0.1,0.1,8580.555555555555
-0.095,0.075,8583.333333333334
-0.11,0.08,8586.111111111111
-0.105,0.08,8588.888888888889
-0.12,0.095,8591.666666666666
-0.095,0.095,8594.444444444445
-0.085,0.09,8597.222222222223
-0.095,0.075,8600.0
-0.1,0.075,8602.777777777777
-0.11,0.075,8605.555555555555
-0.1,0.1,8608.333333333334
-0.095,0.135,8611.111111111111
-0.095,0.13,8613.888888888889
-0.1,0.125,8616.666666666666
-0.12,0.11,8619.444444444445
-0.13,0.115,8622.222222222223
-0.135,0.13,8625.0
-0.095,0.145,8627.777777777777
-0.1,0.135,8630.555555555555
-0.085,0.12,8633.333333333334
-0.085,0.105,8636.111111111111
-0.075,0.11,8638.888888888889
-0.06,0.125,8641.666666666666
-0.03,0.115,8644.444444444445
-0.025,0.1,8647.222222222223
-0.025,0.09,8650.0
-0.045,0.085,8652.777777777777
-0.045,0.095,8655.555555555555
-0.035,0.1,8658.333333333334
-0.015,0.11,8661.111111111111
-0.025,0.11,8663.888888888889
-0.035,0.11,8666.666666666666
-0.045,0.085,8669.444444444445
-0.065,0.09,8672.222222222223
-0.06,0.105,8675.0
-0.055,0.1,8677.777777777777
-0.055,0.11,8680.555555555555
-0.07,0.09,8683.333333333334
-0.095,0.085,8686.111111111111
-0.095,0.095,8688.888888888889
-0.09,0.105,8691.666666666666
-0.09,0.12,8694.444444444445
-0.075,0.115,8697.222222222223
-0.08,0.09,8700.0
-0.095,0.08,8702.777777777777
-0.115,0.08,8705.555555555555
-0.11,0.09,8708.333333333334
-0.075,0.105,8711.111111111111
-0.075,0.1,8713.888888888889
-0.08,0.1,8716.666666666666
-0.105,0.08,8719.444444444445
-0.105,0.08,8722.222222222223
-0.085,0.09,8725.0
-0.08,0.1,8727.777777777777
-0.075,0.095,8730.555555555555
-0.08,0.09,8733.333333333334
-0.095,0.07,8736.111111111111
-0.085,0.095,8738.888888888889
-0.055,0.1,8741.666666666666
-0.05,0.13,8744.444444444445
-0.03,0.155,8747.222222222223
-0.03,0.155,8750.0
-0.04,0.145,8752.777777777777
-0.03,0.135,8755.555555555555
0.005,0.08,8758.333333333334
0.035,0.02,8761.111111111111
0.08,-0.095,8763.888888888889
0.1,-0.225,8766.666666666666
0.125,-0.36,8769.444444444445
0.21,-0.49,8772.222222222223
0.33,-0.63,8775.0
0.455,-0.77,8777.777777777777
0.575,-0.89,8780.555555555555
0.695,-0.97,8783.333333333334
0.815,-0.98,8786.111111111111
0.91,-0.935,8788.888888888889
1.02,-0.855,8791.666666666666
1.15,-0.745,8794.444444444445
1.245,-0.62,8797.222222222223
1.275,-0.465,8800.0
1.205,-0.31,8802.777777777777
1.08,-0.18,8805.555555555555
0.93,-0.065,8808.333333333334
0.75,0.025,8811.111111111111
0.565,0.04,8813.888888888889
0.405,0.02,8816.666666666666
0.25,-0.005,8819.444444444445
0.125,-0.02,8822.222222222223
0.05,0.01,8825.0
0.01,0.04,8827.777777777777
0.0,0.07,8830.555555555555
0.01,0.07,8833.333333333334
-0.015,0.085,8836.111111111111
-0.02,0.08,8838.888888888889
-0.03,0.1,8841.666666666666
-0.04,0.115,8844.444444444445
-0.06,0.11,8847.222222222223
-0.085,0.095,8850.0
-0.105,0.105,8852.777777777777
-0.125,0.105,8855.555555555555
-0.125,0.12,8858.333333333334
-0.115,0.125,8861.111111111111
-0.115,0.13,8863.888888888889
-0.135,0.105,8866.666666666666
-0.16,0.1,8869.444444444445
-0.155,0.1,8872.222222222223
-0.15,0.125,8875.0
-0.13,0.135,8877.777777777777
-0.14,0.13,8880.555555555555
-0.16,0.12,8883.333333333334
-0.165,0.105,8886.111111111111
-0.17,0.125,8888.888888888889
-0.16,0.13,8891.666666666666
-0.15,0.145,8894.444444444445
-0.145,0.14,8897.222222222223
-0.155,0.12,8900.0
-0.165,0.11,8902.777777777777
-0.18,0.13,8905.555555555555
-0.165,0.13,8908.333333333334
-0.15,0.155,8911.111111111111
-0.15,0.14,8913.888888888889
-0.15,0.13,8916.666666666666
-0.165,0.125,8919.444444444445
-0.17,0.13,8922.222222222223
-0.155,0.135,8925.0
-0.135,0.135,8927.777777777777
-0.145,0.13,8930.555555555555
-0.145,0.12,8933.333333333334
-0.16,0.105,8936.111111111111
-0.16,0.11,8938.888888888889
-0.16,0.115,8941.666666666666
-0.14,0.125,8944.444444444445
-0.13,0.115,8947.222222222223
-0.13,0.105,8950.0
-0.14,0.085,8952.777777777777
-0.15,0.09,8955.555555555555
-0.13,0.1,8958.333333333334
-0.125,0.125,8961.111111111111
-0.105,0.11,8963.888888888889
-0.12,0.085,8966.666666666666
-0.135,0.07,8969.444444444445
-0.15,0.085,8972.222222222223
-0.12,0.1,8975.0
-0.105,0.1,8977.777777777777
-0.11,0.085,8980.555555555555
-0.085,0.075,8983.333333333334
-0.105,0.065,8986.111111111111
-0.11,0.07,8988.888888888889
-0.085,0.07,8991.666666666666
-0.07,0.08,8994.444444444445
-0.06,0.08,8997.222222222223
-0.07,0.065,9000.0
-0.07,0.045,9002.777777777777
-0.09,0.05,9005.555555555555
-0.06,0.045,9008.333333333334
-0.045,0.055,9011.111111111111
-0.03,0.04,9013.888888888889
-0.015,0.03,9016.666666666666
-0.035,0.02,9019.444444444445
-0.02,0.015,9022.222222222223
-0.005,0.015,9025.0
0.01,0.035,9027.777777777777
0.03,0.015,9030.555555555555
0.035,-0.005,9033.333333333334
0.035,-0.015,9036.111111111111
0.04,-0.01,9038.888888888889
0.055,-0.01,9041.666666666666
0.08,-0.005,9044.444444444445
0.09,-0.015,9047.222222222223
0.105,-0.03,9050.0
0.115,-0.055,9052.777777777777
0.095,-0.05,9055.555555555555
0.115,-0.04,9058.333333333334
0.145,-0.035,9061.111111111111
0.165,-0.04,9063.888888888889
0.165,-0.065,9066.666666666666
0.155,-0.065,9069.444444444445
0.155,-0.06,9072.222222222223
0.165,-0.045,9075.0
0.18,-0.03,9077.777777777777
0.21,-0.035,9080.555555555555
0.19,-0.04,9083.333333333334
0.18,-0.04,9086.111111111111
0.185,-0.025,9088.888888888889
0.17,0.0,9091.666666666666
0.19,0.0,9094.444444444445
0.175,0.005,9097.222222222223
0.17,0.01,9100.0
0.15,-0.005,9102.777777777777
0.125,0.01,9105.555555555555
0.105,0.025,9108.333333333334
0.105,0.045,9111.111111111111
0.085,0.06,9113.888888888889
0.06,0.05,9116.666666666666
0.025,0.045,9119.444444444445
0.015,0.05,9122.222222222223
-0.015,0.055,9125.0
-0.01,0.075,9127.777777777777
-0.01,0.08,9130.555555555555
-0.04,0.065,9133.333333333334
-0.075,0.06,9136.111111111111
-0.1,0.07,9138.888888888889
-0.085,0.08,9141.666666666666
-0.09,0.085,9144.444444444445
-0.095,0.095,9147.222222222223
-0.11,0.075,9150.0
-0.145,0.055,9152.777777777777
-0.145,0.065,9155.555555555555
-0.16,0.075,9158.333333333334
-0.15,0.095,9161.111111111111
-0.165,0.085,9163.888888888889
-0.16,0.07,9166.666666666666
-0.18,0.07,9169.444444444445
-0.195,0.075,9172.222222222223
-0.185,0.08,9175.0
-0.175,0.095,9177.777777777777
-0.18,0.105,9180.555555555555
-0.19,0.08,9183.333333333334
-0.195,0.065,9186.111111111111
-0.215,0.065,9188.888888888889
-0.2,0.085,9191.666666666666
-0.205,0.095,9194.444444444445
-0.185,0.08,9197.222222222223
-0.195,0.08,9200.0
-0.215,0.06,9202.777777777777
-0.215,0.07,9205.555555555555
-0.205,0.09,9208.333333333334
-0.21,0.1,9211.111111111111
-0.195,0.09,9213.888888888889
-0.2,0.07,9216.666666666666
-0.225,0.065,9219.444444444445
-0.21,0.07,9222.222222222223
-0.2,0.08,9225.0
-0.195,0.08,9227.777777777777
-0.19,0.09,9230.555555555555
-0.21,0.065,9233.333333333334
-0.205,0.065,9236.111111111111
-0.21,0.065,9238.888888888889
-0.195,0.09,9241.666666666666
-0.185,0.09,9244.444444444445
-0.185,0.095,9247.222222222223
-0.19,0.075,9250.0
-0.205,0.07,9252.777777777777
-0.215,0.075,9255.555555555555
-0.2,0.1,9258.333333333334
-0.2,0.11,9261.111111111111
-0.2,0.1,9263.888888888889
-0.21,0.09,9266.666666666666
-0.215,0.08,9269.444444444445
-0.21,0.08,9272.222222222223
-0.2,0.09,9275.0
-0.18,0.11,9277.777777777777
-0.185,0.1,9280.555555555555
-0.19,0.09,9283.333333333334
-0.2,0.08,9286.111111111111
-0.21,0.095,9288.888888888889
-0.195,0.11,9291.666666666666
-0.2,0.11,9294.444444444445
-0.185,0.105,9297.222222222223
-0.185,0.11,9300.0
-0.205,0.08,9302.777777777777
-0.205,0.095,9305.555555555555
-0.195,0.095,9308.333333333334
-0.18,0.11,9311.111111111111
-0.18,0.12,9313.888888888889
-0.195,0.1,9316.666666666666
-0.205,0.085,9319.444444444445
-0.19,0.075,9322.222222222223
-0.175,0.095,9325.0
-0.165,0.1,9327.777777777777
-0.16,0.11,9330.555555555555
-0.17,0.095,9333.333333333334
-0.195,0.075,9336.111111111111
-0.21,0.09,9338.888888888889
-0.2,0.095,9341.666666666666
-0.155,0.105,9344.444444444445
-0.16,0.09,9347.222222222223
-0.165,0.08,9350.0
-0.185,0.08,9352.777777777777
-0.18,0.085,9355.555555555555
-0.175,0.09,9358.333333333334
-0.17,0.1,9361.111111111111
-0.17,0.095,9363.888888888889
-0.175,0.09,9366.666666666666
-0.185,0.065,9369.444444444445
-0.18,0.09,9372.222222222223
-0.175,0.105,9375.0
-0.175,0.1,9377.777777777777
-0.16,0.09,9380.555555555555
-0.18,0.08,9383.333333333334
-0.195,0.075,9386.111111111111
-0.19,0.08,9388.888888888889
-0.18,0.11,9391.666666666666
-0.16,0.105,9394.444444444445
-0.165,0.105,9397.222222222223
-0.175,0.085,9400.0
-0.175,0.075,9402.777777777777
-0.2,0.085,9405.555555555555
-0.185,0.105,9408.333333333334
-0.165,0.11,9411.111111111111
-0.16,0.11,9413.888888888889
-0.17,0.09,9416.666666666666
-0.18,0.07,9419.444444444445
-0.18,0.08,9422.222222222223
-0.18,0.09,9425.0
-0.16,0.095,9427.777777777777
-0.17,0.105,9430.555555555555
-0.175,0.085,9433.333333333334
-0.18,0.09,9436.111111111111
-0.195,0.085,9438.888888888889
-0.185,0.085,9441.666666666666
-0.17,0.095,9444.444444444445
-0.16,0.095,9447.222222222223
-0.16,0.08,9450.0
-0.175,0.08,9452.777777777777
-0.185,0.08,9455.555555555555
-0.175,0.085,9458.333333333334
-0.15,0.095,9461.111111111111
-0.145,0.1,9463.888888888889
-0.165,0.07,9466.666666666666
-0.18,0.07,9469.444444444445
-0.18,0.085,9472.222222222223
-0.185,0.09,9475.0
-0.175,0.09,9477.777777777777
-0.155,0.09,9480.555555555555
-0.17,0.07,9483.333333333334
-0.19,0.07,9486.111111111111
-0.2,0.065,9488.888888888889
-0.19,0.085,9491.666666666666
-0.18,0.1,9494.444444444445
-0.175,0.075,9497.222222222223
-0.185,0.07,9500.0
-0.19,0.07,9502.777777777777
-0.195,0.075,9505.555555555555
-0.19,0.09,9508.333333333334
-0.175,0.095,9511.111111111111
-0.175,0.085,9513.888888888889
-0.19,0.07,9516.666666666666
-0.19,0.06,9519.444444444445
-0.2,0.07,9522.222222222223
-0.2,0.06,9525.0
-0.195,0.09,9527.777777777777
-0.165,0.07,9530.555555555555
-0.185,0.065,9533.333333333334
-0.19,0.045,9536.111111111111
-0.19,0.06,9538.888888888889
-0.18,0.07,9541.666666666666
-0.17,0.095,9544.444444444445
-0.18,0.085,9547.222222222223
-0.175,0.075,9550.0
-0.185,0.06,9552.777777777777
-0.18,0.055,9555.555555555555
-0.19,0.07,9558.333333333334
-0.165,0.08,9561.111111111111
-0.165,0.08,9563.888888888889
-0.16,0.08,9566.666666666666
-0.2,0.065,9569.444444444445
-0.195,0.07,9572.222222222223
-0.175,0.075,9575.0
-0.165,0.105,9577.777777777777
-0.15,0.09,9580.555555555555
-0.16,0.07,9583.333333333334
-0.17,0.06,9586.111111111111
-0.175,0.05,9588.888888888889
-0.16,0.07,9591.666666666666
-0.16,0.08,9594.444444444445
-0.155,0.075,9597.222222222223
-0.17,0.06,9600.0
-0.185,0.055,9602.777777777777
-0.18,0.065,9605.555555555555
-0.17,0.07,9608.333333333334
-0.15,0.075,9611.111111111111
-0.155,0.07,9613.888888888889
-0.15,0.055,9616.666666666666
-0.165,0.045,9619.444444444445
-0.18,0.05,9622.222222222223
-0.185,0.06,9625.0
-0.15,0.08,9627.777777777777
-0.14,0.08,9630.555555555555
-0.16,0.065,9633.333333333334
-0.17,0.055,9636.111111111111
-0.17,0.055,9638.888888888889
-0.17,0.06,9641.666666666666
-0.15,0.07,9644.444444444445
-0.155,0.08,9647.222222222223
-0.17,0.07,9650.0
-0.185,0.06,9652.777777777777
-0.17,0.05,9655.555555555555
-0.165,0.06,9658.333333333334
-0.155,0.07,9661.111111111111
-0.155,0.08,9663.888888888889
-0.17,0.06,9666.666666666666
-0.18,0.045,9669.444444444445
-0.19,0.06,9672.222222222223
-0.175,0.07,9675.0
-0.16,0.07,9677.777777777777
-0.16,0.07,9680.555555555555
-0.16,0.05,9683.333333333334
-0.175,0.04,9686.111111111111
-0.19,0.05,9688.888888888889
-0.17,0.065,9691.666666666666
-0.165,0.075,9694.444444444445
-0.155,0.07,9697.222222222223
-0.17,0.07,9700.0
-0.185,0.05,9702.777777777777
-0.185,0.06,9705.555555555555
-0.185,0.07,9708.333333333334
-0.165,0.09,9711.111111111111
-0.155,0.075,9713.888888888889
-0.16,0.065,9716.666666666666
-0.18,0.06,9719.444444444445
-0.185,0.065,9722.222222222223
-0.17,0.075,9725.0
-0.165,0.09,9727.777777777777
-0.15,0.08,9730.555555555555
-0.165,0.07,9733.333333333334
-0.175,0.07,9736.111111111111
-0.175,0.06,9738.888888888889
-0.18,0.085,9741.666666666666
-0.165,0.09,9744.444444444445
-0.15,0.08,9747.222222222223
-0.165,0.07,9750.0
-0.18,0.065,9752.777777777777
-0.175,0.085,9755.555555555555
-0.17,0.085,9758.333333333334
-0.155,0.095,9761.111111111111
-0.16,0.085,9763.888888888889
-0.15,0.07,9766.666666666666
-0.175,0.055,9769.444444444445
-0.18,0.05,9772.222222222223
-0.16,0.065,9775.0
-0.165,0.07,9777.777777777777
-0.15,0.075,9780.555555555555
-0.155,0.075,9783.333333333334
-0.17,0.08,9786.111111111111
-0.185,0.09,9788.888888888889
-0.175,0.11,9791.666666666666
-0.155,0.125,9794.444444444445
-0.17,0.13,9797.222222222223
-0.19,0.105,9800.0
-0.195,0.11,9802.777777777777
-0.185,0.11,9805.555555555555
-0.175,0.115,9808.333333333334
-0.135,0.145,9811.111111111111
-0.13,0.13,9813.888888888889
-0.125,0.115,9816.666666666666
-0.135,0.1,9819.444444444445
-0.13,0.1,9822.222222222223
-0.12,0.115,9825.0
-0.095,0.12,9827.777777777777
-0.095,0.115,9830.555555555555
-0.105,0.095,9833.333333333334
-0.13,0.085,9836.111111111111
-0.115,0.1,9838.888888888889
-0.12,0.11,9841.666666666666
-0.105,0.11,9844.444444444445
-0.115,0.1,9847.222222222223
-0.13,0.085,9850.0
-0.155,0.08,9852.777777777777
-0.165,0.085,9855.555555555555
-0.16,0.105,9858.333333333334
-0.15,0.1,9861.111111111111
-0.165,0.11,9863.888888888889
-0.185,0.085,9866.666666666666
-0.185,0.07,9869.444444444445
-0.175,0.08,9872.222222222223
-0.17,0.09,9875.0
-0.16,0.1,9877.777777777777
-0.15,0.09,9880.555555555555
-0.16,0.08,9883.333333333334
-0.175,0.075,9886.111111111111
-0.185,0.075,9888.888888888889
-0.17,0.085,9891.666666666666
-0.17,0.095,9894.444444444445
-0.16,0.095,9897.222222222223
-0.16,0.08,9900.0
-0.175,0.075,9902.777777777777
-0.17,0.08,9905.555555555555
-0.175,0.095,9908.333333333334
-0.125,0.115,9911.111111111111
-0.12,0.115,9913.888888888889
-0.125,0.125,9916.666666666666
-0.13,0.14,9919.444444444445
-0.13,0.15,9922.222222222223
-0.095,0.165,9925.0
-0.065,0.16,9927.777777777777
-0.04,0.085,9930.555555555555
-0.03,-0.02,9933.333333333334
-0.02,-0.135,9936.111111111111
0.01,-0.245,9938.888888888889
0.09,-0.355,9941.666666666666
0.185,-0.475,9944.444444444445
0.31,-0.625,9947.222222222223
0.42,-0.76,9950.0
0.54,-0.865,9952.777777777777
0.685,-0.915,9955.555555555555
0.835,-0.905,9958.333333333334
0.96,-0.835,9961.111111111111
1.09,-0.755,9963.888888888889
1.205,-0.67,9966.666666666666
1.285,-0.525,9969.444444444445
1.34,-0.37,9972.222222222223
1.3,-0.21,9975.0
1.19,-0.08,9977.777777777777
0.98,0.01,9980.555555555555
0.77,0.065,9983.333333333334
0.54,0.06,9986.111111111111
0.345,0.055,9988.888888888889
0.2,0.035,9991.666666666666
0.06,0.03,9994.444444444445
-0.045,0.04,9997.222222222223
-0.095,0.06,10000.0
-0.105,0.055,10002.777777777777
-0.105,0.07,10005.555555555555
-0.09,0.105,10008.333333333334
-0.095,0.11,10011.111111111111
-0.105,0.12,10013.888888888889
-0.13,0.105,10016.666666666666
-0.175,0.095,10019.444444444445
-0.17,0.115,10022.222222222223
-0.175,0.125,10025.0
-0.175,0.135,10027.777777777777
-0.175,0.125,10030.555555555555
-0.185,0.11,10033.333333333334
-0.195,0.1,10036.111111111111
-0.22,0.11,10038.888888888889
-0.215,0.125,10041.666666666666
-0.215,0.14,10044.444444444445
-0.215,0.13,10047.222222222223
-0.215,0.11,10050.0
-0.245,0.105,10052.777777777777
-0.25,0.125,10055.555555555555
-0.245,0.13,10058.333333333334
-0.235,0.14,10061.111111111111
-0.22,0.135,10063.888888888889
-0.245,0.12,10066.666666666666
-0.25,0.11,10069.444444444445
-0.255,0.12,10072.222222222223
-0.265,0.13,10075.0
-0.245,0.145,10077.777777777777
-0.235,0.135,10080.555555555555
-0.245,0.115,10083.333333333334
-0.265,0.115,10086.111111111111
-0.26,0.13,10088.888888888889
-0.25,0.13,10091.666666666666
-0.25,0.13,10094.444444444445
-0.235,0.125,10097.222222222223
-0.255,0.12,10100.0
-0.25,0.115,10102.777777777777
-0.26,0.12,10105.555555555555
-0.235,0.13,10108.333333333334
-0.22,0.14,10111.111111111111
-0.21,0.125,10113.888888888889
-0.23,0.125,10116.666666666666
-0.235,0.11,10119.444444444445
-0.23,0.12,10122.222222222223
-0.23,0.13,10125.0
-0.215,0.135,10127.777777777777
-0.205,0.14,10130.555555555555
-0.195,0.115,10133.333333333334
-0.205,0.11,10136.111111111111
-0.195,0.12,10138.888888888889
-0.195,0.125,10141.666666666666
-0.175,0.13,10144.444444444445
-0.165,0.13,10147.222222222223
-0.17,0.12,10150.0
-0.165,0.11,10152.777777777777
-0.165,0.1,10155.555555555555
-0.17,0.12,10158.333333333334
-0.145,0.125,10161.111111111111
-0.13,0.115,10163.888888888889
-0.14,0.105,10166.666666666666
-0.125,0.095,10169.444444444445
-0.125,0.09,10172.222222222223
-0.125,0.095,10175.0
-0.085,0.11,10177.777777777777
-0.065,0.115,10180.555555555555
-0.075,0.09,10183.333333333334
-0.07,0.075,10186.111111111111
-0.065,0.075,10188.888888888889
-0.04,0.095,10191.666666666666
-0.015,0.095,10194.444444444445
-0.015,0.095,10197.222222222223
0.0,0.07,10200.0
-0.005,0.06,10202.777777777777
0.005,0.065,10205.555555555555
0.025,0.06,10208.333333333334
0.055,0.075,10211.111111111111
0.07,0.055,10213.888888888889
0.065,0.04,10216.666666666666
0.06,0.025,10219.444444444445
0.05,0.03,10222.222222222223
0.08,0.035,10225.0
0.105,0.04,10227.777777777777
0.125,0.035,10230.555555555555
0.13,0.025,10233.333333333334
0.125,0.015,10236.111111111111
0.13,0.03,10238.888888888889
0.14,0.015,10241.666666666666
0.15,0.04,10244.444444444445
0.165,0.04,10247.222222222223
0.16,0.035,10250.0
0.16,0.025,10252.777777777777
0.155,0.045,10255.555555555555
0.165,0.055,10258.333333333334
0.16,0.065,10261.111111111111
0.145,0.075,10263.888888888889
0.145,0.075,10266.666666666666
0.125,0.06,10269.444444444445
0.105,0.075,10272.222222222223
0.085,0.095,10275.0
0.08,0.11,10277.777777777777
0.065,0.1,10280.555555555555
0.05,0.1,10283.333333333334
0.015,0.085,10286.111111111111
-0.005,0.09,10288.888888888889
-0.015,0.115,10291.666666666666
-0.04,0.13,10294.444444444445
-0.04,0.13,10297.222222222223
-0.065,0.115,10300.0
-0.1,0.105,10302.777777777777
-0.115,0.13,10305.555555555555
-0.115,0.13,10308.333333333334
-0.125,0.13,10311.111111111111
-0.12,0.14,10313.888888888889
-0.15,0.13,10316.666666666666
-0.18,0.11,10319.444444444445
-0.18,0.11,10322.222222222223
-0.175,0.13,10325.0
-0.19,0.145,10327.777777777777
-0.18,0.15,10330.555555555555
-0.19,0.13,10333.333333333334
-0.21,0.125,10336.111111111111
-0.205,0.135,10338.888888888889
-0.2,0.15,10341.666666666666
-0.19,0.165,10344.444444444445
-0.195,0.155,10347.222222222223
-0.195,0.155,10350.0
-0.225,0.135,10352.777777777777
-0.225,0.13,10355.555555555555
-0.205,0.155,10358.333333333334
-0.205,0.165,10361.111111111111
-0.19,0.155,10363.888888888889
-0.21,0.14,10366.666666666666
-0.23,0.13,10369.444444444445
-0.235,0.13,10372.222222222223
-0.22,0.145,10375.0
-0.205,0.16,10377.777777777777
-0.195,0.155,10380.555555555555
-0.215,0.135,10383.333333333334
-0.215,0.12,10386.111111111111
-0.225,0.135,10388.888888888889
-0.205,0.16,10391.666666666666
-0.195,0.165,10394.444444444445
-0.2,0.155,10397.222222222223
-0.195,0.155,10400.0
-0.22,0.14,10402.777777777777
-0.23,0.145,10405.555555555555
-0.22,0.16,10408.333333333334
-0.195,0.16,10411.111111111111
-0.18,0.165,10413.888888888889
-0.195,0.16,10416.666666666666
-0.205,0.15,10419.444444444445
-0.21,0.14,10422.222222222223
-0.2,0.18,10425.0
-0.185,0.165,10427.777777777777
-0.185,0.17,10430.555555555555
-0.19,0.165,10433.333333333334
-0.215,0.155,10436.111111111111
-0.215,0.145,10438.888888888889
-0.19,0.16,10441.666666666666
-0.18,0.175,10444.444444444445
-0.185,0.175,10447.222222222223
-0.185,0.155,10450.0
-0.205,0.145,10452.777777777777
-0.215,0.145,10455.555555555555
-0.2,0.165,10458.333333333334
-0.18,0.18,10461.111111111111
-0.17,0.17,10463.888888888889
-0.18,0.155,10466.666666666666
-0.205,0.145,10469.444444444445
-0.21,0.15,10472.222222222223
-0.205,0.165,10475.0
-0.18,0.16,10477.777777777777
-0.18,0.165,10480.555555555555
-0.18,0.16,10483.333333333334
-0.195,0.14,10486.111111111111
-0.2,0.145,10488.888888888889
-0.19,0.16,10491.666666666666
-0.175,0.18,10494.444444444445
-0.175,0.17,10497.222222222223
-0.19,0.165,10500.0
-0.2,0.155,10502.777777777777
-0.21,0.155,10505.555555555555
-0.185,0.175,10508.333333333334
-0.175,0.18,10511.111111111111
-0.17,0.175,10513.888888888889
-0.18,0.17,10516.666666666666
-0.195,0.155,10519.444444444445
-0.2,0.165,10522.222222222223
-0.19,0.175,10525.0
-0.175,0.19,10527.777777777777
-0.175,0.19,10530.555555555555
-0.195,0.165,10533.333333333334
-0.2,0.165,10536.111111111111
-0.215,0.17,10538.888888888889
-0.2,0.17,10541.666666666666
-0.18,0.185,10544.444444444445
-0.18,0.19,10547.222222222223
-0.19,0.155,10550.0
-0.205,0.165,10552.777777777777
-0.21,0.17,10555.555555555555
-0.2,0.165,10558.333333333334
-0.175,0.185,10561.111111111111
-0.185,0.175,10563.888888888889
-0.205,0.165,10566.666666666666
-0.21,0.155,10569.444444444445
-0.215,0.155,10572.222222222223
-0.205,0.165,10575.0
-0.195,0.175,10577.777777777777
-0.195,0.165,10580.555555555555
-0.2,0.165,10583.333333333334
-0.215,0.155,10586.111111111111
-0.21,0.15,10588.888888888889
-0.2,0.185,10591.666666666666
-0.195,0.19,10594.444444444445
-0.19,0.19,10597.222222222223
-0.18,0.17,10600.0
-0.2,0.17,10602.777777777777
-0.215,0.175,10605.555555555555
-0.205,0.18,10608.333333333334
-0.185,0.19,10611.111111111111
-0.21,0.185,10613.888888888889
-0.205,0.165,10616.666666666666
-0.22,0.16,10619.444444444445
-0.215,0.16,10622.222222222223
-0.21,0.17,10625.0
-0.21,0.185,10627.777777777777
-0.205,0.165,10630.555555555555
-0.215,0.155,10633.333333333334
-0.225,0.15,10636.111111111111
-0.225,0.15,10638.888888888889
-0.22,0.165,10641.666666666666
-0.21,0.17,10644.444444444445
-0.225,0.165,10647.222222222223
-0.22,0.145,10650.0
-0.235,0.15,10652.777777777777
-0.235,0.145,10655.555555555555
-0.24,0.16,10658.333333333334
-0.22,0.165,10661.111111111111
-0.215,0.175,10663.888888888889
-0.22,0.15,10666.666666666666
-0.23,0.14,10669.444444444445
-0.245,0.155,10672.222222222223
-0.23,0.175,10675.0
-0.21,0.175,10677.777777777777
-0.205,0.17,10680.555555555555
-0.215,0.17,10683.333333333334
-0.23,0.16,10686.111111111111
-0.225,0.165,10688.888888888889
-0.205,0.17,10691.666666666666
-0.19,0.185,10694.444444444445
-0.19,0.18,10697.222222222223
-0.2,0.17,10700.0
-0.205,0.15,10702.777777777777
-0.22,0.155,10705.555555555555
-0.2,0.175,10708.333333333334
-0.185,0.185,10711.111111111111
-0.19,0.18,10713.888888888889
-0.195,0.16,10716.666666666666
-0.21,0.155,10719.444444444445
-0.225,0.165,10722.222222222223
-0.205,0.165,10725.0
-0.185,0.18,10727.777777777777
-0.185,0.17,10730.555555555555
-0.195,0.15,10733.333333333334
-0.205,0.135,10736.111111111111
-0.21,0.14,10738.888888888889
-0.2,0.15,10741.666666666666
-0.185,0.175,10744.444444444445
-0.195,0.165,10747.222222222223
-0.19,0.16,10750.0
-0.21,0.14,10752.777777777777
-0.21,0.135,10755.555555555555
-0.21,0.16,10758.333333333334
-0.2,0.185,10761.111111111111
-0.185,0.17,10763.888888888889
-0.185,0.165,10766.666666666666
-0.205,0.15,10769.444444444445
-0.22,0.155,10772.222222222223
-0.21,0.165,10775.0
-0.18,0.19,10777.777777777777
-0.18,0.18,10780.555555555555
-0.19,0.16,10783.333333333334
-0.205,0.15,10786.111111111111
-0.215,0.145,10788.888888888889
-0.21,0.16,10791.666666666666
-0.195,0.165,10794.444444444445
-0.185,0.165,10797.222222222223
-0.2,0.155,10800.0
-0.215,0.135,10802.777777777777
-0.235,0.14,10805.555555555555
-0.225,0.155,10808.333333333334
-0.19,0.165,10811.111111111111
-0.195,0.155,10813.888888888889
-0.2,0.145,10816.666666666666
-0.215,0.14,10819.444444444445
-0.225,0.15,10822.222222222223
-0.225,0.15,10825.0
-0.21,0.165,10827.777777777777
-0.205,0.17,10830.555555555555
-0.215,0.14,10833.333333333334
-0.235,0.14,10836.111111111111
-0.24,0.15,10838.888888888889
-0.225,0.15,10841.666666666666
-0.195,0.17,10844.444444444445
-0.175,0.16,10847.222222222223
-0.2,0.145,10850.0
-0.2,0.145,10852.777777777777
-0.21,0.155,10855.555555555555
-0.195,0.16,10858.333333333334
-0.175,0.165,10861.111111111111
-0.175,0.16,10863.888888888889
-0.2,0.145,10866.666666666666
-0.21,0.135,10869.444444444445
-0.2,0.14,10872.222222222223
-0.185,0.155,10875.0
-0.185,0.17,10877.777777777777
-0.17,0.18,10880.555555555555
-0.185,0.165,10883.333333333334
-0.185,0.15,10886.111111111111
-0.2,0.155,10888.888888888889
-0.18,0.175,10891.666666666666
-0.165,0.17,10894.444444444445
-0.165,0.165,10897.222222222223
-0.18,0.15,10900.0
-0.18,0.15,10902.777777777777
-0.21,0.15,10905.555555555555
-0.175,0.17,10908.333333333334
-0.16,0.175,10911.111111111111
-0.165,0.165,10913.888888888889
-0.17,0.16,10916.666666666666
-0.175,0.14,10919.444444444445
-0.18,0.145,10922.222222222223
-0.175,0.155,10925.0
-0.165,0.16,10927.777777777777
-0.155,0.155,10930.555555555555
-0.16,0.145,10933.333333333334
-0.165,0.13,10936.111111111111
-0.17,0.14,10938.888888888889
-0.165,0.155,10941.666666666666
-0.145,0.17,10944.444444444445
-0.125,0.175,10947.222222222223
-0.15,0.175,10950.0
-0.16,0.16,10952.777777777777
-0.17,0.175,10955.555555555555
-0.165,0.195,10958.333333333334
-0.165,0.2,10961.111111111111
-0.16,0.2,10963.888888888889
-0.175,0.185,10966.666666666666
-0.17,0.175,10969.444444444445
-0.165,0.185,10972.222222222223
-0.14,0.19,10975.0
-0.115,0.185,10977.777777777777
-0.115,0.175,10980.555555555555
-0.115,0.16,10983.333333333334
-0.105,0.15,10986.111111111111
-0.12,0.16,10988.888888888889
-0.115,0.16,10991.666666666666
-0.1,0.175,10994.444444444445
-0.085,0.17,10997.222222222223
-0.11,0.145,11000.0
-0.12,0.135,11002.777777777777
-0.13,0.135,11005.555555555555
-0.12,0.135,11008.333333333334
-0.13,0.14,11011.111111111111
-0.13,0.15,11013.888888888889
-0.145,0.125,11016.666666666666
-0.155,0.12,11019.444444444445
-0.185,0.125,11022.222222222223
-0.18,0.135,11025.0
-0.17,0.16,11027.777777777777
-0.18,0.145,11030.555555555555
-0.16,0.125,11033.333333333334
-0.19,0.125,11036.111111111111
-0.18,0.14,11038.888888888889
-0.175,0.145,11041.666666666666
-0.155,0.14,11044.444444444445
-0.16,0.135,11047.222222222223
-0.155,0.12,11050.0
-0.185,0.115,11052.777777777777
-0.185,0.12,11055.555555555555
-0.155,0.13,11058.333333333334
-0.15,0.155,11061.111111111111
-0.14,0.145,11063.888888888889
-0.155,0.13,11066.666666666666
-0.16,0.125,11069.444444444445
-0.15,0.13,11072.222222222223
-0.15,0.15,11075.0
-0.11,0.19,11077.777777777777
-0.1,0.19,11080.555555555555
-0.09,0.19,11083.333333333334
-0.095,0.17,11086.111111111111
-0.065,0.13,11088.888888888889
-0.03,0.06,11091.666666666666
-0.005,-0.03,11094.444444444445
0.035,-0.155,11097.222222222223
0.075,-0.295,11100.0
0.165,-0.455,11102.777777777777
0.28,-0.6,11105.555555555555
0.405,-0.75,11108.333333333334
0.555,-0.865,11111.111111111111
0.7,-0.955,11113.888888888889
0.835,-0.985,11116.666666666666
0.945,-0.935,11119.444444444445
1.045,-0.845,11122.222222222223
1.18,-0.72,11125.0
1.285,-0.57,11127.777777777777
1.32,-0.39,11130.555555555555
1.24,-0.23,11133.333333333334
1.11,-0.11,11136.111111111111
0.915,-0.005,11138.888888888889
0.72,0.06,11141.666666666666
0.535,0.075,11144.444444444445
0.36,0.045,11147.222222222223
0.195,0.03,11150.0
0.075,0.035,11152.777777777777
-0.005,0.065,11155.555555555555
-0.035,0.1,11158.333333333334
-0.02,0.135,11161.111111111111
-0.025,0.14,11163.888888888889
-0.055,0.125,11166.666666666666
-0.08,0.135,11169.444444444445
-0.095,0.15,11172.222222222223
-0.105,0.155,11175.0
-0.115,0.18,11177.777777777777
-0.115,0.185,11180.555555555555
-0.135,0.17,11183.333333333334
-0.16,0.15,11186.111111111111
-0.17,0.17,11188.888888888889
-0.175,0.185,11191.666666666666
-0.175,0.2,11194.444444444445
-0.165,0.19,11197.222222222223
-0.18,0.175,11200.0
-0.195,0.17,11202.777777777777
-0.19,0.165,11205.555555555555
-0.2,0.18,11208.333333333334
-0.185,0.2,11211.111111111111
-0.185,0.19,11213.888888888889
-0.205,0.185,11216.666666666666
-0.205,0.165,11219.444444444445
-0.21,0.18,11222.222222222223
-0.19,0.19,11225.0
-0.19,0.2,11227.777777777777
-0.18,0.2,11230.555555555555
-0.195,0.185,11233.333333333334
-0.2,0.17,11236.111111111111
-0.215,0.175,11238.888888888889
-0.19,0.19,11241.666666666666
-0.185,0.195,11244.444444444445
-0.175,0.195,11247.222222222223
-0.175,0.18,11250.0
-0.195,0.165,11252.777777777777
-0.205,0.165,11255.555555555555
-0.19,0.18,11258.333333333334
-0.165,0.2,11261.111111111111
-0.17,0.195,11263.888888888889
-0.17,0.17,11266.666666666666
-0.185,0.16,11269.444444444445
-0.19,0.165,11272.222222222223
-0.165,0.19,11275.0
-0.16,0.19,11277.777777777777
-0.145,0.18,11280.555555555555
-0.155,0.17,11283.333333333334
-0.17,0.15,11286.111111111111
-0.165,0.16,11288.888888888889
-0.145,0.17,11291.666666666666
-0.135,0.17,11294.444444444445
-0.12,0.165,11297.222222222223
-0.12,0.145,11300.0
-0.135,0.14,11302.777777777777
-0.145,0.135,11305.555555555555
-0.14,0.155,11308.333333333334
-0.115,0.155,11311.111111111111
-0.1,0.16,11313.888888888889
-0.1,0.14,11316.666666666666
-0.115,0.12,11319.444444444445
-0.1,0.12,11322.222222222223
-0.08,0.135,11325.0
-0.065,0.14,11327.777777777777
-0.045,0.125,11330.555555555555
-0.045,0.115,11333.333333333334
-0.04,0.105,11336.111111111111
-0.045,0.11,11338.888888888889
-0.03,0.105,11341.666666666666
0.01,0.115,11344.444444444445
0.025,0.105,11347.222222222223
0.025,0.09,11350.0
0.02,0.075,11352.777777777777
0.04,0.075,11355.555555555555
0.055,0.08,11358.333333333334
0.08,0.08,11361.111111111111
0.085,0.065,11363.888888888889
0.085,0.055,11366.666666666666
0.07,0.04,11369.444444444445
0.085,0.045,11372.222222222223
0.115,0.045,11375.0
0.13,0.05,11377.777777777777
0.15,0.035,11380.555555555555
0.16,0.025,11383.333333333334
0.15,0.02,11386.111111111111
0.145,0.02,11388.888888888889
0.16,0.04,11391.666666666666
0.175,0.06,11394.444444444445
0.19,0.05,11397.222222222223
0.175,0.045,11400.0
0.165,0.045,11402.777777777777
0.16,0.06,11405.555555555555
0.145,0.075,11408.333333333334
0.15,0.09,11411.111111111111
0.14,0.085,11413.888888888889
0.1,0.09,11416.666666666666
0.075,0.08,11419.444444444445
0.055,0.105,11422.222222222223
0.03,0.12,11425.0
0.04,0.125,11427.777777777777
0.01,0.13,11430.555555555555
-0.025,0.11,11433.333333333334
-0.05,0.1,11436.111111111111
-0.075,0.12,11438.888888888889
-0.095,0.13,11441.666666666666
-0.095,0.16,11444.444444444445
-0.1,0.15,11447.222222222223
-0.125,0.14,11450.0
-0.165,0.125,11452.777777777777
-0.175,0.125,11455.555555555555
-0.185,0.135,11458.333333333334
-0.17,0.145,11461.111111111111
-0.19,0.155,11463.888888888889
-0.19,0.145,11466.666666666666
-0.225,0.14,11469.444444444445
-0.235,0.145,11472.222222222223
-0.225,0.165,11475.0
-0.215,0.17,11477.777777777777
-0.21,0.15,11480.555555555555
-0.22,0.135,11483.333333333334
-0.25,0.125,11486.111111111111
-0.255,0.125,11488.888888888889
-0.235,0.145,11491.666666666666
-0.23,0.165,11494.444444444445
-0.22,0.16,11497.222222222223
-0.235,0.135,11500.0
-0.26,0.125,11502.777777777777
-0.255,0.13,11505.555555555555
-0.255,0.145,11508.333333333334
-0.245,0.155,11511.111111111111
-0.245,0.15,11513.888888888889
-0.25,0.14,11516.666666666666
-0.27,0.135,11519.444444444445
-0.27,0.15,11522.222222222223
-0.26,0.16,11525.0
-0.24,0.17,11527.777777777777
-0.245,0.17,11530.555555555555
-0.26,0.145,11533.333333333334
-0.27,0.135,11536.111111111111
-0.265,0.15,11538.888888888889
-0.26,0.17,11541.666666666666
-0.255,0.175,11544.444444444445
-0.245,0.165,11547.222222222223
-0.245,0.145,11550.0
-0.265,0.15,11552.777777777777
-0.26,0.145,11555.555555555555
-0.245,0.165,11558.333333333334
-0.235,0.18,11561.111111111111
-0.235,0.18,11563.888888888889
