MLII,V1,time_ms
-0.26,0.065,0.0
-0.26,0.065,2.7777777777777777
-0.26,0.065,5.555555555555555
-0.26,0.065,8.333333333333334
-0.26,0.065,11.11111111111111
-0.26,0.065,13.88888888888889
-0.26,0.065,16.666666666666668
-0.26,0.065,19.444444444444443
-0.145,0.065,22.22222222222222
-0.175,0.11,25.0
-0.275,0.125,27.77777777777778
-0.38,0.125,30.555555555555557
-0.405,0.11,33.333333333333336
-0.385,0.105,36.111111111111114
-0.31,0.11,38.888888888888886
-0.24,0.09,41.666666666666664
-0.255,0.06,44.44444444444444
-0.325,0.06,47.22222222222222
-0.375,0.075,50.0
-0.345,0.11,52.77777777777778
-0.23,0.125,55.55555555555556
-0.12,0.125,58.333333333333336
-0.06,0.11,61.111111111111114
-0.12,0.115,63.888888888888886
-0.22,0.12,66.66666666666667
-0.35,0.16,69.44444444444444
-0.365,0.2,72.22222222222223
-0.335,0.205,75.0
-0.26,0.205,77.77777777777777
-0.175,0.22,80.55555555555556
-0.105,0.22,83.33333333333333
-0.14,0.23,86.11111111111111
-0.2,0.255,88.88888888888889
-0.235,0.26,91.66666666666667
-0.295,0.265,94.44444444444444
-0.395,0.255,97.22222222222223
-0.49,0.255,100.0
-0.475,0.265,102.77777777777777
-0.395,0.265,105.55555555555556
-0.315,0.245,108.33333333333333
-0.26,0.23,111.11111111111111
-0.21,0.215,113.88888888888889
-0.2,0.18,116.66666666666667
-0.16,0.17,119.44444444444444
-0.095,0.13,122.22222222222223
-0.04,0.1,125.0
-0.02,0.04,127.77777777777777
-0.035,0.015,130.55555555555554
-0.09,-0.005,133.33333333333334
-0.17,0.005,136.11111111111111
-0.24,0.04,138.88888888888889
-0.28,0.035,141.66666666666666
-0.3,0.045,144.44444444444446
-0.285,0.02,147.22222222222223
-0.275,0.0,150.0
-0.245,0.015,152.77777777777777
-0.185,0.04,155.55555555555554
-0.1,0.055,158.33333333333334
-0.055,0.045,161.11111111111111
-0.13,-0.005,163.88888888888889
-0.295,-0.03,166.66666666666666
-0.4,-0.04,169.44444444444446
-0.345,-0.03,172.22222222222223
-0.27,-0.025,175.0
-0.255,-0.025,177.77777777777777
-0.255,-0.005,180.55555555555554
-0.215,0.015,183.33333333333334
-0.175,0.025,186.11111111111111
-0.155,0.035,188.88888888888889
-0.175,-0.005,191.66666666666666
-0.235,-0.015,194.44444444444446
-0.315,-0.035,197.22222222222223
-0.335,-0.03,200.0
-0.31,0.005,202.77777777777777
-0.26,0.02,205.55555555555554
-0.26,0.03,208.33333333333334
-0.305,0.035,211.11111111111111
-0.34,0.06,213.88888888888889
-0.28,0.08,216.66666666666666
-0.205,0.14,219.44444444444446
-0.16,0.205,222.22222222222223
-0.215,0.24,225.0
-0.34,0.245,227.77777777777777
-0.34,0.22,230.55555555555554
-0.165,0.19,233.33333333333334
0.04,0.175,236.11111111111111
0.18,0.145,238.88888888888889
0.23,0.085,241.66666666666666
0.26,0.015,244.44444444444446
0.255,-0.055,247.22222222222223
0.275,-0.08,250.0
0.43,-0.09,252.77777777777777
0.7,-0.135,255.55555555555554
1.0,-0.21,258.3333333333333
1.285,-0.285,261.1111111111111
1.465,-0.355,263.8888888888889
1.53,-0.41,266.6666666666667
1.48,-0.42,269.44444444444446
1.385,-0.42,272.22222222222223
1.345,-0.415,275.0
1.355,-0.46,277.77777777777777
1.37,-0.505,280.55555555555554
1.325,-0.51,283.3333333333333
1.26,-0.485,286.1111111111111
1.17,-0.43,288.8888888888889
1.025,-0.4,291.6666666666667
0.83,-0.355,294.44444444444446
0.655,-0.305,297.22222222222223
0.52,-0.255,300.0
0.42,-0.16,302.77777777777777
0.36,-0.095,305.55555555555554
0.24,-0.06,308.3333333333333
0.0,-0.01,311.1111111111111
-0.255,0.03,313.8888888888889
-0.395,0.065,316.6666666666667
-0.4,0.1,319.44444444444446
-0.29,0.105,322.22222222222223
-0.185,0.1,325.0
-0.165,0.1,327.77777777777777
-0.285,0.09,330.55555555555554
-0.43,0.08,333.3333333333333
-0.495,0.06,336.1111111111111
-0.485,0.05,338.8888888888889
-0.415,-0.04,341.6666666666667
-0.365,-0.105,344.44444444444446
-0.34,-0.14,347.22222222222223
-0.37,-0.135,350.0
-0.47,-0.085,352.77777777777777
-0.535,-0.05,355.55555555555554
-0.565,-0.02,358.3333333333333
-0.535,-0.005,361.1111111111111
-0.5,-0.015,363.8888888888889
-0.44,-0.02,366.6666666666667
-0.41,-0.01,369.44444444444446
-0.41,-0.02,372.22222222222223
-0.505,-0.035,375.0
-0.655,-0.06,377.77777777777777
-0.77,-0.055,380.55555555555554
-0.775,-0.03,383.3333333333333
-0.62,0.005,386.1111111111111
-0.45,0.03,388.8888888888889
-0.405,0.03,391.6666666666667
-0.465,0.035,394.44444444444446
-0.535,0.05,397.22222222222223
-0.575,0.1,400.0
-0.55,0.155,402.77777777777777
-0.52,0.165,405.55555555555554
-0.51,0.105,408.3333333333333
-0.49,0.05,411.1111111111111
-0.455,-0.015,413.8888888888889
-0.51,-0.03,416.6666666666667
-0.64,-0.01,419.44444444444446
-0.69,0.025,422.22222222222223
-0.615,0.03,425.0
-0.495,0.025,427.77777777777777
-0.44,0.01,430.55555555555554
-0.405,0.03,433.3333333333333
-0.36,0.03,436.1111111111111
-0.34,0.06,438.8888888888889
-0.425,0.06,441.6666666666667
-0.57,0.07,444.44444444444446
-0.615,0.095,447.22222222222223
-0.525,0.125,450.0
-0.425,0.16,452.77777777777777
-0.42,0.17,455.55555555555554
-0.43,0.195,458.3333333333333
-0.4,0.175,461.1111111111111
-0.355,0.195,463.8888888888889
-0.365,0.22,466.6666666666667
-0.395,0.245,469.44444444444446
-0.4,0.28,472.22222222222223
-0.355,0.285,475.0
-0.33,0.265,477.77777777777777
-0.34,0.24,480.55555555555554
-0.33,0.25,483.3333333333333
-0.315,0.27,486.1111111111111
-0.275,0.27,488.8888888888889
-0.215,0.25,491.6666666666667
-0.135,0.205,494.44444444444446
-0.075,0.185,497.22222222222223
-0.08,0.195,500.0
-0.055,0.19,502.77777777777777
-0.03,0.2,505.55555555555554
-0.02,0.185,508.3333333333333
-0.035,0.16,511.1111111111111
-0.045,0.155,513.8888888888889
-0.05,0.19,516.6666666666666
-0.07,0.22,519.4444444444445
-0.065,0.265,522.2222222222222
-0.14,0.265,525.0
-0.21,0.245,527.7777777777778
-0.25,0.215,530.5555555555555
-0.205,0.18,533.3333333333334
-0.01,0.16,536.1111111111111
0.125,0.13,538.8888888888889
0.08,0.065,541.6666666666666
-0.05,0.005,544.4444444444445
-0.17,-0.06,547.2222222222222
-0.225,-0.105,550.0
-0.28,-0.13,552.7777777777778
-0.34,-0.105,555.5555555555555
-0.32,-0.105,558.3333333333334
-0.255,-0.12,561.1111111111111
-0.15,-0.105,563.8888888888889
-0.045,-0.065,566.6666666666666
-0.01,0.005,569.4444444444445
-0.01,0.055,572.2222222222222
0.035,0.05,575.0
0.015,0.015,577.7777777777778
-0.155,-0.02,580.5555555555555
-0.455,-0.045,583.3333333333334
-0.655,-0.045,586.1111111111111
-0.64,-0.045,588.8888888888889
-0.465,-0.06,591.6666666666666
-0.29,-0.07,594.4444444444445
-0.245,-0.065,597.2222222222222
-0.26,-0.07,600.0
-0.275,-0.025,602.7777777777778
-0.275,0.015,605.5555555555555
-0.28,0.025,608.3333333333334
-0.32,0.03,611.1111111111111
-0.405,0.025,613.8888888888889
-0.44,0.03,616.6666666666666
-0.38,0.02,619.4444444444445
-0.225,0.025,622.2222222222222
-0.135,0.015,625.0
-0.175,-0.01,627.7777777777778
-0.25,0.01,630.5555555555555
-0.32,0.03,633.3333333333334
-0.33,0.08,636.1111111111111
-0.26,0.13,638.8888888888889
-0.155,0.13,641.6666666666666
-0.12,0.095,644.4444444444445
-0.18,0.055,647.2222222222222
-0.31,0.055,650.0
-0.37,0.05,652.7777777777778
-0.33,0.075,655.5555555555555
-0.3,0.075,658.3333333333334
-0.4,0.065,661.1111111111111
-0.5,0.08,663.8888888888889
-0.54,0.08,666.6666666666666
-0.51,0.105,669.4444444444445
-0.39,0.135,672.2222222222222
-0.22,0.12,675.0
-0.125,0.105,677.7777777777778
-0.165,0.115,680.5555555555555
-0.3,0.16,683.3333333333334
-0.375,0.225,686.1111111111111
-0.37,0.245,688.8888888888889
-0.38,0.235,691.6666666666666
-0.4,0.2,694.4444444444445
-0.385,0.18,697.2222222222222
-0.34,0.15,700.0
-0.32,0.16,702.7777777777778
-0.305,0.165,705.5555555555555
-0.25,0.135,708.3333333333334
-0.175,0.1,711.1111111111111
-0.145,0.055,713.8888888888889
-0.17,0.04,716.6666666666666
-0.25,0.02,719.4444444444445
-0.32,0.005,722.2222222222222
-0.345,-0.02,725.0
-0.32,-0.055,727.7777777777778
-0.2,-0.08,730.5555555555555
-0.07,-0.07,733.3333333333334
-0.07,-0.04,736.1111111111111
-0.205,-0.02,738.8888888888889
-0.32,-0.02,741.6666666666666
-0.32,-0.025,744.4444444444445
-0.235,-0.035,747.2222222222222
-0.155,-0.035,750.0
-0.155,-0.005,752.7777777777778
-0.23,0.03,755.5555555555555
-0.26,0.015,758.3333333333334
-0.215,0.01,761.1111111111111
-0.17,-0.01,763.8888888888889
-0.13,-0.025,766.6666666666666
-0.1,-0.025,769.4444444444445
-0.11,-0.005,772.2222222222222
-0.17,-0.005,775.0
-0.23,-0.01,777.7777777777778
-0.27,-0.015,780.5555555555555
-0.265,-0.005,783.3333333333334
-0.23,0.005,786.1111111111111
-0.185,0.045,788.8888888888889
-0.16,0.055,791.6666666666666
-0.17,0.05,794.4444444444445
-0.19,0.045,797.2222222222222
-0.185,0.065,800.0
-0.16,0.105,802.7777777777778
-0.175,0.13,805.5555555555555
-0.215,0.1,808.3333333333334
-0.255,0.065,811.1111111111111
-0.295,0.025,813.8888888888889
-0.3,0.025,816.6666666666666
-0.215,0.025,819.4444444444445
-0.14,0.04,822.2222222222222
-0.11,0.04,825.0
-0.15,0.015,827.7777777777778
-0.21,0.015,830.5555555555555
-0.245,0.025,833.3333333333334
-0.18,0.04,836.1111111111111
-0.085,0.05,838.8888888888889
-0.045,0.045,841.6666666666666
-0.125,0.03,844.4444444444445
-0.28,0.04,847.2222222222222
-0.435,0.06,850.0
-0.475,0.095,852.7777777777778
-0.4,0.115,855.5555555555555
-0.265,0.11,858.3333333333334
-0.175,0.08,861.1111111111111
-0.18,0.05,863.8888888888889
-0.23,0.035,866.6666666666666
-0.215,0.03,869.4444444444445
-0.14,0.025,872.2222222222222
-0.11,-0.01,875.0
-0.165,-0.045,877.7777777777778
-0.245,-0.065,880.5555555555555
-0.29,-0.1,883.3333333333334
-0.29,-0.08,886.1111111111111
-0.28,-0.1,888.8888888888889
-0.275,-0.1,891.6666666666666
-0.225,-0.12,894.4444444444445
-0.2,-0.14,897.2222222222222
-0.21,-0.155,900.0
-0.265,-0.17,902.7777777777778
-0.28,-0.19,905.5555555555555
-0.235,-0.215,908.3333333333334
-0.195,-0.26,911.1111111111111
-0.185,-0.27,913.8888888888889
-0.2,-0.255,916.6666666666666
-0.185,-0.21,919.4444444444445
-0.125,-0.16,922.2222222222222
-0.05,-0.155,925.0
0.02,-0.15,927.7777777777778
0.0,-0.145,930.5555555555555
-0.09,-0.125,933.3333333333334
-0.17,-0.1,936.1111111111111
-0.205,-0.08,938.8888888888889
-0.18,-0.065,941.6666666666666
-0.09,-0.06,944.4444444444445
-0.025,-0.045,947.2222222222222
-0.06,-0.01,950.0
-0.175,0.03,952.7777777777778
-0.215,0.05,955.5555555555555
-0.175,0.025,958.3333333333334
-0.155,0.01,961.1111111111111
-0.145,-0.03,963.8888888888889
-0.08,-0.055,966.6666666666666
0.015,-0.055,969.4444444444445
0.01,-0.035,972.2222222222222
-0.1,-0.045,975.0
-0.18,-0.045,977.7777777777778
-0.18,-0.045,980.5555555555555
-0.11,-0.015,983.3333333333334
-0.125,0.015,986.1111111111111
-0.205,0.045,988.8888888888889
-0.235,0.025,991.6666666666666
-0.19,-0.005,994.4444444444445
-0.125,-0.04,997.2222222222222
-0.12,-0.05,1000.0
-0.13,-0.03,1002.7777777777778
-0.105,0.0,1005.5555555555555
-0.035,0.01,1008.3333333333334
-0.03,0.025,1011.1111111111111
-0.16,0.0,1013.8888888888889
-0.325,0.035,1016.6666666666666
-0.33,0.095,1019.4444444444445
-0.24,0.165,1022.2222222222222
-0.185,0.205,1025.0
-0.205,0.21,1027.7777777777778
-0.19,0.16,1030.5555555555557
-0.155,0.11,1033.3333333333333
-0.15,0.06,1036.111111111111
-0.155,0.04,1038.888888888889
-0.19,0.01,1041.6666666666667
-0.18,-0.005,1044.4444444444443
-0.125,-0.015,1047.2222222222222
-0.095,-0.01,1050.0
-0.105,-0.02,1052.7777777777778
-0.055,-0.03,1055.5555555555557
-0.02,-0.06,1058.3333333333333
-0.065,-0.095,1061.111111111111
-0.145,-0.13,1063.888888888889
-0.205,-0.13,1066.6666666666667
-0.185,-0.115,1069.4444444444443
-0.135,-0.1,1072.2222222222222
-0.125,-0.105,1075.0
-0.155,-0.12,1077.7777777777778
-0.185,-0.14,1080.5555555555557
-0.14,-0.14,1083.3333333333333
-0.08,-0.115,1086.111111111111
-0.02,-0.105,1088.888888888889
-0.01,-0.075,1091.6666666666667
-0.03,-0.065,1094.4444444444443
-0.035,-0.065,1097.2222222222222
-0.015,-0.06,1100.0
-0.005,-0.045,1102.7777777777778
-0.02,-0.03,1105.5555555555557
-0.105,-0.04,1108.3333333333333
-0.2,-0.04,1111.111111111111
-0.235,0.0,1113.888888888889
-0.185,0.045,1116.6666666666667
-0.155,0.095,1119.4444444444443
-0.145,0.115,1122.2222222222222
-0.075,0.105,1125.0
-0.03,0.085,1127.7777777777778
-0.055,0.035,1130.5555555555557
-0.085,-0.005,1133.3333333333333
-0.09,-0.015,1136.111111111111
-0.05,0.015,1138.888888888889
0.03,0.005,1141.6666666666667
0.135,0.01,1144.4444444444443
0.19,0.01,1147.2222222222222
0.185,0.03,1150.0
0.17,0.035,1152.7777777777778
0.17,0.01,1155.5555555555557
0.16,0.015,1158.3333333333333
0.125,-0.005,1161.111111111111
0.115,-0.005,1163.888888888889
0.245,0.005,1166.6666666666667
0.47,-0.005,1169.4444444444443
0.69,-0.02,1172.2222222222222
0.86,-0.08,1175.0
1.04,-0.14,1177.7777777777778
1.265,-0.215,1180.5555555555557
1.485,-0.29,1183.3333333333333
1.67,-0.36,1186.111111111111
1.76,-0.37,1188.888888888889
1.815,-0.375,1191.6666666666667
1.8,-0.425,1194.4444444444443
1.715,-0.48,1197.2222222222222
1.63,-0.54,1200.0
1.635,-0.59,1202.7777777777778
1.625,-0.635,1205.5555555555557
1.535,-0.66,1208.3333333333333
1.375,-0.72,1211.111111111111
1.21,-0.73,1213.888888888889
1.065,-0.715,1216.6666666666667
0.9,-0.655,1219.4444444444443
0.68,-0.595,1222.2222222222222
0.33,-0.54,1225.0
0.035,-0.505,1227.7777777777778
-0.08,-0.455,1230.5555555555557
-0.08,-0.4,1233.3333333333333
-0.085,-0.37,1236.111111111111
-0.075,-0.345,1238.888888888889
-0.07,-0.355,1241.6666666666667
-0.12,-0.37,1244.4444444444443
-0.27,-0.365,1247.2222222222222
-0.445,-0.32,1250.0
-0.55,-0.285,1252.7777777777778
-0.565,-0.22,1255.5555555555557
-0.47,-0.19,1258.3333333333333
-0.3,-0.195,1261.111111111111
-0.22,-0.185,1263.888888888889
-0.305,-0.165,1266.6666666666667
-0.5,-0.13,1269.4444444444443
-0.645,-0.1,1272.2222222222222
-0.66,-0.085,1275.0
-0.585,-0.08,1277.7777777777778
-0.5,-0.055,1280.5555555555557
-0.445,-0.04,1283.3333333333333
-0.455,-0.02,1286.111111111111
-0.465,0.015,1288.888888888889
-0.465,0.02,1291.6666666666667
-0.5,0.025,1294.4444444444443
-0.47,0.02,1297.2222222222222
-0.43,0.01,1300.0
-0.4,0.005,1302.7777777777778
-0.435,-0.005,1305.5555555555557
-0.475,-0.05,1308.3333333333333
-0.46,-0.07,1311.111111111111
-0.445,-0.05,1313.888888888889
-0.475,-0.02,1316.6666666666667
-0.55,0.035,1319.4444444444443
-0.64,0.08,1322.2222222222222
-0.655,0.12,1325.0
-0.61,0.125,1327.7777777777778
-0.545,0.13,1330.5555555555557
-0.475,0.155,1333.3333333333333
-0.425,0.165,1336.111111111111
-0.395,0.195,1338.888888888889
-0.41,0.205,1341.6666666666667
-0.415,0.225,1344.4444444444443
-0.46,0.235,1347.2222222222222
-0.475,0.245,1350.0
-0.465,0.28,1352.7777777777778
-0.435,0.325,1355.5555555555557
-0.405,0.335,1358.3333333333333
-0.38,0.345,1361.111111111111
-0.375,0.33,1363.888888888889
-0.38,0.345,1366.6666666666667
-0.395,0.365,1369.4444444444443
-0.42,0.375,1372.2222222222222
-0.455,0.37,1375.0
-0.49,0.335,1377.7777777777778
-0.51,0.275,1380.5555555555557
-0.475,0.25,1383.3333333333333
-0.415,0.235,1386.111111111111
-0.355,0.195,1388.888888888889
-0.34,0.135,1391.6666666666667
-0.345,0.04,1394.4444444444443
-0.35,-0.02,1397.2222222222222
-0.3,-0.055,1400.0
-0.2,-0.075,1402.7777777777778
-0.105,-0.105,1405.5555555555557
-0.045,-0.135,1408.3333333333333
-0.065,-0.16,1411.111111111111
-0.165,-0.165,1413.888888888889
-0.25,-0.15,1416.6666666666667
-0.285,-0.125,1419.4444444444443
-0.215,-0.105,1422.2222222222222
-0.07,-0.095,1425.0
0.06,-0.1,1427.7777777777778
0.095,-0.12,1430.5555555555557
-0.035,-0.09,1433.3333333333333
-0.15,-0.06,1436.111111111111
-0.09,-0.03,1438.888888888889
0.06,-0.01,1441.6666666666667
0.135,-0.02,1444.4444444444443
0.06,-0.025,1447.2222222222222
-0.11,-0.005,1450.0
-0.215,-0.03,1452.7777777777778
-0.165,-0.02,1455.5555555555557
-0.08,-0.055,1458.3333333333333
-0.04,-0.08,1461.111111111111
-0.055,-0.1,1463.888888888889
-0.03,-0.07,1466.6666666666667
-0.025,-0.015,1469.4444444444443
-0.04,0.015,1472.2222222222222
-0.035,0.045,1475.0
-0.08,0.025,1477.7777777777778
-0.1,0.02,1480.5555555555557
-0.05,0.005,1483.3333333333333
0.055,0.01,1486.111111111111
0.075,0.01,1488.888888888889
0.0,-0.01,1491.6666666666667
-0.135,-0.03,1494.4444444444443
-0.2,-0.02,1497.2222222222222
-0.15,0.025,1500.0
-0.07,0.06,1502.7777777777778
-0.02,0.1,1505.5555555555557
0.01,0.1,1508.3333333333333
0.015,0.055,1511.111111111111
0.04,0.03,1513.888888888889
-0.015,0.035,1516.6666666666667
-0.095,0.065,1519.4444444444443
-0.185,0.095,1522.2222222222222
-0.19,0.13,1525.0
-0.155,0.13,1527.7777777777778
-0.1,0.135,1530.5555555555557
-0.06,0.165,1533.3333333333333
-0.025,0.185,1536.111111111111
-0.005,0.195,1538.888888888889
0.015,0.18,1541.6666666666667
0.03,0.17,1544.4444444444443
0.025,0.165,1547.2222222222222
0.02,0.19,1550.0
-0.015,0.165,1552.7777777777778
-0.045,0.145,1555.5555555555557
-0.08,0.08,1558.3333333333333
-0.085,0.035,1561.111111111111
-0.09,0.015,1563.888888888889
-0.085,-0.005,1566.6666666666667
-0.08,-0.005,1569.4444444444443
-0.105,-0.025,1572.2222222222222
-0.1,-0.065,1575.0
-0.09,-0.085,1577.7777777777778
-0.025,-0.095,1580.5555555555557
-0.01,-0.075,1583.3333333333333
-0.04,-0.06,1586.111111111111
-0.09,-0.055,1588.888888888889
-0.105,-0.07,1591.6666666666667
-0.055,-0.08,1594.4444444444443
-0.01,-0.085,1597.2222222222222
-0.025,-0.08,1600.0
-0.09,-0.045,1602.7777777777778
-0.14,-0.04,1605.5555555555557
-0.19,-0.035,1608.3333333333333
-0.225,-0.04,1611.111111111111
-0.21,-0.07,1613.888888888889
-0.11,-0.05,1616.6666666666667
-0.05,-0.035,1619.4444444444443
-0.055,-0.015,1622.2222222222222
-0.07,-0.01,1625.0
-0.045,0.005,1627.7777777777778
-0.075,-0.005,1630.5555555555557
-0.12,0.01,1633.3333333333333
-0.125,0.015,1636.111111111111
-0.025,0.05,1638.888888888889
0.1,0.035,1641.6666666666667
0.175,0.03,1644.4444444444443
0.085,0.01,1647.2222222222222
-0.095,0.025,1650.0
-0.2,0.04,1652.7777777777778
-0.22,0.055,1655.5555555555557
-0.16,0.05,1658.3333333333333
-0.095,0.045,1661.111111111111
-0.055,0.04,1663.888888888889
-0.07,0.075,1666.6666666666667
-0.075,0.135,1669.4444444444443
-0.075,0.165,1672.2222222222222
-0.125,0.15,1675.0
-0.2,0.12,1677.7777777777778
-0.26,0.07,1680.5555555555557
-0.18,0.06,1683.3333333333333
-0.065,0.05,1686.111111111111
0.015,0.06,1688.888888888889
0.02,0.035,1691.6666666666667
-0.05,0.04,1694.4444444444443
-0.155,0.045,1697.2222222222222
-0.215,0.06,1700.0
-0.175,0.08,1702.7777777777778
-0.055,0.04,1705.5555555555557
0.07,0.02,1708.3333333333333
0.11,-0.02,1711.111111111111
0.01,-0.04,1713.888888888889
-0.11,-0.04,1716.6666666666667
-0.19,-0.01,1719.4444444444443
-0.2,-0.02,1722.2222222222222
-0.17,-0.04,1725.0
-0.095,-0.09,1727.7777777777778
-0.055,-0.145,1730.5555555555557
-0.05,-0.17,1733.3333333333333
-0.05,-0.19,1736.111111111111
-0.06,-0.17,1738.888888888889
-0.085,-0.18,1741.6666666666667
-0.125,-0.16,1744.4444444444443
-0.13,-0.175,1747.2222222222222
-0.105,-0.135,1750.0
-0.05,-0.095,1752.7777777777778
0.005,-0.06,1755.5555555555557
-0.01,-0.05,1758.3333333333333
-0.07,-0.015,1761.111111111111
-0.12,0.03,1763.888888888889
-0.125,0.095,1766.6666666666667
-0.035,0.145,1769.4444444444443
0.065,0.165,1772.2222222222222
0.095,0.135,1775.0
0.08,0.09,1777.7777777777778
0.015,0.045,1780.5555555555557
-0.06,0.025,1783.3333333333333
-0.08,0.045,1786.111111111111
0.03,0.07,1788.888888888889
0.2,0.075,1791.6666666666667
0.31,0.085,1794.4444444444443
0.335,0.09,1797.2222222222222
0.335,0.15,1800.0
0.4,0.175,1802.7777777777778
0.48,0.175,1805.5555555555557
0.59,0.135,1808.3333333333333
0.745,0.1,1811.111111111111
0.975,0.055,1813.888888888889
1.215,0.025,1816.6666666666667
1.4,-0.025,1819.4444444444443
1.48,-0.095,1822.2222222222222
1.46,-0.175,1825.0
1.42,-0.245,1827.7777777777778
1.425,-0.3,1830.5555555555557
1.455,-0.335,1833.3333333333333
1.51,-0.37,1836.111111111111
1.545,-0.42,1838.888888888889
1.54,-0.51,1841.6666666666667
1.34,-0.58,1844.4444444444443
1.07,-0.61,1847.2222222222222
0.85,-0.585,1850.0
0.735,-0.525,1852.7777777777778
0.64,-0.47,1855.5555555555557
0.405,-0.39,1858.3333333333333
0.095,-0.33,1861.111111111111
-0.145,-0.26,1863.888888888889
-0.195,-0.205,1866.6666666666667
-0.17,-0.15,1869.4444444444443
-0.165,-0.105,1872.2222222222222
-0.235,-0.105,1875.0
-0.335,-0.145,1877.7777777777778
-0.39,-0.15,1880.5555555555557
-0.365,-0.12,1883.3333333333333
-0.355,-0.085,1886.111111111111
-0.37,-0.04,1888.888888888889
-0.42,-0.015,1891.6666666666667
-0.455,-0.025,1894.4444444444443
-0.46,-0.05,1897.2222222222222
-0.425,-0.11,1900.0
-0.405,-0.135,1902.7777777777778
-0.38,-0.145,1905.5555555555557
-0.365,-0.155,1908.3333333333333
-0.365,-0.17,1911.111111111111
-0.365,-0.135,1913.888888888889
-0.375,-0.095,1916.6666666666667
-0.41,-0.055,1919.4444444444443
-0.445,-0.035,1922.2222222222222
-0.435,-0.05,1925.0
-0.38,-0.085,1927.7777777777778
-0.355,-0.095,1930.5555555555557
-0.365,-0.095,1933.3333333333333
-0.365,-0.075,1936.111111111111
-0.305,-0.045,1938.888888888889
-0.32,-0.035,1941.6666666666667
-0.46,-0.025,1944.4444444444443
-0.59,-0.01,1947.2222222222222
-0.635,0.005,1950.0
-0.565,0.04,1952.7777777777778
-0.495,0.07,1955.5555555555557
-0.47,0.085,1958.3333333333333
-0.48,0.125,1961.111111111111
-0.465,0.135,1963.888888888889
-0.42,0.19,1966.6666666666667
-0.37,0.23,1969.4444444444443
-0.385,0.29,1972.2222222222222
-0.4,0.305,1975.0
-0.475,0.29,1977.7777777777778
-0.535,0.26,1980.5555555555557
-0.52,0.245,1983.3333333333333
-0.44,0.225,1986.111111111111
-0.345,0.205,1988.888888888889
-0.245,0.185,1991.6666666666667
-0.185,0.14,1994.4444444444443
-0.225,0.125,1997.2222222222222
-0.29,0.115,2000.0
-0.32,0.135,2002.7777777777778
-0.285,0.145,2005.5555555555557
-0.25,0.16,2008.3333333333333
-0.265,0.175,2011.111111111111
-0.33,0.165,2013.888888888889
-0.36,0.17,2016.6666666666667
-0.31,0.185,2019.4444444444443
-0.155,0.215,2022.2222222222222
-0.065,0.215,2025.0
-0.155,0.215,2027.7777777777778
-0.32,0.18,2030.5555555555557
-0.335,0.18,2033.3333333333333
-0.235,0.165,2036.111111111111
-0.12,0.155,2038.888888888889
-0.08,0.115,2041.6666666666667
-0.145,0.085,2044.4444444444443
-0.23,0.07,2047.2222222222222
-0.27,0.055,2050.0
-0.195,0.06,2052.777777777778
-0.04,0.04,2055.5555555555557
0.055,0.015,2058.3333333333335
0.05,-0.01,2061.1111111111113
-0.05,-0.045,2063.8888888888887
-0.115,-0.08,2066.6666666666665
-0.145,-0.065,2069.4444444444443
-0.09,-0.03,2072.222222222222
-0.035,0.02,2075.0
0.0,0.055,2077.777777777778
-0.015,0.055,2080.5555555555557
-0.02,0.04,2083.3333333333335
-0.04,0.02,2086.1111111111113
-0.095,-0.035,2088.8888888888887
-0.145,-0.06,2091.6666666666665
-0.13,-0.08,2094.4444444444443
-0.12,-0.1,2097.222222222222
-0.135,-0.055,2100.0
-0.125,-0.01,2102.777777777778
-0.1,0.035,2105.5555555555557
-0.135,0.06,2108.3333333333335
-0.215,0.08,2111.1111111111113
-0.275,0.095,2113.8888888888887
-0.235,0.115,2116.6666666666665
-0.155,0.115,2119.4444444444443
-0.145,0.105,2122.222222222222
-0.205,0.095,2125.0
-0.355,0.095,2127.777777777778
-0.455,0.125,2130.5555555555557
-0.415,0.135,2133.3333333333335
-0.285,0.195,2136.1111111111113
-0.2,0.21,2138.8888888888887
-0.225,0.22,2141.6666666666665
-0.295,0.21,2144.4444444444443
-0.345,0.21,2147.222222222222
-0.365,0.265,2150.0
-0.36,0.295,2152.777777777778
-0.345,0.345,2155.5555555555557
-0.32,0.325,2158.3333333333335
-0.32,0.29,2161.1111111111113
-0.32,0.24,2163.8888888888887
-0.305,0.21,2166.6666666666665
-0.24,0.205,2169.4444444444443
-0.195,0.2,2172.222222222222
-0.235,0.175,2175.0
-0.33,0.13,2177.777777777778
-0.375,0.08,2180.5555555555557
-0.345,0.045,2183.3333333333335
-0.265,0.015,2186.1111111111113
-0.18,0.025,2188.8888888888887
-0.15,0.01,2191.6666666666665
-0.195,-0.01,2194.4444444444443
-0.23,-0.025,2197.222222222222
-0.245,0.005,2200.0
-0.305,0.02,2202.777777777778
-0.36,0.015,2205.5555555555557
-0.38,-0.01,2208.3333333333335
-0.35,-0.055,2211.1111111111113
-0.245,-0.08,2213.8888888888887
-0.185,-0.115,2216.6666666666665
-0.175,-0.145,2219.4444444444443
-0.185,-0.13,2222.222222222222
-0.24,-0.125,2225.0
-0.285,-0.1,2227.777777777778
-0.305,-0.08,2230.5555555555557
-0.305,-0.055,2233.3333333333335
-0.235,-0.015,2236.1111111111113
-0.185,-0.015,2238.8888888888887
-0.19,-0.015,2241.6666666666665
-0.235,-0.05,2244.4444444444443
-0.235,-0.065,2247.222222222222
-0.155,-0.055,2250.0
-0.065,-0.035,2252.777777777778
-0.08,0.015,2255.5555555555557
-0.17,0.08,2258.3333333333335
-0.28,0.11,2261.1111111111113
-0.32,0.115,2263.8888888888887
-0.32,0.115,2266.6666666666665
-0.305,0.075,2269.4444444444443
-0.245,0.03,2272.222222222222
-0.175,0.005,2275.0
-0.15,-0.015,2277.777777777778
-0.175,0.025,2280.5555555555557
-0.235,0.085,2283.3333333333335
-0.31,0.155,2286.1111111111113
-0.34,0.205,2288.8888888888887
-0.32,0.165,2291.6666666666665
-0.27,0.135,2294.4444444444443
-0.23,0.09,2297.222222222222
-0.275,0.07,2300.0
-0.37,0.105,2302.777777777778
-0.385,0.145,2305.5555555555557
-0.315,0.165,2308.3333333333335
-0.25,0.165,2311.1111111111113
-0.25,0.2,2313.8888888888887
-0.265,0.24,2316.6666666666665
-0.24,0.285,2319.4444444444443
-0.2,0.295,2322.222222222222
-0.215,0.225,2325.0
-0.29,0.16,2327.777777777778
-0.335,0.085,2330.5555555555557
-0.29,0.06,2333.3333333333335
-0.245,0.07,2336.1111111111113
-0.23,0.085,2338.8888888888887
-0.23,0.07,2341.6666666666665
-0.24,0.07,2344.4444444444443
-0.215,0.06,2347.222222222222
-0.17,0.07,2350.0
-0.135,0.09,2352.777777777778
-0.015,0.095,2355.5555555555557
0.09,0.115,2358.3333333333335
0.185,0.12,2361.1111111111113
0.185,0.125,2363.8888888888887
0.185,0.15,2366.6666666666665
0.24,0.15,2369.4444444444443
0.325,0.12,2372.222222222222
0.505,0.05,2375.0
0.82,-0.015,2377.777777777778
1.1,-0.075,2380.5555555555557
1.19,-0.145,2383.3333333333335
1.15,-0.18,2386.1111111111113
1.085,-0.215,2388.8888888888887
1.08,-0.235,2391.6666666666665
1.145,-0.27,2394.4444444444443
1.22,-0.31,2397.222222222222
1.28,-0.35,2400.0
1.255,-0.445,2402.777777777778
1.1,-0.48,2405.5555555555557
0.835,-0.54,2408.3333333333335
0.555,-0.555,2411.1111111111113
0.305,-0.53,2413.8888888888887
0.15,-0.485,2416.6666666666665
0.095,-0.41,2419.4444444444443
0.09,-0.335,2422.222222222222
0.055,-0.275,2425.0
-0.09,-0.215,2427.777777777778
-0.29,-0.15,2430.5555555555557
-0.435,-0.085,2433.3333333333335
-0.465,-0.005,2436.1111111111113
-0.435,0.04,2438.8888888888887
-0.365,0.07,2441.6666666666665
-0.285,0.07,2444.4444444444443
-0.265,0.075,2447.222222222222
-0.345,0.09,2450.0
-0.455,0.14,2452.777777777778
-0.535,0.185,2455.5555555555557
-0.52,0.215,2458.3333333333335
-0.445,0.245,2461.1111111111113
-0.38,0.27,2463.8888888888887
-0.46,0.295,2466.6666666666665
-0.615,0.27,2469.4444444444443
-0.68,0.25,2472.222222222222
-0.665,0.185,2475.0
-0.58,0.14,2477.777777777778
-0.55,0.12,2480.5555555555557
-0.535,0.145,2483.3333333333335
-0.55,0.185,2486.1111111111113
-0.53,0.195,2488.8888888888887
-0.525,0.165,2491.6666666666665
-0.545,0.115,2494.4444444444443
-0.565,0.06,2497.222222222222
-0.585,0.055,2500.0
-0.58,0.04,2502.777777777778
-0.565,0.04,2505.5555555555557
-0.53,0.025,2508.3333333333335
-0.49,0.01,2511.1111111111113
-0.46,0.0,2513.8888888888887
-0.48,0.005,2516.6666666666665
-0.57,0.025,2519.4444444444443
-0.6,0.035,2522.222222222222
-0.565,0.005,2525.0
-0.47,-0.005,2527.777777777778
-0.445,-0.015,2530.5555555555557
-0.46,0.015,2533.3333333333335
-0.495,0.03,2536.1111111111113
-0.465,0.02,2538.8888888888887
-0.375,-0.005,2541.6666666666665
-0.305,-0.02,2544.4444444444443
-0.365,0.005,2547.222222222222
-0.48,0.025,2550.0
-0.59,0.045,2552.777777777778
-0.605,0.07,2555.5555555555557
-0.53,0.045,2558.3333333333335
-0.505,0.005,2561.1111111111113
-0.425,0.005,2563.8888888888887
-0.345,0.015,2566.6666666666665
-0.3,0.03,2569.4444444444443
-0.32,0.06,2572.222222222222
-0.375,0.055,2575.0
-0.4,0.07,2577.777777777778
-0.43,0.1,2580.5555555555557
-0.45,0.14,2583.3333333333335
-0.39,0.17,2586.1111111111113
-0.285,0.185,2588.8888888888887
-0.255,0.17,2591.6666666666665
-0.315,0.16,2594.4444444444443
-0.315,0.155,2597.222222222222
-0.28,0.19,2600.0
-0.26,0.235,2602.777777777778
-0.275,0.29,2605.5555555555557
-0.26,0.315,2608.3333333333335
-0.185,0.305,2611.1111111111113
-0.12,0.265,2613.8888888888887
-0.145,0.225,2616.6666666666665
-0.2,0.2,2619.4444444444443
-0.205,0.195,2622.222222222222
-0.16,0.185,2625.0
-0.13,0.175,2627.777777777778
-0.175,0.185,2630.5555555555557
-0.26,0.185,2633.3333333333335
-0.315,0.23,2636.1111111111113
-0.295,0.25,2638.8888888888887
-0.245,0.255,2641.6666666666665
-0.19,0.21,2644.4444444444443
-0.125,0.18,2647.222222222222
-0.095,0.165,2650.0
-0.12,0.16,2652.777777777778
-0.23,0.17,2655.5555555555557
-0.345,0.155,2658.3333333333335
-0.34,0.125,2661.1111111111113
-0.275,0.14,2663.8888888888887
-0.265,0.11,2666.6666666666665
-0.285,0.095,2669.4444444444443
-0.29,0.065,2672.222222222222
-0.245,0.01,2675.0
-0.24,-0.03,2677.777777777778
-0.245,-0.055,2680.5555555555557
-0.2,-0.055,2683.3333333333335
-0.105,-0.05,2686.1111111111113
-0.03,-0.055,2688.8888888888887
-0.085,-0.07,2691.6666666666665
-0.27,-0.085,2694.4444444444443
-0.395,-0.08,2697.222222222222
-0.3,-0.06,2700.0
-0.1,-0.06,2702.777777777778
-0.07,-0.045,2705.5555555555557
-0.225,-0.055,2708.3333333333335
-0.37,-0.055,2711.1111111111113
-0.34,-0.04,2713.8888888888887
-0.185,-0.015,2716.6666666666665
-0.01,0.03,2719.4444444444443
0.055,0.07,2722.222222222222
-0.04,0.11,2725.0
-0.21,0.155,2727.777777777778
-0.31,0.2,2730.5555555555557
-0.375,0.285,2733.3333333333335
-0.42,0.38,2736.1111111111113
-0.46,0.455,2738.8888888888887
-0.455,0.485,2741.6666666666665
-0.38,0.47,2744.4444444444443
-0.33,0.385,2747.222222222222
-0.35,0.265,2750.0
-0.345,0.125,2752.777777777778
-0.23,-0.005,2755.5555555555557
-0.055,-0.125,2758.3333333333335
0.075,-0.195,2761.1111111111113
0.17,-0.205,2763.8888888888887
0.255,-0.245,2766.6666666666665
0.345,-0.27,2769.4444444444443
0.4,-0.32,2772.222222222222
0.62,-0.345,2775.0
0.795,-0.38,2777.777777777778
0.865,-0.39,2780.5555555555557
0.815,-0.385,2783.3333333333335
0.765,-0.33,2786.1111111111113
0.735,-0.33,2788.8888888888887
0.605,-0.33,2791.6666666666665
0.4,-0.35,2794.4444444444443
0.215,-0.34,2797.222222222222
0.095,-0.315,2800.0
-0.015,-0.3,2802.777777777778
-0.18,-0.255,2805.5555555555557
-0.305,-0.23,2808.3333333333335
-0.365,-0.185,2811.1111111111113
-0.375,-0.14,2813.8888888888887
-0.405,-0.095,2816.6666666666665
-0.435,-0.045,2819.4444444444443
-0.505,-0.035,2822.222222222222
-0.585,-0.01,2825.0
-0.64,0.005,2827.777777777778
-0.625,0.045,2830.5555555555557
-0.51,0.065,2833.3333333333335
-0.405,0.08,2836.1111111111113
-0.35,0.045,2838.8888888888887
-0.39,0.03,2841.6666666666665
-0.505,0.035,2844.4444444444443
-0.585,0.055,2847.222222222222
-0.615,0.08,2850.0
-0.605,0.11,2852.777777777778
-0.635,0.1,2855.5555555555557
-0.69,0.085,2858.3333333333335
-0.695,0.07,2861.1111111111113
-0.65,0.075,2863.8888888888887
-0.6,0.085,2866.6666666666665
-0.57,0.14,2869.4444444444443
-0.58,0.165,2872.222222222222
-0.56,0.195,2875.0
-0.575,0.2,2877.777777777778
-0.6,0.185,2880.5555555555557
-0.57,0.17,2883.3333333333335
-0.535,0.155,2886.1111111111113
-0.535,0.14,2888.8888888888887
-0.545,0.155,2891.6666666666665
-0.535,0.175,2894.4444444444443
-0.46,0.215,2897.222222222222
-0.335,0.235,2900.0
-0.32,0.24,2902.777777777778
-0.435,0.205,2905.5555555555557
-0.56,0.195,2908.3333333333335
-0.655,0.21,2911.1111111111113
-0.66,0.25,2913.8888888888887
-0.56,0.295,2916.6666666666665
-0.48,0.335,2919.4444444444443
-0.455,0.35,2922.222222222222
-0.445,0.35,2925.0
-0.405,0.365,2927.777777777778
-0.33,0.375,2930.5555555555557
-0.27,0.39,2933.3333333333335
-0.275,0.41,2936.1111111111113
-0.33,0.38,2938.8888888888887
-0.375,0.32,2941.6666666666665
-0.37,0.275,2944.4444444444443
-0.37,0.235,2947.222222222222
-0.395,0.23,2950.0
-0.355,0.215,2952.777777777778
-0.275,0.185,2955.5555555555557
-0.21,0.14,2958.3333333333335
-0.205,0.14,2961.1111111111113
-0.195,0.155,2963.8888888888887
-0.19,0.17,2966.6666666666665
-0.225,0.215,2969.4444444444443
-0.295,0.22,2972.222222222222
-0.39,0.21,2975.0
-0.43,0.185,2977.777777777778
-0.425,0.155,2980.5555555555557
-0.385,0.135,2983.3333333333335
-0.33,0.125,2986.1111111111113
-0.265,0.095,2988.8888888888887
-0.255,0.07,2991.6666666666665
-0.295,0.08,2994.4444444444443
-0.32,0.11,2997.222222222222
-0.31,0.14,3000.0
-0.29,0.16,3002.777777777778
-0.28,0.155,3005.5555555555557
-0.315,0.135,3008.3333333333335
-0.335,0.135,3011.1111111111113
-0.37,0.15,3013.8888888888887
-0.37,0.185,3016.6666666666665
-0.35,0.195,3019.4444444444443
-0.295,0.205,3022.222222222222
-0.24,0.19,3025.0
-0.25,0.17,3027.777777777778
-0.27,0.13,3030.5555555555557
-0.31,0.12,3033.3333333333335
-0.41,0.125,3036.1111111111113
-0.555,0.13,3038.8888888888887
-0.61,0.145,3041.6666666666665
-0.525,0.19,3044.4444444444443
-0.435,0.21,3047.222222222222
-0.425,0.255,3050.0
-0.41,0.29,3052.777777777778
-0.39,0.305,3055.5555555555557
-0.37,0.285,3058.3333333333335
-0.37,0.23,3061.1111111111113
-0.385,0.185,3063.8888888888887
-0.42,0.165,3066.6666666666665
-0.44,0.155,3069.4444444444443
-0.43,0.16,3072.222222222222
-0.415,0.17,3075.0
-0.435,0.205,3077.777777777778
-0.415,0.22,3080.5555555555557
-0.35,0.225,3083.3333333333335
-0.32,0.195,3086.1111111111113
-0.395,0.145,3088.8888888888887
-0.51,0.1,3091.6666666666665
-0.54,0.095,3094.4444444444443
-0.43,0.08,3097.222222222222
-0.365,0.115,3100.0
-0.41,0.12,3102.777777777778
-0.475,0.11,3105.5555555555557
-0.54,0.105,3108.3333333333335
-0.545,0.09,3111.1111111111113
-0.5,0.11,3113.8888888888887
-0.415,0.125,3116.6666666666665
-0.405,0.16,3119.4444444444443
-0.43,0.14,3122.222222222222
-0.46,0.15,3125.0
-0.485,0.15,3127.777777777778
-0.52,0.135,3130.5555555555557
-0.49,0.14,3133.3333333333335
-0.45,0.175,3136.1111111111113
-0.42,0.175,3138.8888888888887
-0.43,0.19,3141.6666666666665
-0.46,0.185,3144.4444444444443
-0.48,0.155,3147.222222222222
-0.44,0.165,3150.0
-0.42,0.145,3152.777777777778
-0.495,0.085,3155.5555555555557
-0.57,0.04,3158.3333333333335
-0.55,0.055,3161.1111111111113
-0.52,0.1,3163.8888888888887
-0.57,0.135,3166.6666666666665
-0.615,0.18,3169.4444444444443
-0.575,0.175,3172.222222222222
-0.5,0.195,3175.0
-0.46,0.205,3177.777777777778
-0.455,0.23,3180.5555555555557
-0.515,0.255,3183.3333333333335
-0.555,0.26,3186.1111111111113
-0.575,0.24,3188.8888888888887
-0.525,0.2,3191.6666666666665
-0.52,0.185,3194.4444444444443
-0.46,0.18,3197.222222222222
-0.425,0.2,3200.0
-0.43,0.26,3202.777777777778
-0.515,0.27,3205.5555555555557
-0.585,0.29,3208.3333333333335
-0.59,0.275,3211.1111111111113
-0.585,0.27,3213.8888888888887
-0.54,0.245,3216.6666666666665
-0.465,0.225,3219.4444444444443
-0.455,0.17,3222.222222222222
-0.48,0.115,3225.0
-0.485,0.075,3227.777777777778
-0.485,0.06,3230.5555555555557
-0.525,0.07,3233.3333333333335
-0.595,0.1,3236.1111111111113
-0.595,0.075,3238.8888888888887
-0.46,0.035,3241.6666666666665
-0.285,-0.02,3244.4444444444443
-0.29,-0.035,3247.222222222222
-0.495,-0.045,3250.0
-0.675,-0.01,3252.777777777778
-0.735,0.005,3255.5555555555557
-0.7,0.035,3258.3333333333335
-0.635,0.055,3261.1111111111113
-0.605,0.09,3263.8888888888887
-0.64,0.105,3266.6666666666665
-0.63,0.125,3269.4444444444443
-0.585,0.11,3272.222222222222
-0.565,0.085,3275.0
-0.505,0.065,3277.777777777778
-0.47,0.075,3280.5555555555557
-0.51,0.09,3283.3333333333335
-0.545,0.14,3286.1111111111113
-0.47,0.175,3288.8888888888887
-0.4,0.185,3291.6666666666665
-0.53,0.2,3294.4444444444443
-0.725,0.24,3297.222222222222
-0.765,0.24,3300.0
-0.65,0.235,3302.777777777778
-0.61,0.205,3305.5555555555557
-0.615,0.165,3308.3333333333335
-0.585,0.15,3311.1111111111113
-0.57,0.145,3313.8888888888887
-0.54,0.155,3316.6666666666665
-0.5,0.185,3319.4444444444443
-0.535,0.18,3322.222222222222
-0.675,0.185,3325.0
-0.795,0.175,3327.777777777778
-0.855,0.21,3330.5555555555557
-0.86,0.24,3333.3333333333335
-0.8,0.245,3336.1111111111113
-0.66,0.245,3338.8888888888887
-0.585,0.255,3341.6666666666665
-0.575,0.25,3344.4444444444443
-0.58,0.265,3347.222222222222
-0.625,0.3,3350.0
-0.62,0.32,3352.777777777778
-0.61,0.3,3355.5555555555557
-0.605,0.29,3358.3333333333335
-0.585,0.24,3361.1111111111113
-0.575,0.255,3363.8888888888887
-0.53,0.245,3366.6666666666665
-0.51,0.235,3369.4444444444443
-0.48,0.225,3372.222222222222
-0.495,0.225,3375.0
-0.52,0.215,3377.777777777778
-0.525,0.2,3380.5555555555557
-0.48,0.19,3383.3333333333335
-0.46,0.145,3386.1111111111113
-0.505,0.085,3388.8888888888887
-0.51,0.035,3391.6666666666665
-0.5,0.0,3394.4444444444443
-0.555,0.015,3397.222222222222
-0.67,0.04,3400.0
-0.705,0.06,3402.777777777778
-0.605,0.06,3405.5555555555557
-0.465,0.065,3408.3333333333335
-0.39,0.055,3411.1111111111113
-0.46,0.08,3413.8888888888887
-0.62,0.095,3416.6666666666665
-0.75,0.1,3419.4444444444443
-0.765,0.12,3422.222222222222
-0.63,0.11,3425.0
-0.485,0.13,3427.777777777778
-0.455,0.125,3430.5555555555557
-0.495,0.175,3433.3333333333335
-0.56,0.185,3436.1111111111113
-0.595,0.17,3438.8888888888887
-0.61,0.155,3441.6666666666665
-0.64,0.135,3444.4444444444443
-0.665,0.15,3447.222222222222
-0.61,0.155,3450.0
-0.52,0.17,3452.777777777778
-0.42,0.17,3455.5555555555557
-0.41,0.165,3458.3333333333335
-0.47,0.19,3461.1111111111113
-0.585,0.22,3463.8888888888887
-0.655,0.22,3466.6666666666665
-0.665,0.24,3469.4444444444443
-0.635,0.22,3472.222222222222
-0.585,0.19,3475.0
-0.585,0.215,3477.777777777778
-0.615,0.255,3480.5555555555557
-0.555,0.295,3483.3333333333335
-0.465,0.325,3486.1111111111113
-0.415,0.32,3488.8888888888887
-0.375,0.29,3491.6666666666665
-0.305,0.29,3494.4444444444443
-0.205,0.285,3497.222222222222
-0.11,0.28,3500.0
0.035,0.25,3502.777777777778
0.27,0.205,3505.5555555555557
0.47,0.16,3508.3333333333335
0.615,0.125,3511.1111111111113
0.92,0.115,3513.8888888888887
1.29,0.065,3516.6666666666665
1.465,-0.01,3519.4444444444443
1.395,-0.08,3522.222222222222
1.21,-0.135,3525.0
1.125,-0.2,3527.777777777778
1.17,-0.26,3530.5555555555557
1.315,-0.32,3533.3333333333335
1.435,-0.38,3536.1111111111113
1.32,-0.47,3538.8888888888887
0.995,-0.5,3541.6666666666665
0.675,-0.495,3544.4444444444443
0.44,-0.465,3547.222222222222
0.2,-0.435,3550.0
-0.07,-0.4,3552.777777777778
-0.32,-0.375,3555.5555555555557
-0.43,-0.33,3558.3333333333335
-0.54,-0.275,3561.1111111111113
-0.69,-0.185,3563.8888888888887
-0.745,-0.095,3566.6666666666665
-0.65,-0.03,3569.4444444444443
-0.62,-0.01,3572.222222222222
-0.71,-0.01,3575.0
-0.825,0.02,3577.777777777778
-0.84,0.035,3580.5555555555557
-0.795,0.06,3583.3333333333335
-0.81,0.08,3586.1111111111113
-0.875,0.075,3588.8888888888887
-0.935,0.1,3591.6666666666665
-0.94,0.115,3594.4444444444443
-0.89,0.125,3597.222222222222
-0.8,0.175,3600.0
-0.77,0.24,3602.777777777778
-0.85,0.275,3605.5555555555557
-1.035,0.3,3608.3333333333335
-1.18,0.305,3611.1111111111113
-1.18,0.285,3613.8888888888887
-1.09,0.275,3616.6666666666665
-1.03,0.23,3619.4444444444443
-1.05,0.2,3622.222222222222
-1.08,0.185,3625.0
-1.045,0.195,3627.777777777778
-0.985,0.22,3630.5555555555557
-0.93,0.25,3633.3333333333335
-0.935,0.275,3636.1111111111113
-0.965,0.29,3638.8888888888887
-1.025,0.305,3641.6666666666665
-1.085,0.325,3644.4444444444443
-1.105,0.355,3647.222222222222
-1.085,0.38,3650.0
-1.055,0.38,3652.777777777778
-1.04,0.375,3655.5555555555557
-0.985,0.365,3658.3333333333335
-0.95,0.355,3661.1111111111113
-0.93,0.365,3663.8888888888887
-0.935,0.395,3666.6666666666665
-0.935,0.435,3669.4444444444443
-0.89,0.43,3672.222222222222
-0.86,0.41,3675.0
-0.905,0.39,3677.777777777778
-0.965,0.4,3680.5555555555557
-0.975,0.415,3683.3333333333335
-0.895,0.425,3686.1111111111113
-0.82,0.42,3688.8888888888887
-0.84,0.395,3691.6666666666665
-0.945,0.39,3694.4444444444443
-1.04,0.38,3697.222222222222
-1.005,0.38,3700.0
-0.915,0.34,3702.777777777778
-0.825,0.29,3705.5555555555557
-0.785,0.26,3708.3333333333335
-0.81,0.26,3711.1111111111113
-0.875,0.295,3713.8888888888887
-0.93,0.335,3716.6666666666665
-0.895,0.35,3719.4444444444443
-0.81,0.32,3722.222222222222
-0.705,0.29,3725.0
-0.64,0.255,3727.777777777778
-0.645,0.245,3730.5555555555557
-0.73,0.25,3733.3333333333335
-0.795,0.265,3736.1111111111113
-0.79,0.275,3738.8888888888887
-0.72,0.285,3741.6666666666665
-0.65,0.295,3744.4444444444443
-0.57,0.31,3747.222222222222
-0.48,0.335,3750.0
-0.395,0.36,3752.777777777778
-0.355,0.34,3755.5555555555557
-0.425,0.28,3758.3333333333335
-0.545,0.24,3761.1111111111113
-0.62,0.25,3763.8888888888887
-0.65,0.275,3766.6666666666665
-0.69,0.32,3769.4444444444443
-0.725,0.36,3772.222222222222
-0.72,0.415,3775.0
-0.68,0.46,3777.777777777778
-0.635,0.48,3780.5555555555557
-0.64,0.485,3783.3333333333335
-0.645,0.45,3786.1111111111113
-0.59,0.4,3788.8888888888887
-0.495,0.345,3791.6666666666665
-0.445,0.32,3794.4444444444443
-0.475,0.305,3797.222222222222
-0.525,0.315,3800.0
-0.54,0.325,3802.777777777778
-0.535,0.33,3805.5555555555557
-0.54,0.32,3808.3333333333335
-0.545,0.325,3811.1111111111113
-0.545,0.355,3813.8888888888887
-0.51,0.34,3816.6666666666665
-0.475,0.315,3819.4444444444443
-0.415,0.275,3822.222222222222
-0.34,0.245,3825.0
-0.325,0.22,3827.777777777778
-0.335,0.215,3830.5555555555557
-0.38,0.235,3833.3333333333335
-0.445,0.29,3836.1111111111113
-0.52,0.31,3838.8888888888887
-0.53,0.32,3841.6666666666665
-0.445,0.3,3844.4444444444443
-0.405,0.265,3847.222222222222
-0.52,0.205,3850.0
-0.635,0.115,3852.777777777778
-0.64,0.015,3855.5555555555557
-0.54,-0.05,3858.3333333333335
-0.455,-0.095,3861.1111111111113
-0.395,-0.07,3863.8888888888887
-0.38,-0.04,3866.6666666666665
-0.41,0.01,3869.4444444444443
-0.465,0.05,3872.222222222222
-0.485,0.07,3875.0
-0.47,0.08,3877.777777777778
-0.475,0.1,3880.5555555555557
-0.485,0.12,3883.3333333333335
-0.455,0.115,3886.1111111111113
-0.39,0.085,3888.8888888888887
-0.305,0.045,3891.6666666666665
-0.245,0.015,3894.4444444444443
-0.175,0.04,3897.222222222222
-0.22,0.075,3900.0
-0.39,0.14,3902.777777777778
-0.565,0.175,3905.5555555555557
-0.66,0.2,3908.3333333333335
-0.675,0.205,3911.1111111111113
-0.68,0.25,3913.8888888888887
-0.67,0.24,3916.6666666666665
-0.575,0.26,3919.4444444444443
-0.49,0.23,3922.222222222222
-0.445,0.25,3925.0
-0.455,0.295,3927.777777777778
-0.495,0.335,3930.5555555555557
-0.5,0.365,3933.3333333333335
-0.525,0.33,3936.1111111111113
-0.545,0.27,3938.8888888888887
-0.56,0.23,3941.6666666666665
-0.53,0.2,3944.4444444444443
-0.44,0.19,3947.222222222222
-0.4,0.21,3950.0
-0.43,0.25,3952.777777777778
-0.43,0.285,3955.5555555555557
-0.325,0.31,3958.3333333333335
-0.21,0.3,3961.1111111111113
-0.22,0.27,3963.8888888888887
-0.325,0.26,3966.6666666666665
-0.42,0.235,3969.4444444444443
-0.48,0.22,3972.222222222222
-0.465,0.215,3975.0
-0.38,0.225,3977.777777777778
-0.3,0.25,3980.5555555555557
-0.31,0.26,3983.3333333333335
-0.38,0.27,3986.1111111111113
-0.445,0.255,3988.8888888888887
-0.485,0.23,3991.6666666666665
-0.5,0.21,3994.4444444444443
-0.44,0.205,3997.222222222222
-0.355,0.185,4000.0
-0.35,0.15,4002.777777777778
-0.425,0.085,4005.5555555555557
-0.53,-0.005,4008.3333333333335
-0.55,-0.055,4011.1111111111113
-0.47,-0.055,4013.8888888888887
-0.375,-0.035,4016.6666666666665
-0.375,0.0,4019.4444444444443
-0.44,0.055,4022.222222222222
-0.485,0.095,4025.0
-0.45,0.125,4027.777777777778
-0.435,0.135,4030.5555555555557
-0.41,0.13,4033.3333333333335
-0.37,0.125,4036.1111111111113
-0.25,0.095,4038.8888888888887
-0.13,0.08,4041.6666666666665
-0.085,0.08,4044.4444444444443
-0.21,0.08,4047.222222222222
-0.39,0.105,4050.0
-0.525,0.12,4052.777777777778
-0.52,0.105,4055.5555555555557
-0.41,0.09,4058.3333333333335
-0.275,0.13,4061.1111111111113
-0.22,0.2,4063.8888888888887
-0.155,0.31,4066.6666666666665
-0.065,0.39,4069.4444444444443
-0.04,0.395,4072.222222222222
-0.17,0.34,4075.0
-0.36,0.265,4077.777777777778
-0.325,0.205,4080.5555555555557
-0.095,0.18,4083.3333333333335
0.145,0.16,4086.1111111111113
0.24,0.175,4088.8888888888887
0.205,0.205,4091.6666666666665
0.195,0.205,4094.4444444444443
0.295,0.215,4097.222222222223
0.49,0.165,4100.0
0.79,0.12,4102.777777777777
1.11,0.035,4105.555555555556
1.355,-0.035,4108.333333333333
1.405,-0.1,4111.111111111111
1.355,-0.095,4113.888888888889
1.36,-0.085,4116.666666666667
1.465,-0.105,4119.444444444444
1.56,-0.21,4122.222222222223
1.55,-0.32,4125.0
1.365,-0.41,4127.777777777777
1.045,-0.38,4130.555555555556
0.86,-0.325,4133.333333333333
0.795,-0.3,4136.111111111111
0.645,-0.28,4138.888888888889
0.35,-0.245,4141.666666666667
0.06,-0.21,4144.444444444444
-0.13,-0.15,4147.222222222223
-0.215,-0.065,4150.0
-0.295,0.01,4152.777777777777
-0.415,0.05,4155.555555555556
-0.515,0.065,4158.333333333333
-0.555,0.09,4161.111111111111
-0.51,0.11,4163.888888888889
-0.45,0.145,4166.666666666667
-0.445,0.22,4169.444444444444
-0.53,0.31,4172.222222222223
-0.6,0.38,4175.0
-0.55,0.415,4177.777777777777
-0.425,0.39,4180.555555555556
-0.365,0.325,4183.333333333333
-0.445,0.24,4186.111111111111
-0.54,0.21,4188.888888888889
-0.56,0.225,4191.666666666667
-0.55,0.28,4194.444444444444
-0.525,0.32,4197.222222222223
-0.51,0.315,4200.0
-0.54,0.28,4202.777777777777
-0.55,0.23,4205.555555555556
-0.565,0.14,4208.333333333333
-0.61,0.035,4211.111111111111
-0.61,-0.085,4213.888888888889
-0.545,-0.165,4216.666666666667
-0.44,-0.22,4219.444444444444
-0.455,-0.24,4222.222222222223
-0.58,-0.195,4225.0
-0.685,-0.125,4227.777777777777
-0.66,-0.03,4230.555555555556
-0.595,0.01,4233.333333333333
-0.585,-0.02,4236.111111111111
-0.61,-0.11,4238.888888888889
-0.575,-0.185,4241.666666666667
-0.545,-0.215,4244.444444444444
-0.535,-0.195,4247.222222222223
-0.495,-0.145,4250.0
-0.415,-0.115,4252.777777777777
-0.39,-0.115,4255.555555555556
-0.4,-0.115,4258.333333333333
-0.43,-0.11,4261.111111111111
-0.42,-0.08,4263.888888888889
-0.385,-0.04,4266.666666666667
-0.3,0.005,4269.444444444444
-0.21,-0.01,4272.222222222223
-0.255,-0.025,4275.0
-0.36,-0.04,4277.777777777777
-0.365,0.005,4280.555555555556
-0.29,0.09,4283.333333333333
-0.285,0.135,4286.111111111111
-0.33,0.135,4288.888888888889
-0.31,0.075,4291.666666666667
-0.2,0.01,4294.444444444444
-0.105,0.01,4297.222222222223
-0.14,0.065,4300.0
-0.23,0.14,4302.777777777777
-0.25,0.225,4305.555555555556
-0.215,0.23,4308.333333333333
-0.17,0.14,4311.111111111111
-0.175,0.06,4313.888888888889
-0.145,0.02,4316.666666666667
-0.055,0.025,4319.444444444444
0.01,0.005,4322.222222222223
0.02,0.015,4325.0
-0.02,0.045,4327.777777777777
-0.02,0.1,4330.555555555556
-0.04,0.165,4333.333333333333
-0.095,0.2,4336.111111111111
-0.17,0.215,4338.888888888889
-0.165,0.195,4341.666666666667
-0.135,0.195,4344.444444444444
-0.145,0.2,4347.222222222223
-0.155,0.195,4350.0
-0.125,0.165,4352.777777777777
-0.06,0.135,4355.555555555556
-0.005,0.135,4358.333333333333
-0.04,0.185,4361.111111111111
-0.09,0.21,4363.888888888889
-0.14,0.205,4366.666666666667
-0.145,0.17,4369.444444444444
-0.175,0.125,4372.222222222223
-0.185,0.085,4375.0
-0.155,0.07,4377.777777777777
-0.135,0.05,4380.555555555556
-0.145,0.03,4383.333333333333
-0.12,-0.01,4386.111111111111
-0.07,-0.05,4388.888888888889
-0.025,-0.065,4391.666666666667
-0.06,-0.08,4394.444444444444
-0.15,-0.08,4397.222222222223
-0.225,-0.09,4400.0
-0.26,-0.12,4402.777777777777
-0.21,-0.17,4405.555555555556
-0.185,-0.215,4408.333333333333
-0.16,-0.25,4411.111111111111
-0.2,-0.225,4413.888888888889
-0.24,-0.175,4416.666666666667
-0.235,-0.11,4419.444444444444
-0.165,-0.06,4422.222222222223
-0.12,0.01,4425.0
-0.105,0.055,4427.777777777777
-0.12,0.06,4430.555555555556
-0.215,0.04,4433.333333333333
-0.275,-0.005,4436.111111111111
-0.24,-0.08,4438.888888888889
-0.135,-0.1,4441.666666666667
-0.115,-0.105,4444.444444444444
-0.145,-0.06,4447.222222222223
-0.165,-0.005,4450.0
-0.14,0.02,4452.777777777777
-0.1,0.01,4455.555555555556
-0.07,-0.01,4458.333333333333
-0.12,-0.015,4461.111111111111
-0.22,0.0,4463.888888888889
-0.245,0.05,4466.666666666667
-0.15,0.1,4469.444444444444
-0.105,0.17,4472.222222222223
-0.13,0.22,4475.0
-0.1,0.27,4477.777777777777
-0.03,0.275,4480.555555555556
0.045,0.22,4483.333333333333
0.095,0.115,4486.111111111111
0.12,-0.01,4488.888888888889
0.1,-0.09,4491.666666666667
-0.05,-0.11,4494.444444444444
-0.265,-0.035,4497.222222222223
-0.33,0.03,4500.0
-0.24,0.01,4502.777777777777
-0.17,-0.035,4505.555555555556
-0.165,-0.1,4508.333333333333
-0.145,-0.115,4511.111111111111
-0.08,-0.085,4513.888888888889
-0.035,-0.055,4516.666666666667
-0.035,-0.015,4519.444444444444
-0.075,-0.01,4522.222222222223
-0.15,-0.015,4525.0
-0.19,-0.02,4527.777777777777
-0.14,-0.005,4530.555555555556
-0.08,0.01,4533.333333333333
-0.07,-0.015,4536.111111111111
-0.1,-0.06,4538.888888888889
-0.1,-0.105,4541.666666666667
-0.06,-0.14,4544.444444444444
-0.005,-0.16,4547.222222222223
-0.02,-0.17,4550.0
-0.06,-0.19,4552.777777777777
-0.08,-0.195,4555.555555555556
-0.075,-0.17,4558.333333333333
-0.065,-0.12,4561.111111111111
-0.01,-0.05,4563.888888888889
0.08,-0.02,4566.666666666667
0.175,-0.065,4569.444444444444
0.16,-0.16,4572.222222222223
0.03,-0.24,4575.0
-0.055,-0.295,4577.777777777777
-0.03,-0.285,4580.555555555556
0.05,-0.23,4583.333333333333
0.12,-0.195,4586.111111111111
0.04,-0.155,4588.888888888889
-0.115,-0.12,4591.666666666667
-0.145,-0.085,4594.444444444444
-0.07,-0.04,4597.222222222223
0.015,-0.025,4600.0
0.085,0.0,4602.777777777777
0.075,0.03,4605.555555555556
0.035,0.075,4608.333333333333
0.04,0.13,4611.111111111111
0.085,0.155,4613.888888888889
0.125,0.155,4616.666666666667
0.13,0.13,4619.444444444444
0.115,0.125,4622.222222222223
0.035,0.15,4625.0
0.005,0.145,4627.777777777777
0.025,0.11,4630.555555555556
0.18,0.01,4633.333333333333
0.4,-0.055,4636.111111111111
0.415,-0.095,4638.888888888889
0.2,-0.07,4641.666666666667
0.005,-0.04,4644.444444444444
-0.05,-0.005,4647.222222222223
0.06,0.025,4650.0
0.21,0.045,4652.777777777777
0.275,0.035,4655.555555555556
0.215,0.0,4658.333333333333
0.06,-0.035,4661.111111111111
-0.09,-0.075,4663.888888888889
-0.085,-0.115,4666.666666666667
0.02,-0.135,4669.444444444444
0.1,-0.11,4672.222222222223
0.145,-0.075,4675.0
0.125,-0.045,4677.777777777777
0.03,0.0,4680.555555555556
0.0,0.02,4683.333333333333
-0.025,0.0,4686.111111111111
-0.015,-0.025,4688.888888888889
-0.02,-0.065,4691.666666666667
0.0,-0.1,4694.444444444444
0.04,-0.135,4697.222222222223
0.025,-0.175,4700.0
0.015,-0.225,4702.777777777777
0.0,-0.285,4705.555555555556
-0.005,-0.265,4708.333333333333
0.005,-0.23,4711.111111111111
0.065,-0.17,4713.888888888889
0.2,-0.145,4716.666666666667
0.255,-0.165,4719.444444444444
0.14,-0.255,4722.222222222223
-0.025,-0.29,4725.0
-0.025,-0.315,4727.777777777777
0.215,-0.295,4730.555555555556
0.505,-0.265,4733.333333333333
0.59,-0.245,4736.111111111111
0.455,-0.24,4738.888888888889
0.285,-0.205,4741.666666666667
0.265,-0.15,4744.444444444444
0.355,-0.075,4747.222222222223
0.545,-0.055,4750.0
0.765,-0.05,4752.777777777777
1.06,-0.105,4755.555555555556
1.395,-0.155,4758.333333333333
1.645,-0.2,4761.111111111111
1.84,-0.27,4763.888888888889
1.925,-0.345,4766.666666666667
1.965,-0.4,4769.444444444444
1.965,-0.475,4772.222222222223
1.9,-0.535,4775.0
1.805,-0.555,4777.777777777777
1.75,-0.55,4780.555555555556
1.665,-0.56,4783.333333333333
1.54,-0.56,4786.111111111111
1.385,-0.55,4788.888888888889
1.185,-0.57,4791.666666666667
0.96,-0.545,4794.444444444444
0.625,-0.52,4797.222222222223
0.28,-0.46,4800.0
0.04,-0.4,4802.777777777777
-0.055,-0.33,4805.555555555556
-0.08,-0.24,4808.333333333333
-0.08,-0.185,4811.111111111111
-0.1,-0.14,4813.888888888889
-0.115,-0.09,4816.666666666667
-0.115,-0.06,4819.444444444444
-0.15,-0.05,4822.222222222223
-0.155,-0.08,4825.0
-0.22,-0.095,4827.777777777777
-0.235,-0.085,4830.555555555556
-0.195,-0.07,4833.333333333333
-0.125,-0.055,4836.111111111111
-0.1,-0.07,4838.888888888889
-0.11,-0.085,4841.666666666667
-0.13,-0.06,4844.444444444444
-0.175,-0.02,4847.222222222223
-0.22,0.06,4850.0
-0.25,0.095,4852.777777777777
-0.19,0.025,4855.555555555556
-0.06,-0.145,4858.333333333333
0.05,-0.305,4861.111111111111
0.025,-0.465,4863.888888888889
-0.11,-0.5,4866.666666666667
-0.27,-0.47,4869.444444444444
-0.315,-0.41,4872.222222222223
-0.29,-0.375,4875.0
-0.23,-0.315,4877.777777777777
-0.19,-0.255,4880.555555555556
-0.12,-0.24,4883.333333333333
-0.07,-0.27,4886.111111111111
-0.05,-0.335,4888.888888888889
-0.105,-0.39,4891.666666666667
-0.2,-0.375,4894.444444444444
-0.33,-0.285,4897.222222222223
-0.375,-0.21,4900.0
-0.28,-0.15,4902.777777777777
-0.14,-0.145,4905.555555555556
-0.065,-0.11,4908.333333333333
-0.06,-0.1,4911.111111111111
-0.015,-0.07,4913.888888888889
0.055,-0.025,4916.666666666667
0.01,0.005,4919.444444444444
-0.165,0.025,4922.222222222223
-0.26,0.05,4925.0
-0.225,0.055,4927.777777777777
-0.12,0.075,4930.555555555556
-0.05,0.105,4933.333333333333
0.04,0.1,4936.111111111111
0.085,0.1,4938.888888888889
0.125,0.125,4941.666666666667
0.15,0.135,4944.444444444444
0.195,0.16,4947.222222222223
0.24,0.165,4950.0
0.14,0.14,4952.777777777777
-0.01,0.115,4955.555555555556
-0.13,0.1,4958.333333333333
-0.09,0.11,4961.111111111111
0.04,0.155,4963.888888888889
0.14,0.215,4966.666666666667
0.14,0.3,4969.444444444444
0.085,0.33,4972.222222222223
0.125,0.34,4975.0
0.24,0.33,4977.777777777777
0.315,0.295,4980.555555555556
0.25,0.285,4983.333333333333
0.115,0.245,4986.111111111111
-0.055,0.185,4988.888888888889
-0.09,0.115,4991.666666666667
0.015,0.015,4994.444444444444
0.13,-0.09,4997.222222222223
0.245,-0.135,5000.0
0.365,-0.17,5002.777777777777
0.365,-0.19,5005.555555555556
0.23,-0.22,5008.333333333333
0.115,-0.225,5011.111111111111
0.08,-0.225,5013.888888888889
0.21,-0.21,5016.666666666667
0.37,-0.205,5019.444444444444
0.425,-0.23,5022.222222222223
0.4,-0.285,5025.0
0.43,-0.33,5027.777777777777
0.505,-0.345,5030.555555555556
0.455,-0.345,5033.333333333333
0.265,-0.325,5036.111111111111
0.12,-0.33,5038.888888888889
0.085,-0.335,5041.666666666667
0.09,-0.325,5044.444444444444
0.08,-0.265,5047.222222222223
0.055,-0.205,5050.0
0.03,-0.145,5052.777777777777
0.06,-0.155,5055.555555555556
0.095,-0.2,5058.333333333333
0.075,-0.25,5061.111111111111
0.075,-0.275,5063.888888888889
0.165,-0.28,5066.666666666667
0.305,-0.24,5069.444444444444
0.365,-0.215,5072.222222222223
0.31,-0.16,5075.0
0.185,-0.105,5077.777777777777
0.14,-0.015,5080.555555555556
0.165,0.075,5083.333333333333
0.175,0.12,5086.111111111111
0.06,0.095,5088.888888888889
-0.04,0.015,5091.666666666667
0.03,-0.1,5094.444444444444
0.195,-0.185,5097.222222222223
0.285,-0.225,5100.0
0.265,-0.195,5102.777777777777
0.21,-0.16,5105.555555555556
0.215,-0.115,5108.333333333333
0.235,-0.09,5111.111111111111
0.265,-0.06,5113.888888888889
0.28,-0.03,5116.666666666667
0.275,-0.03,5119.444444444444
0.265,-0.06,5122.222222222223
0.255,-0.085,5125.0
0.24,-0.095,5127.777777777777
0.225,-0.09,5130.555555555556
0.29,-0.08,5133.333333333333
0.46,-0.07,5136.111111111111
0.615,-0.07,5138.888888888889
0.665,-0.09,5141.666666666667
0.58,-0.07,5144.444444444444
0.37,0.01,5147.222222222223
0.125,0.115,5150.0
-0.02,0.215,5152.777777777777
-0.005,0.27,5155.555555555556
0.025,0.275,5158.333333333333
0.06,0.235,5161.111111111111
0.115,0.16,5163.888888888889
0.175,0.035,5166.666666666667
0.3,-0.09,5169.444444444444
0.385,-0.265,5172.222222222223
0.405,-0.41,5175.0
0.46,-0.49,5177.777777777777
0.58,-0.54,5180.555555555556
0.725,-0.575,5183.333333333333
0.88,-0.63,5186.111111111111
0.91,-0.705,5188.888888888889
0.855,-0.78,5191.666666666667
0.855,-0.825,5194.444444444444
1.065,-0.835,5197.222222222223
1.36,-0.83,5200.0
1.575,-0.815,5202.777777777777
1.62,-0.78,5205.555555555556
1.445,-0.735,5208.333333333333
1.22,-0.665,5211.111111111111
1.17,-0.63,5213.888888888889
1.25,-0.625,5216.666666666667
1.24,-0.63,5219.444444444444
0.96,-0.62,5222.222222222223
0.52,-0.62,5225.0
0.26,-0.56,5227.777777777777
0.25,-0.48,5230.555555555556
0.29,-0.39,5233.333333333333
0.2,-0.31,5236.111111111111
0.0,-0.23,5238.888888888889
-0.115,-0.175,5241.666666666667
-0.075,-0.15,5244.444444444444
-0.04,-0.13,5247.222222222223
-0.015,-0.1,5250.0
-0.02,-0.105,5252.777777777777
-0.005,-0.105,5255.555555555556
0.03,-0.12,5258.333333333333
0.045,-0.1,5261.111111111111
-0.005,-0.07,5263.888888888889
-0.085,-0.04,5266.666666666667
-0.09,-0.035,5269.444444444444
-0.065,-0.035,5272.222222222223
-0.025,-0.04,5275.0
-0.02,-0.035,5277.777777777777
-0.015,-0.02,5280.555555555556
0.025,0.0,5283.333333333333
0.09,-0.01,5286.111111111111
0.135,-0.025,5288.888888888889
0.125,-0.05,5291.666666666667
0.055,-0.065,5294.444444444444
-0.015,-0.065,5297.222222222223
-0.015,-0.035,5300.0
0.005,-0.05,5302.777777777777
0.035,-0.085,5305.555555555556
0.06,-0.125,5308.333333333333
0.115,-0.165,5311.111111111111
0.23,-0.185,5313.888888888889
0.325,-0.21,5316.666666666667
0.37,-0.225,5319.444444444444
0.35,-0.225,5322.222222222223
0.365,-0.24,5325.0
0.445,-0.275,5327.777777777777
0.61,-0.27,5330.555555555556
0.72,-0.275,5333.333333333333
0.625,-0.27,5336.111111111111
0.44,-0.26,5338.888888888889
0.58,-0.265,5341.666666666667
0.985,-0.285,5344.444444444444
0.955,-0.3,5347.222222222223
0.315,-0.28,5350.0
-0.325,-0.21,5352.777777777777
-0.33,-0.1,5355.555555555556
0.04,-0.055,5358.333333333333
0.36,-0.01,5361.111111111111
0.485,0.055,5363.888888888889
0.495,0.1,5366.666666666667
0.42,0.105,5369.444444444444
0.39,0.05,5372.222222222223
0.42,-0.02,5375.0
0.505,-0.03,5377.777777777777
0.56,0.02,5380.555555555556
0.515,0.11,5383.333333333333
0.46,0.17,5386.111111111111
0.45,0.15,5388.888888888889
0.435,0.08,5391.666666666667
0.41,-0.01,5394.444444444444
0.415,-0.045,5397.222222222223
0.405,-0.06,5400.0
0.385,-0.03,5402.777777777777
0.39,-0.025,5405.555555555556
0.37,-0.03,5408.333333333333
0.35,-0.01,5411.111111111111
0.32,0.01,5413.888888888889
0.31,0.035,5416.666666666667
0.305,0.025,5419.444444444444
0.245,0.025,5422.222222222223
0.17,0.0,5425.0
0.185,-0.005,5427.777777777777
0.23,-0.015,5430.555555555556
0.24,-0.005,5433.333333333333
0.25,-0.005,5436.111111111111
0.225,-0.01,5438.888888888889
0.19,-0.045,5441.666666666667
0.165,-0.07,5444.444444444444
0.18,-0.055,5447.222222222223
0.21,-0.045,5450.0
0.215,-0.05,5452.777777777777
0.21,-0.09,5455.555555555556
0.205,-0.125,5458.333333333333
0.22,-0.16,5461.111111111111
0.27,-0.18,5463.888888888889
0.33,-0.2,5466.666666666667
0.435,-0.24,5469.444444444444
0.485,-0.285,5472.222222222223
0.455,-0.31,5475.0
0.36,-0.31,5477.777777777777
0.32,-0.3,5480.555555555556
0.36,-0.285,5483.333333333333
0.385,-0.285,5486.111111111111
0.295,-0.29,5488.888888888889
0.265,-0.29,5491.666666666667
0.33,-0.31,5494.444444444444
0.4,-0.305,5497.222222222223
0.32,-0.295,5500.0
0.085,-0.27,5502.777777777777
-0.1,-0.22,5505.555555555556
-0.13,-0.14,5508.333333333333
-0.035,-0.125,5511.111111111111
0.085,-0.1,5513.888888888889
0.16,-0.085,5516.666666666667
0.185,-0.07,5519.444444444444
0.165,-0.075,5522.222222222223
0.12,-0.065,5525.0
0.125,-0.07,5527.777777777777
0.2,-0.05,5530.555555555556
0.28,-0.02,5533.333333333333
0.275,-0.005,5536.111111111111
0.235,0.0,5538.888888888889
0.195,-0.015,5541.666666666667
0.185,-0.005,5544.444444444444
0.205,0.03,5547.222222222223
0.285,0.045,5550.0
0.345,0.05,5552.777777777777
0.36,0.07,5555.555555555556
0.36,0.095,5558.333333333333
0.43,0.125,5561.111111111111
0.545,0.155,5563.888888888889
0.63,0.165,5566.666666666667
0.55,0.145,5569.444444444444
0.3,0.14,5572.222222222223
0.08,0.115,5575.0
0.025,0.07,5577.777777777777
0.08,0.03,5580.555555555556
0.14,0.025,5583.333333333333
0.19,0.06,5586.111111111111
0.165,0.05,5588.888888888889
0.105,0.055,5591.666666666667
0.1,0.065,5594.444444444444
0.2,0.09,5597.222222222223
0.385,0.125,5600.0
0.515,0.07,5602.777777777777
0.53,-0.01,5605.555555555556
0.385,-0.11,5608.333333333333
0.105,-0.135,5611.111111111111
-0.15,-0.07,5613.888888888889
-0.235,0.04,5616.666666666667
-0.1,0.1,5619.444444444444
0.125,0.085,5622.222222222223
0.26,0.005,5625.0
0.32,-0.09,5627.777777777777
0.315,-0.175,5630.555555555556
0.325,-0.21,5633.333333333333
0.335,-0.21,5636.111111111111
0.3,-0.225,5638.888888888889
0.23,-0.26,5641.666666666667
0.11,-0.305,5644.444444444444
0.04,-0.32,5647.222222222223
0.015,-0.32,5650.0
0.125,-0.315,5652.777777777777
0.295,-0.315,5655.555555555556
0.5,-0.305,5658.333333333333
0.63,-0.26,5661.111111111111
0.615,-0.205,5663.888888888889
0.46,-0.115,5666.666666666667
0.135,-0.065,5669.444444444444
-0.125,-0.035,5672.222222222223
-0.13,-0.03,5675.0
0.0,-0.035,5677.777777777777
0.065,-0.03,5680.555555555556
0.075,-0.04,5683.333333333333
0.075,-0.055,5686.111111111111
0.135,-0.135,5688.888888888889
0.175,-0.19,5691.666666666667
0.15,-0.22,5694.444444444444
0.13,-0.205,5697.222222222223
0.19,-0.16,5700.0
0.325,-0.15,5702.777777777777
0.445,-0.145,5705.555555555556
0.42,-0.145,5708.333333333333
0.205,-0.12,5711.111111111111
-0.07,-0.08,5713.888888888889
-0.2,-0.035,5716.666666666667
-0.115,-0.025,5719.444444444444
0.04,-0.035,5722.222222222223
0.16,-0.045,5725.0
0.2,-0.045,5727.777777777777
0.245,-0.06,5730.555555555556
0.385,-0.075,5733.333333333333
0.625,-0.105,5736.111111111111
0.84,-0.125,5738.888888888889
0.715,-0.15,5741.666666666667
0.245,-0.145,5744.444444444444
-0.165,-0.09,5747.222222222223
-0.27,-0.005,5750.0
-0.155,0.015,5752.777777777777
-0.115,0.005,5755.555555555556
-0.165,0.005,5758.333333333333
-0.155,0.02,5761.111111111111
-0.02,0.02,5763.888888888889
0.19,0.0,5766.666666666667
0.41,-0.07,5769.444444444444
0.525,-0.105,5772.222222222223
0.485,-0.18,5775.0
0.235,-0.185,5777.777777777777
-0.08,-0.135,5780.555555555556
-0.24,-0.065,5783.333333333333
-0.125,0.0,5786.111111111111
0.15,-0.025,5788.888888888889
0.36,-0.1,5791.666666666667
0.445,-0.21,5794.444444444444
0.535,-0.25,5797.222222222223
0.665,-0.275,5800.0
0.8,-0.235,5802.777777777777
0.81,-0.185,5805.555555555556
0.795,-0.115,5808.333333333333
0.79,-0.065,5811.111111111111
0.79,-0.07,5813.888888888889
0.79,-0.075,5816.666666666667
0.85,-0.1,5819.444444444444
1.035,-0.13,5822.222222222223
1.245,-0.16,5825.0
1.35,-0.205,5827.777777777777
1.42,-0.235,5830.555555555556
1.485,-0.26,5833.333333333333
1.545,-0.28,5836.111111111111
1.53,-0.325,5838.888888888889
1.46,-0.42,5841.666666666667
1.335,-0.495,5844.444444444444
1.18,-0.56,5847.222222222223
1.08,-0.57,5850.0
1.005,-0.59,5852.777777777777
0.88,-0.595,5855.555555555556
0.725,-0.585,5858.333333333333
0.535,-0.545,5861.111111111111
0.365,-0.46,5863.888888888889
0.255,-0.355,5866.666666666667
0.185,-0.275,5869.444444444444
0.075,-0.195,5872.222222222223
0.0,-0.15,5875.0
0.01,-0.075,5877.777777777777
0.035,-0.01,5880.555555555556
-0.025,0.04,5883.333333333333
-0.065,0.055,5886.111111111111
-0.055,0.055,5888.888888888889
0.005,0.045,5891.666666666667
0.01,0.06,5894.444444444444
-0.13,0.075,5897.222222222223
-0.25,0.08,5900.0
-0.23,0.065,5902.777777777777
-0.165,0.005,5905.555555555556
-0.175,-0.045,5908.333333333333
-0.31,-0.065,5911.111111111111
-0.44,-0.01,5913.888888888889
-0.445,0.015,5916.666666666667
-0.38,-0.005,5919.444444444444
-0.335,-0.05,5922.222222222223
-0.33,-0.12,5925.0
-0.33,-0.145,5927.777777777777
-0.28,-0.135,5930.555555555556
-0.195,-0.13,5933.333333333333
-0.115,-0.115,5936.111111111111
-0.06,-0.135,5938.888888888889
-0.075,-0.165,5941.666666666667
-0.14,-0.17,5944.444444444444
-0.2,-0.16,5947.222222222223
-0.185,-0.15,5950.0
-0.07,-0.185,5952.777777777777
-0.04,-0.21,5955.555555555556
-0.115,-0.205,5958.333333333333
-0.23,-0.19,5961.111111111111
-0.285,-0.185,5963.888888888889
-0.22,-0.165,5966.666666666667
-0.11,-0.175,5969.444444444444
-0.01,-0.175,5972.222222222223
0.055,-0.185,5975.0
0.035,-0.18,5977.777777777777
-0.075,-0.15,5980.555555555556
-0.19,-0.12,5983.333333333333
-0.235,-0.1,5986.111111111111
-0.19,-0.085,5988.888888888889
-0.125,-0.07,5991.666666666667
-0.13,-0.025,5994.444444444444
-0.16,0.1,5997.222222222223
-0.13,0.245,6000.0
-0.02,0.33,6002.777777777777
-0.045,0.32,6005.555555555556
-0.27,0.195,6008.333333333333
-0.545,0.085,6011.111111111111
-0.58,-0.015,6013.888888888889
-0.44,-0.04,6016.666666666667
-0.295,-0.05,6019.444444444444
-0.185,-0.085,6022.222222222223
-0.11,-0.095,6025.0
-0.105,-0.095,6027.777777777777
-0.15,-0.06,6030.555555555556
-0.205,-0.005,6033.333333333333
-0.225,0.04,6036.111111111111
-0.195,0.055,6038.888888888889
-0.13,0.07,6041.666666666667
-0.085,0.1,6044.444444444444
-0.035,0.145,6047.222222222223
-0.01,0.175,6050.0
-0.015,0.17,6052.777777777777
-0.035,0.125,6055.555555555556
-0.035,0.1,6058.333333333333
0.03,0.095,6061.111111111111
0.075,0.1,6063.888888888889
0.055,0.085,6066.666666666667
0.035,0.095,6069.444444444444
0.055,0.085,6072.222222222223
0.065,0.06,6075.0
0.05,0.055,6077.777777777777
0.025,0.07,6080.555555555556
0.0,0.075,6083.333333333333
0.045,0.08,6086.111111111111
0.115,0.045,6088.888888888889
0.175,0.015,6091.666666666667
0.22,-0.01,6094.444444444444
0.28,0.0,6097.222222222223
0.295,0.0,6100.0
0.18,-0.01,6102.777777777777
0.035,-0.01,6105.555555555556
-0.07,0.0,6108.333333333333
-0.045,0.03,6111.111111111111
0.15,0.08,6113.888888888889
0.44,0.14,6116.666666666667
0.565,0.16,6119.444444444444
0.395,0.11,6122.222222222223
0.09,0.03,6125.0
-0.075,-0.06,6127.777777777777
-0.13,-0.145,6130.555555555556
-0.115,-0.18,6133.333333333333
-0.17,-0.165,6136.111111111111
-0.16,-0.12,6138.888888888889
-0.115,-0.065,6141.666666666667
-0.02,0.03,6144.444444444444
0.075,0.1,6147.222222222223
0.14,0.115,6150.0
0.165,0.07,6152.777777777777
0.11,0.0,6155.555555555556
-0.025,-0.085,6158.333333333333
-0.14,-0.11,6161.111111111111
-0.145,-0.075,6163.888888888889
-0.08,-0.04,6166.666666666667
0.0,-0.025,6169.444444444444
0.075,-0.03,6172.222222222223
0.14,-0.04,6175.0
0.24,-0.035,6177.777777777777
0.38,-0.02,6180.555555555556
0.37,-0.03,6183.333333333333
0.19,-0.03,6186.111111111111
-0.08,-0.045,6188.888888888889
-0.135,-0.065,6191.666666666667
0.13,-0.07,6194.444444444444
0.455,-0.04,6197.222222222223
0.59,-0.025,6200.0
0.405,-0.005,6202.777777777777
0.105,-0.01,6205.555555555556
-0.075,-0.005,6208.333333333333
-0.045,0.065,6211.111111111111
0.08,0.135,6213.888888888889
0.185,0.2,6216.666666666667
0.18,0.25,6219.444444444444
0.06,0.275,6222.222222222223
-0.065,0.28,6225.0
-0.1,0.33,6227.777777777777
-0.14,0.365,6230.555555555556
-0.315,0.375,6233.333333333333
-0.575,0.35,6236.111111111111
-0.79,0.31,6238.888888888889
-0.895,0.205,6241.666666666667
-0.93,0.115,6244.444444444444
-0.99,0.045,6247.222222222223
-1.065,-0.015,6250.0
-1.115,-0.105,6252.777777777777
-1.15,-0.2,6255.555555555556
-1.055,-0.295,6258.333333333333
-0.855,-0.35,6261.111111111111
-0.625,-0.395,6263.888888888889
-0.43,-0.47,6266.666666666667
-0.355,-0.495,6269.444444444444
-0.46,-0.52,6272.222222222223
-0.605,-0.505,6275.0
-0.705,-0.455,6277.777777777777
-0.655,-0.39,6280.555555555556
-0.46,-0.325,6283.333333333333
-0.24,-0.35,6286.111111111111
-0.085,-0.44,6288.888888888889
0.105,-0.565,6291.666666666667
0.32,-0.605,6294.444444444444
0.495,-0.615,6297.222222222223
0.445,-0.565,6300.0
0.28,-0.5,6302.777777777777
0.18,-0.47,6305.555555555556
0.2,-0.465,6308.333333333333
0.18,-0.455,6311.111111111111
0.065,-0.415,6313.888888888889
-0.09,-0.36,6316.666666666667
-0.275,-0.265,6319.444444444444
-0.405,-0.195,6322.222222222223
-0.4,-0.125,6325.0
-0.315,-0.08,6327.777777777777
-0.2,-0.02,6330.555555555556
-0.07,0.04,6333.333333333333
0.04,0.09,6336.111111111111
0.1,0.115,6338.888888888889
0.085,0.15,6341.666666666667
0.03,0.2,6344.444444444444
0.04,0.215,6347.222222222223
0.12,0.175,6350.0
0.1,0.09,6352.777777777777
-0.005,-0.02,6355.555555555556
-0.115,-0.12,6358.333333333333
-0.16,-0.145,6361.111111111111
-0.155,-0.105,6363.888888888889
-0.115,-0.07,6366.666666666667
0.0,-0.05,6369.444444444444
0.165,-0.055,6372.222222222223
0.25,-0.07,6375.0
0.225,-0.07,6377.777777777777
0.135,-0.045,6380.555555555556
0.065,-0.03,6383.333333333333
0.035,-0.02,6386.111111111111
0.05,-0.005,6388.888888888889
0.16,-0.005,6391.666666666667
0.315,0.01,6394.444444444444
0.455,0.02,6397.222222222223
0.545,0.02,6400.0
0.615,0.015,6402.777777777777
0.575,0.005,6405.555555555556
0.485,0.015,6408.333333333333
0.39,0.04,6411.111111111111
0.38,0.065,6413.888888888889
0.435,0.095,6416.666666666667
0.53,0.095,6419.444444444444
0.605,0.08,6422.222222222223
0.645,0.06,6425.0
0.635,0.035,6427.777777777777
0.595,0.035,6430.555555555556
0.54,0.05,6433.333333333333
0.56,0.065,6436.111111111111
0.705,0.055,6438.888888888889
0.94,0.025,6441.666666666667
1.07,0.015,6444.444444444444
1.085,0.045,6447.222222222223
1.005,0.075,6450.0
0.895,0.105,6452.777777777777
0.78,0.15,6455.555555555556
0.615,0.16,6458.333333333333
0.54,0.14,6461.111111111111
0.54,0.105,6463.888888888889
0.64,0.08,6466.666666666667
0.71,0.02,6469.444444444444
0.67,-0.015,6472.222222222223
0.585,-0.04,6475.0
0.535,-0.025,6477.777777777777
0.52,-0.025,6480.555555555556
0.535,0.005,6483.333333333333
0.555,0.035,6486.111111111111
0.565,0.04,6488.888888888889
0.55,0.025,6491.666666666667
0.47,0.025,6494.444444444444
0.295,0.03,6497.222222222223
0.14,0.07,6500.0
0.16,0.06,6502.777777777777
0.23,0.035,6505.555555555556
0.28,0.005,6508.333333333333
0.28,-0.01,6511.111111111111
0.325,-0.005,6513.888888888889
0.34,0.01,6516.666666666667
0.3,0.015,6519.444444444444
0.175,-0.01,6522.222222222223
0.08,-0.02,6525.0
0.05,-0.055,6527.777777777777
0.04,-0.05,6530.555555555556
0.15,-0.055,6533.333333333333
0.34,-0.055,6536.111111111111
0.44,-0.055,6538.888888888889
0.315,-0.045,6541.666666666667
0.085,0.0,6544.444444444444
-0.13,0.08,6547.222222222223
-0.19,0.155,6550.0
-0.2,0.205,6552.777777777777
-0.255,0.27,6555.555555555556
-0.345,0.305,6558.333333333333
-0.44,0.345,6561.111111111111
-0.565,0.4,6563.888888888889
-0.74,0.44,6566.666666666667
-0.965,0.435,6569.444444444444
-1.19,0.4,6572.222222222223
-1.37,0.355,6575.0
-1.43,0.295,6577.777777777777
-1.4,0.25,6580.555555555556
-1.325,0.21,6583.333333333333
-1.155,0.175,6586.111111111111
-0.875,0.12,6588.888888888889
-0.58,0.05,6591.666666666667
-0.4,-0.02,6594.444444444444
-0.28,-0.095,6597.222222222223
-0.14,-0.155,6600.0
-0.02,-0.21,6602.777777777777
0.04,-0.255,6605.555555555556
0.04,-0.29,6608.333333333333
0.005,-0.285,6611.111111111111
-0.065,-0.305,6613.888888888889
-0.14,-0.315,6616.666666666667
-0.185,-0.34,6619.444444444444
-0.235,-0.365,6622.222222222223
-0.315,-0.39,6625.0
-0.365,-0.37,6627.777777777777
-0.31,-0.31,6630.555555555556
-0.245,-0.275,6633.333333333333
-0.2,-0.255,6636.111111111111
-0.17,-0.24,6638.888888888889
-0.11,-0.235,6641.666666666667
-0.035,-0.215,6644.444444444444
0.01,-0.185,6647.222222222223
-0.025,-0.145,6650.0
-0.115,-0.14,6652.777777777777
-0.17,-0.13,6655.555555555556
-0.155,-0.115,6658.333333333333
-0.16,-0.105,6661.111111111111
-0.23,-0.085,6663.888888888889
-0.335,-0.065,6666.666666666667
-0.34,-0.04,6669.444444444444
-0.275,-0.025,6672.222222222223
-0.22,-0.02,6675.0
-0.27,-0.01,6677.777777777777
-0.365,0.005,6680.555555555556
-0.38,0.01,6683.333333333333
-0.315,0.02,6686.111111111111
-0.2,0.0,6688.888888888889
-0.135,-0.045,6691.666666666667
-0.14,-0.065,6694.444444444444
-0.165,-0.065,6697.222222222223
-0.175,-0.065,6700.0
-0.105,-0.06,6702.777777777777
-0.05,-0.07,6705.555555555556
-0.045,-0.08,6708.333333333333
-0.115,-0.09,6711.111111111111
-0.135,-0.075,6713.888888888889
-0.025,-0.06,6716.666666666667
0.205,-0.06,6719.444444444444
0.395,-0.1,6722.222222222223
0.405,-0.11,6725.0
0.235,-0.13,6727.777777777777
0.025,-0.105,6730.555555555556
-0.125,-0.065,6733.333333333333
-0.18,-0.05,6736.111111111111
-0.205,-0.04,6738.888888888889
-0.16,-0.04,6741.666666666667
-0.105,-0.045,6744.444444444444
-0.04,-0.03,6747.222222222223
0.025,-0.045,6750.0
0.075,-0.045,6752.777777777777
0.18,-0.07,6755.555555555556
0.295,-0.07,6758.333333333333
0.33,-0.085,6761.111111111111
0.27,-0.08,6763.888888888889
0.22,-0.08,6766.666666666667
0.2,-0.065,6769.444444444444
0.255,-0.08,6772.222222222223
0.28,-0.085,6775.0
0.3,-0.07,6777.777777777777
0.345,-0.06,6780.555555555556
0.39,-0.015,6783.333333333333
0.41,0.0,6786.111111111111
0.395,-0.005,6788.888888888889
0.45,-0.005,6791.666666666667
0.535,0.015,6794.444444444444
0.605,0.07,6797.222222222223
0.575,0.1,6800.0
0.49,0.125,6802.777777777777
0.315,0.145,6805.555555555556
0.105,0.135,6808.333333333333
-0.015,0.115,6811.111111111111
0.025,0.08,6813.888888888889
0.195,0.08,6816.666666666667
0.315,0.045,6819.444444444444
0.305,0.04,6822.222222222223
0.19,0.035,6825.0
0.11,0.05,6827.777777777777
0.08,0.095,6830.555555555556
0.09,0.12,6833.333333333333
0.095,0.105,6836.111111111111
-0.03,0.065,6838.888888888889
-0.24,0.015,6841.666666666667
-0.315,-0.02,6844.444444444444
-0.225,-0.04,6847.222222222223
-0.105,-0.07,6850.0
-0.04,-0.085,6852.777777777777
-0.025,-0.11,6855.555555555556
-0.035,-0.14,6858.333333333333
-0.035,-0.135,6861.111111111111
-0.015,-0.145,6863.888888888889
0.005,-0.12,6866.666666666667
0.015,-0.12,6869.444444444444
0.015,-0.13,6872.222222222223
0.03,-0.125,6875.0
0.07,-0.12,6877.777777777777
0.115,-0.1,6880.555555555556
0.135,-0.08,6883.333333333333
0.09,-0.085,6886.111111111111
0.035,-0.105,6888.888888888889
-0.02,-0.115,6891.666666666667
-0.04,-0.08,6894.444444444444
-0.05,-0.07,6897.222222222223
-0.035,-0.045,6900.0
-0.02,-0.03,6902.777777777777
-0.08,-0.01,6905.555555555556
-0.215,-0.01,6908.333333333333
-0.335,0.005,6911.111111111111
-0.31,0.04,6913.888888888889
-0.155,0.115,6916.666666666667
0.02,0.135,6919.444444444444
0.095,0.13,6922.222222222223
0.12,0.085,6925.0
0.115,0.07,6927.777777777777
0.075,0.09,6930.555555555556
0.02,0.115,6933.333333333333
-0.035,0.125,6936.111111111111
-0.125,0.065,6938.888888888889
-0.195,0.005,6941.666666666667
-0.195,-0.08,6944.444444444444
-0.065,-0.12,6947.222222222223
0.135,-0.12,6950.0
0.295,-0.1,6952.777777777777
0.29,-0.055,6955.555555555556
0.205,-0.005,6958.333333333333
0.175,0.055,6961.111111111111
0.22,0.105,6963.888888888889
0.28,0.135,6966.666666666667
0.39,0.155,6969.444444444444
0.53,0.17,6972.222222222223
0.645,0.185,6975.0
0.66,0.19,6977.777777777777
0.66,0.175,6980.555555555556
0.705,0.175,6983.333333333333
0.81,0.165,6986.111111111111
0.89,0.08,6988.888888888889
1.0,-0.095,6991.666666666667
1.095,-0.32,6994.444444444444
1.1,-0.535,6997.222222222223
0.95,-0.68,7000.0
0.705,-0.76,7002.777777777777
0.545,-0.785,7005.555555555556
0.53,-0.77,7008.333333333333
0.51,-0.715,7011.111111111111
0.42,-0.63,7013.888888888889
0.33,-0.56,7016.666666666667
0.3,-0.495,7019.444444444444
0.275,-0.455,7022.222222222223
0.125,-0.405,7025.0
-0.175,-0.335,7027.777777777777
-0.455,-0.245,7030.555555555556
-0.505,-0.2,7033.333333333333
-0.27,-0.175,7036.111111111111
0.065,-0.19,7038.888888888889
0.205,-0.205,7041.666666666667
0.02,-0.21,7044.444444444444
-0.36,-0.17,7047.222222222223
-0.66,-0.14,7050.0
-0.75,-0.11,7052.777777777777
-0.68,-0.07,7055.555555555556
-0.55,-0.085,7058.333333333333
-0.425,-0.09,7061.111111111111
-0.36,-0.07,7063.888888888889
-0.395,-0.06,7066.666666666667
-0.505,-0.065,7069.444444444444
-0.625,-0.06,7072.222222222223
-0.65,-0.05,7075.0
-0.59,-0.04,7077.777777777777
-0.47,-0.035,7080.555555555556
-0.385,-0.03,7083.333333333333
-0.335,-0.035,7086.111111111111
-0.345,-0.055,7088.888888888889
-0.425,-0.07,7091.666666666667
-0.505,-0.065,7094.444444444444
-0.54,-0.055,7097.222222222223
-0.5,-0.02,7100.0
-0.425,-0.01,7102.777777777777
-0.4,-0.02,7105.555555555556
-0.37,-0.045,7108.333333333333
-0.355,-0.045,7111.111111111111
-0.28,-0.055,7113.888888888889
-0.155,-0.06,7116.666666666667
-0.065,-0.075,7119.444444444444
-0.035,-0.095,7122.222222222223
-0.005,-0.135,7125.0
0.0,-0.135,7127.777777777777
-0.065,-0.155,7130.555555555556
-0.21,-0.165,7133.333333333333
-0.43,-0.155,7136.111111111111
-0.61,-0.145,7138.888888888889
-0.675,-0.145,7141.666666666667
-0.575,-0.145,7144.444444444444
-0.395,-0.13,7147.222222222223
-0.25,-0.105,7150.0
-0.295,-0.075,7152.777777777777
-0.445,-0.025,7155.555555555556
-0.55,0.025,7158.333333333333
-0.595,0.075,7161.111111111111
-0.565,0.125,7163.888888888889
-0.45,0.12,7166.666666666667
-0.2,0.065,7169.444444444444
0.01,-0.045,7172.222222222223
0.065,-0.15,7175.0
-0.035,-0.195,7177.777777777777
-0.21,-0.185,7180.555555555556
-0.31,-0.125,7183.333333333333
-0.31,-0.085,7186.111111111111
-0.245,-0.075,7188.888888888889
-0.17,-0.075,7191.666666666667
-0.095,-0.105,7194.444444444444
0.005,-0.125,7197.222222222223
0.04,-0.125,7200.0
-0.02,-0.13,7202.777777777777
-0.14,-0.14,7205.555555555556
-0.255,-0.145,7208.333333333333
-0.265,-0.145,7211.111111111111
-0.185,-0.115,7213.888888888889
-0.135,-0.085,7216.666666666667
-0.13,-0.075,7219.444444444444
-0.145,-0.075,7222.222222222223
-0.11,-0.08,7225.0
-0.04,-0.09,7227.777777777777
0.02,-0.085,7230.555555555556
0.055,-0.055,7233.333333333333
0.085,-0.075,7236.111111111111
0.095,-0.085,7238.888888888889
0.05,-0.08,7241.666666666667
0.0,-0.075,7244.444444444444
-0.04,-0.05,7247.222222222223
-0.005,-0.025,7250.0
0.11,-0.03,7252.777777777777
0.175,-0.035,7255.555555555556
0.15,-0.03,7258.333333333333
0.075,-0.025,7261.111111111111
0.04,-0.045,7263.888888888889
-0.015,-0.055,7266.666666666667
-0.03,-0.105,7269.444444444444
-0.06,-0.12,7272.222222222223
-0.1,-0.13,7275.0
-0.2,-0.12,7277.777777777777
-0.325,-0.085,7280.555555555556
-0.405,-0.07,7283.333333333333
-0.365,-0.08,7286.111111111111
-0.255,-0.08,7288.888888888889
-0.16,-0.12,7291.666666666667
-0.115,-0.145,7294.444444444444
-0.065,-0.13,7297.222222222223
0.015,-0.12,7300.0
0.085,-0.13,7302.777777777777
0.075,-0.15,7305.555555555556
-0.005,-0.175,7308.333333333333
-0.075,-0.175,7311.111111111111
-0.11,-0.16,7313.888888888889
-0.09,-0.125,7316.666666666667
-0.075,-0.115,7319.444444444444
-0.095,-0.12,7322.222222222223
-0.075,-0.14,7325.0
0.015,-0.13,7327.777777777777
0.155,-0.11,7330.555555555556
0.235,-0.08,7333.333333333333
0.14,-0.025,7336.111111111111
-0.04,0.03,7338.888888888889
-0.18,0.095,7341.666666666667
-0.105,0.145,7344.444444444444
0.025,0.165,7347.222222222223
0.06,0.17,7350.0
-0.065,0.105,7352.777777777777
-0.215,0.02,7355.555555555556
-0.205,-0.07,7358.333333333333
-0.015,-0.08,7361.111111111111
0.29,-0.09,7363.888888888889
0.53,-0.055,7366.666666666667
0.64,-0.075,7369.444444444444
0.725,-0.18,7372.222222222223
0.835,-0.255,7375.0
0.955,-0.315,7377.777777777777
1.06,-0.365,7380.555555555556
1.17,-0.4,7383.333333333333
1.33,-0.495,7386.111111111111
1.37,-0.585,7388.888888888889
1.295,-0.655,7391.666666666667
1.105,-0.665,7394.444444444444
0.9,-0.61,7397.222222222223
0.665,-0.525,7400.0
0.345,-0.44,7402.777777777777
0.065,-0.39,7405.555555555556
0.0,-0.37,7408.333333333333
0.075,-0.3,7411.111111111111
0.135,-0.225,7413.888888888889
0.105,-0.165,7416.666666666667
0.065,-0.14,7419.444444444444
0.065,-0.105,7422.222222222223
0.075,-0.09,7425.0
-0.025,-0.05,7427.777777777777
-0.23,-0.01,7430.555555555556
-0.45,0.03,7433.333333333333
-0.535,0.03,7436.111111111111
-0.495,-0.06,7438.888888888889
-0.48,-0.12,7441.666666666667
-0.565,-0.165,7444.444444444444
-0.65,-0.15,7447.222222222223
-0.675,-0.11,7450.0
-0.585,-0.095,7452.777777777777
-0.52,-0.115,7455.555555555556
-0.47,-0.135,7458.333333333333
-0.505,-0.125,7461.111111111111
-0.54,-0.095,7463.888888888889
-0.53,-0.09,7466.666666666667
-0.52,-0.095,7469.444444444444
-0.51,-0.125,7472.222222222223
-0.475,-0.135,7475.0
-0.46,-0.15,7477.777777777777
-0.465,-0.11,7480.555555555556
-0.48,-0.07,7483.333333333333
-0.46,-0.05,7486.111111111111
-0.41,-0.07,7488.888888888889
-0.35,-0.06,7491.666666666667
-0.28,-0.075,7494.444444444444
-0.195,-0.055,7497.222222222223
-0.185,-0.025,7500.0
-0.295,-0.015,7502.777777777777
-0.395,-0.035,7505.555555555556
-0.375,-0.09,7508.333333333333
-0.295,-0.115,7511.111111111111
-0.2,-0.125,7513.888888888889
-0.225,-0.125,7516.666666666667
-0.38,-0.14,7519.444444444444
-0.555,-0.145,7522.222222222223
-0.645,-0.13,7525.0
-0.6,-0.105,7527.777777777777
-0.515,-0.065,7530.555555555556
-0.45,-0.025,7533.333333333333
-0.395,-0.015,7536.111111111111
-0.35,0.0,7538.888888888889
-0.31,-0.005,7541.666666666667
-0.325,0.01,7544.444444444444
-0.315,0.045,7547.222222222223
-0.31,0.07,7550.0
-0.29,0.08,7552.777777777777
-0.27,0.06,7555.555555555556
-0.235,0.055,7558.333333333333
-0.18,0.04,7561.111111111111
-0.14,0.08,7563.888888888889
-0.125,0.09,7566.666666666667
-0.13,0.09,7569.444444444444
-0.13,0.09,7572.222222222223
-0.135,0.09,7575.0
-0.14,0.095,7577.777777777777
-0.115,0.095,7580.555555555556
-0.035,0.095,7583.333333333333
0.055,0.1,7586.111111111111
0.115,0.065,7588.888888888889
0.085,0.035,7591.666666666667
0.0,0.06,7594.444444444444
-0.065,0.095,7597.222222222223
-0.125,0.135,7600.0
-0.195,0.145,7602.777777777777
-0.23,0.15,7605.555555555556
-0.18,0.115,7608.333333333333
-0.085,0.09,7611.111111111111
0.015,0.09,7613.888888888889
0.065,0.075,7616.666666666667
0.06,0.055,7619.444444444444
0.025,0.015,7622.222222222223
0.01,0.0,7625.0
-0.005,-0.01,7627.777777777777
0.045,-0.015,7630.555555555556
0.13,-0.045,7633.333333333333
0.09,-0.1,7636.111111111111
-0.08,-0.12,7638.888888888889
-0.28,-0.16,7641.666666666667
-0.35,-0.155,7644.444444444444
-0.305,-0.13,7647.222222222223
-0.235,-0.11,7650.0
-0.25,-0.12,7652.777777777777
-0.31,-0.15,7655.555555555556
-0.3,-0.175,7658.333333333333
-0.225,-0.2,7661.111111111111
-0.125,-0.23,7663.888888888889
-0.085,-0.195,7666.666666666667
-0.055,-0.2,7669.444444444444
-0.035,-0.2,7672.222222222223
-0.04,-0.19,7675.0
-0.065,-0.155,7677.777777777777
-0.05,-0.12,7680.555555555556
-0.005,-0.075,7683.333333333333
0.015,-0.055,7686.111111111111
-0.025,-0.025,7688.888888888889
-0.095,0.005,7691.666666666667
-0.105,0.065,7694.444444444444
0.01,0.11,7697.222222222223
0.145,0.175,7700.0
0.23,0.205,7702.777777777777
0.25,0.2,7705.555555555556
0.21,0.16,7708.333333333333
0.165,0.11,7711.111111111111
0.065,0.085,7713.888888888889
-0.05,0.06,7716.666666666667
-0.13,0.04,7719.444444444444
-0.18,0.045,7722.222222222223
-0.16,0.02,7725.0
-0.135,0.035,7727.777777777777
-0.03,0.08,7730.555555555556
0.205,0.11,7733.333333333333
0.49,0.1,7736.111111111111
0.705,0.04,7738.888888888889
0.83,-0.035,7741.666666666667
0.885,-0.12,7744.444444444444
0.98,-0.12,7747.222222222223
1.1,-0.105,7750.0
1.205,-0.12,7752.777777777777
1.29,-0.185,7755.555555555556
1.295,-0.295,7758.333333333333
1.175,-0.405,7761.111111111111
1.015,-0.49,7763.888888888889
0.935,-0.53,7766.666666666667
0.87,-0.55,7769.444444444444
0.7,-0.52,7772.222222222223
0.34,-0.47,7775.0
-0.095,-0.375,7777.777777777777
-0.34,-0.25,7780.555555555556
-0.37,-0.185,7783.333333333333
-0.31,-0.13,7786.111111111111
-0.31,-0.125,7788.888888888889
-0.37,-0.11,7791.666666666667
-0.46,-0.095,7794.444444444444
-0.445,-0.07,7797.222222222223
-0.41,-0.065,7800.0
-0.37,-0.075,7802.777777777777
-0.33,-0.095,7805.555555555556
-0.305,-0.08,7808.333333333333
-0.35,-0.01,7811.111111111111
-0.48,0.065,7813.888888888889
-0.555,0.125,7816.666666666667
-0.51,0.115,7819.444444444444
-0.36,0.02,7822.222222222223
-0.275,-0.125,7825.0
-0.335,-0.24,7827.777777777777
-0.58,-0.285,7830.555555555556
-0.89,-0.29,7833.333333333333
-0.96,-0.235,7836.111111111111
-0.725,-0.2,7838.888888888889
-0.42,-0.14,7841.666666666667
-0.33,-0.07,7844.444444444444
-0.46,-0.055,7847.222222222223
-0.48,-0.045,7850.0
-0.375,-0.06,7852.777777777777
-0.425,-0.11,7855.555555555556
-0.65,-0.11,7858.333333333333
-0.82,-0.08,7861.111111111111
-0.8,-0.02,7863.888888888889
-0.645,0.025,7866.666666666667
-0.5,0.03,7869.444444444444
-0.475,0.04,7872.222222222223
-0.54,0.03,7875.0
-0.555,0.05,7877.777777777777
-0.49,0.08,7880.555555555556
-0.41,0.08,7883.333333333333
-0.425,0.05,7886.111111111111
-0.505,0.045,7888.888888888889
-0.55,0.015,7891.666666666667
-0.635,0.035,7894.444444444444
-0.715,0.045,7897.222222222223
-0.66,0.1,7900.0
-0.56,0.105,7902.777777777777
-0.52,0.105,7905.555555555556
-0.54,0.12,7908.333333333333
-0.585,0.12,7911.111111111111
-0.53,0.14,7913.888888888889
-0.39,0.13,7916.666666666667
-0.2,0.1,7919.444444444444
-0.11,0.075,7922.222222222223
-0.19,0.065,7925.0
-0.375,0.085,7927.777777777777
-0.515,0.1,7930.555555555556
-0.545,0.14,7933.333333333333
-0.46,0.14,7936.111111111111
-0.44,0.125,7938.888888888889
-0.455,0.12,7941.666666666667
-0.4,0.12,7944.444444444444
-0.315,0.11,7947.222222222223
-0.225,0.115,7950.0
-0.185,0.095,7952.777777777777
-0.265,0.075,7955.555555555556
-0.365,0.065,7958.333333333333
-0.415,0.06,7961.111111111111
-0.285,0.095,7963.888888888889
-0.055,0.1,7966.666666666667
0.085,0.045,7969.444444444444
-0.03,-0.03,7972.222222222223
-0.18,-0.135,7975.0
-0.18,-0.175,7977.777777777777
-0.075,-0.17,7980.555555555556
0.0,-0.135,7983.333333333333
0.075,-0.105,7986.111111111111
0.065,-0.095,7988.888888888889
-0.08,-0.09,7991.666666666667
-0.285,-0.065,7994.444444444444
-0.435,-0.01,7997.222222222223
-0.39,0.05,8000.0
-0.165,0.07,8002.777777777777
-0.03,0.065,8005.555555555556
-0.165,0.06,8008.333333333333
-0.395,0.07,8011.111111111111
-0.46,0.095,8013.888888888889
-0.37,0.08,8016.666666666667
-0.275,0.055,8019.444444444444
-0.28,0.02,8022.222222222223
-0.32,0.015,8025.0
-0.31,0.025,8027.777777777777
-0.2,0.075,8030.555555555556
-0.12,0.125,8033.333333333333
-0.13,0.175,8036.111111111111
-0.185,0.2,8038.888888888889
-0.22,0.19,8041.666666666667
-0.17,0.17,8044.444444444444
-0.1,0.135,8047.222222222223
-0.025,0.095,8050.0
-0.045,0.065,8052.777777777777
-0.295,0.005,8055.555555555556
-0.595,-0.005,8058.333333333333
-0.72,0.03,8061.111111111111
-0.535,0.07,8063.888888888889
-0.27,0.105,8066.666666666667
-0.115,0.11,8069.444444444444
-0.145,0.095,8072.222222222223
-0.3,0.105,8075.0
-0.475,0.1,8077.777777777777
-0.51,0.09,8080.555555555556
-0.435,0.09,8083.333333333333
-0.34,0.07,8086.111111111111
-0.305,0.055,8088.888888888889
-0.305,0.06,8091.666666666667
-0.255,0.075,8094.444444444444
-0.12,0.105,8097.222222222223
-0.015,0.13,8100.0
-0.01,0.125,8102.777777777777
-0.11,0.125,8105.555555555556
-0.2,0.12,8108.333333333333
-0.245,0.145,8111.111111111111
-0.15,0.175,8113.888888888889
0.085,0.195,8116.666666666667
0.285,0.17,8119.444444444444
0.35,0.135,8122.222222222223
0.38,0.08,8125.0
0.5,0.03,8127.777777777777
0.7,-0.04,8130.555555555556
0.87,-0.105,8133.333333333333
1.01,-0.2,8136.111111111111
1.155,-0.27,8138.888888888889
1.28,-0.31,8141.666666666667
1.315,-0.35,8144.444444444444
1.34,-0.385,8147.222222222223
1.33,-0.43,8150.0
1.23,-0.48,8152.777777777777
1.065,-0.51,8155.555555555556
0.95,-0.53,8158.333333333333
0.9,-0.54,8161.111111111111
0.8,-0.52,8163.888888888889
0.495,-0.45,8166.666666666667
0.005,-0.395,8169.444444444444
-0.44,-0.33,8172.222222222223
-0.665,-0.255,8175.0
-0.66,-0.175,8177.777777777777
-0.575,-0.105,8180.555555555556
-0.55,-0.04,8183.333333333333
-0.58,-0.025,8186.111111111111
-0.675,0.005,8188.888888888889
-0.78,0.05,8191.666666666667
-0.89,0.065,8194.444444444445
-0.99,0.11,8197.222222222223
-1.025,0.14,8200.0
-0.97,0.155,8202.777777777777
-0.87,0.13,8205.555555555555
-0.81,0.13,8208.333333333334
-0.795,0.135,8211.111111111111
-0.775,0.125,8213.888888888889
-0.765,0.135,8216.666666666666
-0.76,0.135,8219.444444444445
-0.81,0.1,8222.222222222223
-0.85,0.08,8225.0
-0.89,0.08,8227.777777777777
-0.905,0.105,8230.555555555555
-0.895,0.13,8233.333333333334
-0.85,0.11,8236.111111111111
-0.775,0.095,8238.888888888889
-0.72,0.085,8241.666666666666
-0.68,0.095,8244.444444444445
-0.675,0.12,8247.222222222223
-0.745,0.145,8250.0
-0.875,0.17,8252.777777777777
-0.905,0.145,8255.555555555555
-0.765,0.11,8258.333333333334
-0.475,0.065,8261.111111111111
-0.32,0.04,8263.888888888889
-0.5,0.045,8266.666666666666
-0.885,0.075,8269.444444444445
-1.15,0.095,8272.222222222223
-1.09,0.095,8275.0
-0.875,0.095,8277.777777777777
-0.675,0.045,8280.555555555555
-0.635,0.01,8283.333333333334
-0.67,-0.03,8286.111111111111
-0.705,-0.06,8288.888888888889
-0.725,-0.06,8291.666666666666
-0.835,-0.04,8294.444444444445
-0.945,0.01,8297.222222222223
-0.99,0.05,8300.0
-0.975,0.075,8302.777777777777
-0.875,0.095,8305.555555555555
-0.775,0.095,8308.333333333334
-0.745,0.125,8311.111111111111
-0.735,0.14,8313.888888888889
-0.71,0.155,8316.666666666666
-0.665,0.155,8319.444444444445
-0.62,0.165,8322.222222222223
-0.61,0.16,8325.0
-0.58,0.145,8327.777777777777
-0.475,0.175,8330.555555555555
-0.305,0.18,8333.333333333334
-0.215,0.185,8336.111111111111
-0.355,0.19,8338.888888888889
-0.57,0.21,8341.666666666666
-0.695,0.25,8344.444444444445
-0.69,0.33,8347.222222222223
-0.69,0.37,8350.0
-0.715,0.37,8352.777777777777
-0.635,0.31,8355.555555555555
-0.395,0.215,8358.333333333334
-0.23,0.14,8361.111111111111
-0.315,0.105,8363.888888888889
-0.49,0.095,8366.666666666666
-0.575,0.095,8369.444444444445
-0.58,0.11,8372.222222222223
-0.545,0.105,8375.0
-0.535,0.13,8377.777777777777
-0.495,0.145,8380.555555555555
-0.46,0.17,8383.333333333334
-0.465,0.155,8386.111111111111
-0.56,0.145,8388.888888888889
-0.655,0.13,8391.666666666666
-0.685,0.13,8394.444444444445
-0.64,0.15,8397.222222222223
-0.6,0.17,8400.0
-0.6,0.15,8402.777777777777
-0.615,0.14,8405.555555555555
-0.625,0.13,8408.333333333334
-0.625,0.125,8411.111111111111
-0.595,0.15,8413.888888888889
-0.56,0.155,8416.666666666666
-0.53,0.16,8419.444444444445
-0.535,0.15,8422.222222222223
-0.555,0.155,8425.0
-0.54,0.17,8427.777777777777
-0.46,0.2,8430.555555555555
-0.33,0.24,8433.333333333334
-0.285,0.22,8436.111111111111
-0.43,0.2,8438.888888888889
-0.69,0.175,8441.666666666666
-0.905,0.16,8444.444444444445
-0.975,0.155,8447.222222222223
-0.875,0.135,8450.0
-0.735,0.105,8452.777777777777
-0.66,0.085,8455.555555555555
-0.63,0.075,8458.333333333334
-0.59,0.085,8461.111111111111
-0.5,0.13,8463.888888888889
-0.42,0.165,8466.666666666666
-0.41,0.185,8469.444444444445
-0.52,0.19,8472.222222222223
-0.62,0.195,8475.0
-0.685,0.215,8477.777777777777
-0.625,0.205,8480.555555555555
-0.53,0.2,8483.333333333334
-0.555,0.18,8486.111111111111
-0.665,0.16,8488.888888888889
-0.815,0.18,8491.666666666666
-0.885,0.205,8494.444444444445
-0.895,0.23,8497.222222222223
-0.82,0.24,8500.0
-0.72,0.245,8502.777777777777
-0.665,0.225,8505.555555555555
-0.635,0.23,8508.333333333334
-0.64,0.265,8511.111111111111
-0.63,0.275,8513.888888888889
-0.595,0.255,8516.666666666666
-0.57,0.18,8519.444444444445
-0.565,0.09,8522.222222222223
-0.575,0.015,8525.0
-0.595,-0.005,8527.777777777777
-0.6,0.01,8530.555555555555
-0.585,0.03,8533.333333333334
-0.575,0.04,8536.111111111111
-0.57,0.045,8538.888888888889
-0.585,0.035,8541.666666666666
-0.575,0.06,8544.444444444445
-0.555,0.09,8547.222222222223
-0.52,0.11,8550.0
-0.5,0.11,8552.777777777777
-0.49,0.115,8555.555555555555
-0.45,0.1,8558.333333333334
-0.415,0.12,8561.111111111111
-0.435,0.155,8563.888888888889
-0.58,0.165,8566.666666666666
-0.715,0.14,8569.444444444445
-0.765,0.105,8572.222222222223
-0.735,0.08,8575.0
-0.69,0.075,8577.777777777777
-0.69,0.16,8580.555555555555
-0.715,0.2,8583.333333333334
-0.63,0.23,8586.111111111111
-0.53,0.245,8588.888888888889
-0.485,0.22,8591.666666666666
-0.59,0.18,8594.444444444445
-0.78,0.18,8597.222222222223
-0.86,0.15,8600.0
-0.835,0.125,8602.777777777777
-0.75,0.09,8605.555555555555
-0.67,0.065,8608.333333333334
-0.635,0.09,8611.111111111111
-0.63,0.125,8613.888888888889
-0.63,0.145,8616.666666666666
-0.66,0.14,8619.444444444445
-0.675,0.13,8622.222222222223
-0.63,0.115,8625.0
-0.575,0.14,8627.777777777777
-0.575,0.175,8630.555555555555
-0.58,0.195,8633.333333333334
-0.52,0.205,8636.111111111111
-0.41,0.2,8638.888888888889
-0.305,0.205,8641.666666666666
-0.265,0.23,8644.444444444445
-0.26,0.32,8647.222222222223
-0.14,0.39,8650.0
0.055,0.44,8652.777777777777
0.19,0.465,8655.555555555555
0.225,0.415,8658.333333333334
0.145,0.325,8661.111111111111
0.07,0.245,8663.888888888889
0.22,0.16,8666.666666666666
0.585,0.07,8669.444444444445
0.995,-0.02,8672.222222222223
1.28,-0.115,8675.0
1.395,-0.17,8677.777777777777
1.33,-0.23,8680.555555555555
1.14,-0.245,8683.333333333334
1.03,-0.24,8686.111111111111
1.05,-0.245,8688.888888888889
1.14,-0.245,8691.666666666666
1.225,-0.265,8694.444444444445
1.255,-0.345,8697.222222222223
1.09,-0.4,8700.0
0.805,-0.47,8702.777777777777
0.545,-0.49,8705.555555555555
0.325,-0.495,8708.333333333334
0.13,-0.455,8711.111111111111
-0.125,-0.375,8713.888888888889
-0.35,-0.285,8716.666666666666
-0.49,-0.195,8719.444444444445
-0.57,-0.145,8722.222222222223
-0.625,-0.085,8725.0
-0.69,-0.03,8727.777777777777
-0.695,0.05,8730.555555555555
-0.665,0.13,8733.333333333334
-0.67,0.19,8736.111111111111
-0.7,0.21,8738.888888888889
-0.79,0.19,8741.666666666666
-0.9,0.195,8744.444444444445
-0.89,0.15,8747.222222222223
-0.745,0.1,8750.0
-0.535,0.015,8752.777777777777
-0.37,-0.03,8755.555555555555
-0.28,-0.065,8758.333333333334
-0.37,-0.04,8761.111111111111
-0.71,0.035,8763.888888888889
-1.065,0.105,8766.666666666666
-1.16,0.16,8769.444444444445
-1.06,0.175,8772.222222222223
-0.885,0.145,8775.0
-0.685,0.135,8777.777777777777
-0.59,0.115,8780.555555555555
-0.635,0.12,8783.333333333334
-0.79,0.125,8786.111111111111
-0.985,0.14,8788.888888888889
-1.125,0.165,8791.666666666666
-1.16,0.18,8794.444444444445
-1.09,0.205,8797.222222222223
-0.95,0.22,8800.0
-0.84,0.19,8802.777777777777
-0.84,0.165,8805.555555555555
-0.89,0.14,8808.333333333334
-0.875,0.13,8811.111111111111
-0.84,0.13,8813.888888888889
-0.795,0.16,8816.666666666666
-0.745,0.16,8819.444444444445
-0.71,0.165,8822.222222222223
-0.68,0.16,8825.0
-0.665,0.155,8827.777777777777
-0.655,0.155,8830.555555555555
-0.655,0.115,8833.333333333334
-0.67,0.065,8836.111111111111
-0.695,0.0,8838.888888888889
-0.685,-0.03,8841.666666666666
-0.655,-0.025,8844.444444444445
-0.63,0.035,8847.222222222223
-0.62,0.075,8850.0
-0.595,0.095,8852.777777777777
-0.625,0.125,8855.555555555555
-0.675,0.145,8858.333333333334
-0.675,0.19,8861.111111111111
-0.54,0.22,8863.888888888889
-0.35,0.23,8866.666666666666
-0.225,0.19,8869.444444444445
-0.395,0.135,8872.222222222223
-0.85,0.135,8875.0
-1.145,0.155,8877.777777777777
-1.005,0.21,8880.555555555555
-0.685,0.25,8883.333333333334
-0.495,0.26,8886.111111111111
-0.49,0.25,8888.888888888889
-0.52,0.24,8891.666666666666
-0.54,0.255,8894.444444444445
-0.505,0.25,8897.222222222223
-0.46,0.27,8900.0
-0.4,0.255,8902.777777777777
-0.375,0.23,8905.555555555555
-0.385,0.21,8908.333333333334
-0.425,0.215,8911.111111111111
-0.405,0.22,8913.888888888889
-0.375,0.245,8916.666666666666
-0.365,0.255,8919.444444444445
-0.42,0.265,8922.222222222223
-0.45,0.28,8925.0
-0.45,0.325,8927.777777777777
-0.44,0.375,8930.555555555555
-0.435,0.385,8933.333333333334
-0.41,0.395,8936.111111111111
-0.39,0.32,8938.888888888889
-0.39,0.205,8941.666666666666
-0.425,0.115,8944.444444444445
-0.415,0.05,8947.222222222223
-0.325,0.01,8950.0
-0.235,-0.02,8952.777777777777
-0.25,-0.035,8955.555555555555
-0.335,-0.065,8958.333333333334
-0.41,-0.065,8961.111111111111
-0.345,-0.04,8963.888888888889
-0.205,0.01,8966.666666666666
-0.14,0.02,8969.444444444445
-0.125,0.02,8972.222222222223
-0.12,0.02,8975.0
-0.19,0.01,8977.777777777777
-0.37,0.025,8980.555555555555
-0.485,0.055,8983.333333333334
-0.435,0.07,8986.111111111111
-0.34,0.065,8988.888888888889
-0.305,0.05,8991.666666666666
-0.31,0.055,8994.444444444445
-0.31,0.075,8997.222222222223
-0.25,0.105,9000.0
-0.165,0.145,9002.777777777777
-0.15,0.195,9005.555555555555
-0.17,0.235,9008.333333333334
-0.205,0.24,9011.111111111111
-0.24,0.255,9013.888888888889
-0.36,0.25,9016.666666666666
-0.49,0.17,9019.444444444445
-0.565,0.095,9022.222222222223
-0.515,0.03,9025.0
-0.435,0.005,9027.777777777777
-0.395,0.01,9030.555555555555
-0.425,0.025,9033.333333333334
-0.41,0.055,9036.111111111111
-0.38,0.055,9038.888888888889
-0.345,0.05,9041.666666666666
-0.355,0.07,9044.444444444445
-0.355,0.085,9047.222222222223
-0.315,0.105,9050.0
-0.23,0.125,9052.777777777777
-0.155,0.11,9055.555555555555
-0.17,0.105,9058.333333333334
-0.275,0.11,9061.111111111111
-0.35,0.145,9063.888888888889
-0.395,0.175,9066.666666666666
-0.37,0.215,9069.444444444445
-0.37,0.215,9072.222222222223
-0.46,0.215,9075.0
-0.49,0.22,9077.777777777777
-0.425,0.235,9080.555555555555
-0.365,0.23,9083.333333333334
-0.32,0.225,9086.111111111111
-0.335,0.22,9088.888888888889
-0.35,0.22,9091.666666666666
-0.335,0.23,9094.444444444445
-0.27,0.21,9097.222222222223
-0.235,0.165,9100.0
-0.23,0.065,9102.777777777777
-0.235,-0.055,9105.555555555555
-0.265,-0.155,9108.333333333334
-0.25,-0.185,9111.111111111111
-0.145,-0.17,9113.888888888889
-0.035,-0.13,9116.666666666666
0.05,-0.115,9119.444444444445
0.035,-0.095,9122.222222222223
-0.005,-0.105,9125.0
-0.055,-0.07,9127.777777777777
-0.115,-0.03,9130.555555555555
-0.255,0.025,9133.333333333334
-0.41,0.075,9136.111111111111
-0.525,0.105,9138.888888888889
-0.5,0.115,9141.666666666666
-0.45,0.13,9144.444444444445
-0.385,0.125,9147.222222222223
-0.335,0.11,9150.0
-0.25,0.07,9152.777777777777
-0.185,0.035,9155.555555555555
-0.175,-0.005,9158.333333333334
-0.17,0.0,9161.111111111111
-0.165,0.015,9163.888888888889
-0.18,0.015,9166.666666666666
-0.185,0.01,9169.444444444445
-0.195,-0.015,9172.222222222223
-0.185,-0.02,9175.0
-0.205,-0.005,9177.777777777777
-0.205,0.035,9180.555555555555
-0.2,0.06,9183.333333333334
-0.18,0.08,9186.111111111111
-0.21,0.085,9188.888888888889
-0.24,0.095,9191.666666666666
-0.215,0.115,9194.444444444445
-0.17,0.16,9197.222222222223
-0.16,0.17,9200.0
-0.17,0.135,9202.777777777777
-0.14,0.085,9205.555555555555
-0.105,0.02,9208.333333333334
-0.07,0.015,9211.111111111111
-0.015,0.025,9213.888888888889
0.075,0.04,9216.666666666666
0.2,0.085,9219.444444444445
0.345,0.105,9222.222222222223
0.385,0.12,9225.0
0.415,0.135,9227.777777777777
0.49,0.13,9230.555555555555
0.665,0.105,9233.333333333334
0.91,0.065,9236.111111111111
1.175,0.015,9238.888888888889
1.45,-0.055,9241.666666666666
1.575,-0.1,9244.444444444445
1.575,-0.155,9247.222222222223
1.545,-0.19,9250.0
1.595,-0.235,9252.777777777777
1.715,-0.3,9255.555555555555
1.765,-0.37,9258.333333333334
1.69,-0.435,9261.111111111111
1.64,-0.515,9263.888888888889
1.595,-0.585,9266.666666666666
1.52,-0.655,9269.444444444445
1.375,-0.665,9272.222222222223
1.15,-0.655,9275.0
0.865,-0.6,9277.777777777777
0.61,-0.5,9280.555555555555
0.43,-0.38,9283.333333333334
0.33,-0.315,9286.111111111111
0.22,-0.27,9288.888888888889
0.02,-0.24,9291.666666666666
-0.235,-0.215,9294.444444444445
-0.44,-0.18,9297.222222222223
-0.445,-0.155,9300.0
-0.29,-0.15,9302.777777777777
-0.175,-0.16,9305.555555555555
-0.215,-0.155,9308.333333333334
-0.37,-0.135,9311.111111111111
-0.445,-0.09,9313.888888888889
-0.45,-0.06,9316.666666666666
-0.49,-0.02,9319.444444444445
-0.61,0.0,9322.222222222223
-0.705,0.025,9325.0
-0.69,0.045,9327.777777777777
-0.645,0.08,9330.555555555555
-0.595,0.11,9333.333333333334
-0.575,0.135,9336.111111111111
-0.565,0.16,9338.888888888889
-0.56,0.22,9341.666666666666
-0.485,0.26,9344.444444444445
-0.415,0.25,9347.222222222223
-0.385,0.22,9350.0
-0.435,0.135,9352.777777777777
-0.49,0.025,9355.555555555555
-0.45,-0.045,9358.333333333334
-0.39,-0.065,9361.111111111111
-0.42,-0.035,9363.888888888889
-0.505,0.015,9366.666666666666
-0.545,0.04,9369.444444444445
-0.455,0.075,9372.222222222223
-0.395,0.12,9375.0
-0.48,0.155,9377.777777777777
-0.6,0.17,9380.555555555555
-0.58,0.15,9383.333333333334
-0.455,0.09,9386.111111111111
-0.505,-0.01,9388.888888888889
-0.665,-0.085,9391.666666666666
-0.745,-0.125,9394.444444444445
-0.695,-0.14,9397.222222222223
-0.575,-0.125,9400.0
-0.465,-0.1,9402.777777777777
-0.4,-0.11,9405.555555555555
-0.39,-0.1,9408.333333333334
-0.39,-0.09,9411.111111111111
-0.385,-0.045,9413.888888888889
-0.34,-0.035,9416.666666666666
-0.265,-0.025,9419.444444444445
-0.275,-0.025,9422.222222222223
-0.365,-0.03,9425.0
-0.41,0.005,9427.777777777777
-0.34,0.035,9430.555555555555
-0.23,0.07,9433.333333333334
-0.13,0.065,9436.111111111111
-0.055,0.055,9438.888888888889
-0.035,-0.005,9441.666666666666
-0.065,-0.015,9444.444444444445
-0.095,-0.005,9447.222222222223
-0.085,0.06,9450.0
-0.105,0.105,9452.777777777777
-0.195,0.115,9455.555555555555
-0.23,0.11,9458.333333333334
-0.185,0.11,9461.111111111111
-0.105,0.105,9463.888888888889
-0.04,0.085,9466.666666666666
-0.025,0.065,9469.444444444445
-0.09,0.03,9472.222222222223
-0.17,0.005,9475.0
-0.155,0.02,9477.777777777777
-0.11,0.04,9480.555555555555
-0.11,0.075,9483.333333333334
-0.13,0.09,9486.111111111111
-0.17,0.09,9488.888888888889
-0.175,0.105,9491.666666666666
-0.15,0.11,9494.444444444445
-0.125,0.125,9497.222222222223
-0.1,0.13,9500.0
-0.06,0.115,9502.777777777777
0.045,0.09,9505.555555555555
0.095,0.06,9508.333333333334
0.015,0.06,9511.111111111111
-0.17,0.085,9513.888888888889
-0.275,0.1,9516.666666666666
-0.26,0.095,9519.444444444445
-0.13,0.07,9522.222222222223
0.01,0.045,9525.0
-0.01,0.04,9527.777777777777
-0.175,0.06,9530.555555555555
-0.285,0.06,9533.333333333334
-0.295,0.075,9536.111111111111
-0.29,0.075,9538.888888888889
-0.315,0.065,9541.666666666666
-0.325,0.08,9544.444444444445
-0.285,0.09,9547.222222222223
-0.195,0.095,9550.0
-0.13,0.09,9552.777777777777
-0.15,0.07,9555.555555555555
-0.19,0.05,9558.333333333334
-0.195,0.065,9561.111111111111
-0.16,0.075,9563.888888888889
-0.095,0.095,9566.666666666666
0.005,0.1,9569.444444444445
0.07,0.105,9572.222222222223
0.07,0.12,9575.0
-0.03,0.16,9577.777777777777
-0.1,0.205,9580.555555555555
-0.095,0.235,9583.333333333334
0.005,0.25,9586.111111111111
0.07,0.245,9588.888888888889
0.11,0.215,9591.666666666666
0.15,0.215,9594.444444444445
0.28,0.18,9597.222222222223
0.5,0.14,9600.0
0.78,0.065,9602.777777777777
1.085,0.0,9605.555555555555
1.305,-0.055,9608.333333333334
1.495,-0.065,9611.111111111111
1.625,-0.075,9613.888888888889
1.615,-0.115,9616.666666666666
1.53,-0.195,9619.444444444445
1.39,-0.275,9622.222222222223
1.27,-0.355,9625.0
1.21,-0.42,9627.777777777777
1.18,-0.43,9630.555555555555
1.065,-0.425,9633.333333333334
0.93,-0.39,9636.111111111111
0.815,-0.345,9638.888888888889
0.725,-0.28,9641.666666666666
0.6,-0.22,9644.444444444445
0.415,-0.19,9647.222222222223
0.235,-0.195,9650.0
0.085,-0.205,9652.777777777777
-0.065,-0.215,9655.555555555555
-0.28,-0.21,9658.333333333334
-0.485,-0.165,9661.111111111111
-0.515,-0.105,9663.888888888889
-0.46,-0.05,9666.666666666666
-0.4,-0.04,9669.444444444445
-0.395,-0.05,9672.222222222223
-0.43,-0.04,9675.0
-0.46,-0.015,9677.777777777777
-0.475,0.01,9680.555555555555
-0.45,0.03,9683.333333333334
-0.445,0.03,9686.111111111111
-0.495,0.03,9688.888888888889
-0.53,0.025,9691.666666666666
-0.555,0.04,9694.444444444445
-0.555,0.06,9697.222222222223
-0.51,0.09,9700.0
-0.495,0.105,9702.777777777777
-0.45,0.12,9705.555555555555
-0.415,0.12,9708.333333333334
-0.43,0.155,9711.111111111111
-0.495,0.18,9713.888888888889
-0.575,0.22,9716.666666666666
-0.59,0.19,9719.444444444445
-0.555,0.17,9722.222222222223
-0.5,0.135,9725.0
-0.415,0.155,9727.777777777777
-0.32,0.155,9730.555555555555
-0.345,0.17,9733.333333333334
-0.54,0.2,9736.111111111111
-0.765,0.22,9738.888888888889
-0.855,0.24,9741.666666666666
-0.77,0.27,9744.444444444445
-0.635,0.275,9747.222222222223
-0.56,0.26,9750.0
-0.525,0.21,9752.777777777777
-0.495,0.16,9755.555555555555
-0.46,0.11,9758.333333333334
-0.46,0.095,9761.111111111111
-0.44,0.12,9763.888888888889
-0.425,0.155,9766.666666666666
-0.385,0.165,9769.444444444445
-0.37,0.14,9772.222222222223
-0.355,0.115,9775.0
-0.365,0.105,9777.777777777777
-0.335,0.095,9780.555555555555
-0.305,0.11,9783.333333333334
-0.265,0.075,9786.111111111111
-0.26,0.055,9788.888888888889
-0.235,0.015,9791.666666666666
-0.23,0.02,9794.444444444445
-0.205,0.045,9797.222222222223
-0.17,0.06,9800.0
-0.15,0.04,9802.777777777777
-0.125,0.035,9805.555555555555
-0.14,0.02,9808.333333333334
-0.15,0.015,9811.111111111111
-0.105,0.04,9813.888888888889
-0.065,0.055,9816.666666666666
-0.035,0.055,9819.444444444445
-0.03,0.03,9822.222222222223
0.0,0.03,9825.0
0.01,0.025,9827.777777777777
0.01,0.035,9830.555555555555
-0.01,0.075,9833.333333333334
-0.06,0.065,9836.111111111111
-0.115,0.07,9838.888888888889
-0.16,0.085,9841.666666666666
-0.18,0.085,9844.444444444445
-0.165,0.115,9847.222222222223
-0.14,0.155,9850.0
-0.12,0.15,9852.777777777777
-0.165,0.15,9855.555555555555
-0.195,0.13,9858.333333333334
-0.215,0.15,9861.111111111111
-0.185,0.175,9863.888888888889
-0.175,0.18,9866.666666666666
-0.17,0.185,9869.444444444445
-0.15,0.165,9872.222222222223
-0.11,0.165,9875.0
-0.115,0.185,9877.777777777777
-0.19,0.2,9880.555555555555
-0.26,0.235,9883.333333333334
-0.285,0.24,9886.111111111111
-0.285,0.235,9888.888888888889
-0.305,0.23,9891.666666666666
-0.305,0.245,9894.444444444445
-0.27,0.245,9897.222222222223
-0.25,0.26,9900.0
-0.265,0.26,9902.777777777777
-0.26,0.225,9905.555555555555
-0.245,0.21,9908.333333333334
-0.235,0.195,9911.111111111111
-0.235,0.215,9913.888888888889
-0.215,0.215,9916.666666666666
-0.195,0.21,9919.444444444445
-0.205,0.19,9922.222222222223
-0.23,0.16,9925.0
-0.24,0.155,9927.777777777777
-0.225,0.15,9930.555555555555
-0.185,0.135,9933.333333333334
-0.145,0.11,9936.111111111111
-0.135,0.065,9938.888888888889
-0.175,0.045,9941.666666666666
-0.225,0.015,9944.444444444445
-0.23,0.015,9947.222222222223
-0.22,0.01,9950.0
-0.19,-0.015,9952.777777777777
-0.175,-0.025,9955.555555555555
-0.19,-0.03,9958.333333333334
-0.195,-0.02,9961.111111111111
-0.18,0.01,9963.888888888889
-0.165,0.035,9966.666666666666
-0.17,0.025,9969.444444444445
-0.17,0.02,9972.222222222223
-0.17,-0.005,9975.0
-0.175,0.01,9977.777777777777
-0.195,0.03,9980.555555555555
-0.16,0.055,9983.333333333334
-0.13,0.04,9986.111111111111
-0.105,0.025,9988.888888888889
-0.125,0.01,9991.666666666666
-0.165,0.02,9994.444444444445
-0.175,0.025,9997.222222222223
-0.18,0.065,10000.0
-0.165,0.055,10002.777777777777
-0.14,0.05,10005.555555555555
-0.12,0.045,10008.333333333334
-0.13,0.045,10011.111111111111
-0.165,0.075,10013.888888888889
-0.195,0.105,10016.666666666666
-0.19,0.115,10019.444444444445
-0.195,0.11,10022.222222222223
-0.185,0.095,10025.0
-0.19,0.11,10027.777777777777
-0.18,0.125,10030.555555555555
-0.17,0.155,10033.333333333334
-0.165,0.155,10036.111111111111
-0.175,0.155,10038.888888888889
-0.17,0.17,10041.666666666666
-0.175,0.17,10044.444444444445
-0.175,0.175,10047.222222222223
-0.18,0.17,10050.0
-0.16,0.15,10052.777777777777
-0.155,0.11,10055.555555555555
-0.16,0.085,10058.333333333334
-0.17,0.075,10061.111111111111
-0.17,0.07,10063.888888888889
-0.145,0.085,10066.666666666666
-0.135,0.05,10069.444444444445
-0.145,0.03,10072.222222222223
-0.16,0.01,10075.0
-0.17,0.01,10077.777777777777
-0.16,0.025,10080.555555555555
-0.17,0.02,10083.333333333334
-0.155,0.005,10086.111111111111
-0.155,-0.025,10088.888888888889
-0.165,-0.035,10091.666666666666
-0.175,-0.03,10094.444444444445
-0.175,-0.03,10097.222222222223
-0.145,-0.015,10100.0
-0.125,-0.02,10102.777777777777
-0.135,-0.04,10105.555555555555
-0.125,-0.03,10108.333333333334
-0.105,-0.04,10111.111111111111
-0.11,-0.01,10113.888888888889
-0.11,0.0,10116.666666666666
-0.105,-0.005,10119.444444444445
-0.085,0.0,10122.222222222223
-0.08,-0.005,10125.0
-0.1,0.01,10127.777777777777
-0.105,0.02,10130.555555555555
-0.085,0.045,10133.333333333334
-0.05,0.045,10136.111111111111
-0.045,0.05,10138.888888888889
-0.08,0.045,10141.666666666666
-0.095,0.05,10144.444444444445
-0.105,0.065,10147.222222222223
-0.08,0.09,10150.0
-0.065,0.08,10152.777777777777
-0.08,0.07,10155.555555555555
-0.1,0.08,10158.333333333334
-0.105,0.085,10161.111111111111
-0.115,0.115,10163.888888888889
-0.105,0.135,10166.666666666666
-0.085,0.135,10169.444444444445
-0.085,0.115,10172.222222222223
-0.07,0.115,10175.0
-0.075,0.115,10177.777777777777
-0.105,0.12,10180.555555555555
-0.11,0.13,10183.333333333334
-0.095,0.135,10186.111111111111
-0.09,0.14,10188.888888888889
-0.09,0.125,10191.666666666666
-0.105,0.14,10194.444444444445
-0.095,0.13,10197.222222222223
-0.085,0.135,10200.0
-0.065,0.11,10202.777777777777
-0.08,0.075,10205.555555555555
-0.085,0.055,10208.333333333334
-0.1,0.045,10211.111111111111
-0.09,0.055,10213.888888888889
-0.06,0.07,10216.666666666666
-0.055,0.045,10219.444444444445
-0.075,0.0,10222.222222222223
-0.09,-0.005,10225.0
-0.095,-0.025,10227.777777777777
-0.06,-0.025,10230.555555555555
-0.05,-0.025,10233.333333333334
-0.045,-0.05,10236.111111111111
-0.04,-0.065,10238.888888888889
-0.06,-0.08,10241.666666666666
-0.065,-0.065,10244.444444444445
-0.07,-0.07,10247.222222222223
-0.055,-0.04,10250.0
-0.025,-0.035,10252.777777777777
-0.04,-0.06,10255.555555555555
-0.055,-0.075,10258.333333333334
-0.07,-0.045,10261.111111111111
-0.005,-0.035,10263.888888888889
0.075,-0.01,10266.666666666666
0.135,0.015,10269.444444444445
0.16,-0.005,10272.222222222223
0.185,0.01,10275.0
0.24,0.045,10277.777777777777
0.345,0.085,10280.555555555555
0.425,0.15,10283.333333333334
0.495,0.17,10286.111111111111
0.555,0.155,10288.888888888889
0.635,0.075,10291.666666666666
0.83,0.05,10294.444444444445
1.145,0.015,10297.222222222223
1.455,-0.025,10300.0
1.665,-0.1,10302.777777777777
1.715,-0.185,10305.555555555555
1.74,-0.2,10308.333333333334
1.795,-0.205,10311.111111111111
1.845,-0.23,10313.888888888889
1.83,-0.26,10316.666666666666
1.785,-0.36,10319.444444444445
1.7,-0.46,10322.222222222223
1.52,-0.52,10325.0
1.345,-0.53,10327.777777777777
1.185,-0.505,10330.555555555555
1.015,-0.465,10333.333333333334
0.835,-0.41,10336.111111111111
0.59,-0.35,10338.888888888889
0.35,-0.3,10341.666666666666
0.155,-0.235,10344.444444444445
-0.005,-0.12,10347.222222222223
-0.115,-0.035,10350.0
-0.18,-0.005,10352.777777777777
-0.195,-0.005,10355.555555555555
-0.215,0.025,10358.333333333334
-0.24,0.02,10361.111111111111
-0.27,0.045,10363.888888888889
-0.285,0.07,10366.666666666666
-0.27,0.07,10369.444444444445
-0.26,0.045,10372.222222222223
-0.295,0.04,10375.0
-0.31,0.035,10377.777777777777
-0.325,0.055,10380.555555555555
-0.31,0.07,10383.333333333334
-0.31,0.055,10386.111111111111
-0.32,0.035,10388.888888888889
-0.35,0.015,10391.666666666666
-0.355,0.01,10394.444444444445
-0.33,0.03,10397.222222222223
-0.32,0.04,10400.0
-0.34,0.035,10402.777777777777
-0.325,0.015,10405.555555555555
-0.35,-0.005,10408.333333333334
-0.355,0.0,10411.111111111111
-0.345,0.015,10413.888888888889
-0.325,0.045,10416.666666666666
-0.3,0.035,10419.444444444445
-0.305,0.025,10422.222222222223
-0.32,0.02,10425.0
-0.33,0.015,10427.777777777777
-0.32,0.04,10430.555555555555
-0.31,0.06,10433.333333333334
-0.29,0.06,10436.111111111111
-0.295,0.06,10438.888888888889
-0.305,0.055,10441.666666666666
-0.3,0.08,10444.444444444445
-0.285,0.085,10447.222222222223
-0.275,0.09,10450.0
-0.265,0.08,10452.777777777777
-0.27,0.06,10455.555555555555
-0.295,0.065,10458.333333333334
-0.295,0.07,10461.111111111111
-0.285,0.085,10463.888888888889
-0.27,0.115,10466.666666666666
-0.26,0.11,10469.444444444445
-0.23,0.095,10472.222222222223
-0.225,0.085,10475.0
-0.22,0.075,10477.777777777777
-0.22,0.095,10480.555555555555
-0.19,0.13,10483.333333333334
-0.175,0.145,10486.111111111111
-0.18,0.135,10488.888888888889
-0.175,0.135,10491.666666666666
-0.17,0.135,10494.444444444445
-0.13,0.14,10497.222222222223
-0.115,0.15,10500.0
-0.09,0.15,10502.777777777777
-0.085,0.125,10505.555555555555
-0.06,0.11,10508.333333333334
-0.055,0.125,10511.111111111111
-0.03,0.14,10513.888888888889
0.0,0.16,10516.666666666666
0.045,0.17,10519.444444444445
0.06,0.16,10522.222222222223
0.07,0.15,10525.0
0.1,0.155,10527.777777777777
0.13,0.175,10530.555555555555
0.16,0.195,10533.333333333334
0.19,0.2,10536.111111111111
0.19,0.175,10538.888888888889
0.2,0.16,10541.666666666666
0.2,0.165,10544.444444444445
0.205,0.165,10547.222222222223
0.23,0.165,10550.0
0.245,0.16,10552.777777777777
0.245,0.145,10555.555555555555
0.23,0.135,10558.333333333334
0.215,0.125,10561.111111111111
0.21,0.155,10563.888888888889
0.22,0.16,10566.666666666666
0.22,0.16,10569.444444444445
0.225,0.13,10572.222222222223
0.21,0.125,10575.0
0.205,0.115,10577.777777777777
0.21,0.11,10580.555555555555
0.195,0.125,10583.333333333334
0.195,0.12,10586.111111111111
0.2,0.1,10588.888888888889
0.19,0.075,10591.666666666666
0.17,0.075,10594.444444444445
0.185,0.085,10597.222222222223
0.205,0.09,10600.0
0.22,0.07,10602.777777777777
0.22,0.06,10605.555555555555
0.195,0.03,10608.333333333334
0.185,0.01,10611.111111111111
0.205,0.01,10613.888888888889
0.2,0.0,10616.666666666666
0.22,-0.02,10619.444444444445
0.21,-0.055,10622.222222222223
0.19,-0.055,10625.0
0.195,-0.045,10627.777777777777
0.19,-0.03,10630.555555555555
0.205,0.0,10633.333333333334
0.24,-0.01,10636.111111111111
0.27,-0.015,10638.888888888889
0.29,-0.045,10641.666666666666
0.345,-0.06,10644.444444444445
0.415,-0.055,10647.222222222223
0.495,-0.04,10650.0
0.53,-0.04,10652.777777777777
0.49,-0.05,10655.555555555555
0.385,-0.045,10658.333333333334
0.33,-0.015,10661.111111111111
0.285,0.035,10663.888888888889
0.22,0.12,10666.666666666666
0.09,0.19,10669.444444444445
-0.015,0.245,10672.222222222223
-0.04,0.31,10675.0
-0.01,0.355,10677.777777777777
0.02,0.375,10680.555555555555
-0.015,0.355,10683.333333333334
-0.11,0.28,10686.111111111111
-0.165,0.185,10688.888888888889
-0.195,0.09,10691.666666666666
-0.225,-0.005,10694.444444444445
-0.325,-0.075,10697.222222222223
-0.405,-0.145,10700.0
-0.465,-0.25,10702.777777777777
-0.46,-0.4,10705.555555555555
-0.425,-0.485,10708.333333333334
-0.42,-0.51,10711.111111111111
-0.42,-0.51,10713.888888888889
-0.325,-0.5,10716.666666666666
-0.19,-0.5,10719.444444444445
-0.07,-0.53,10722.222222222223
-0.015,-0.525,10725.0
-0.01,-0.52,10727.777777777777
-0.04,-0.495,10730.555555555555
-0.05,-0.47,10733.333333333334
-0.04,-0.455,10736.111111111111
-0.015,-0.47,10738.888888888889
0.025,-0.465,10741.666666666666
0.085,-0.425,10744.444444444445
0.15,-0.385,10747.222222222223
0.195,-0.355,10750.0
0.205,-0.33,10752.777777777777
0.245,-0.315,10755.555555555555
0.27,-0.295,10758.333333333334
0.255,-0.28,10761.111111111111
0.22,-0.25,10763.888888888889
0.225,-0.225,10766.666666666666
0.2,-0.22,10769.444444444445
0.155,-0.225,10772.222222222223
0.105,-0.24,10775.0
0.075,-0.21,10777.777777777777
0.075,-0.175,10780.555555555555
0.095,-0.13,10783.333333333334
0.105,-0.145,10786.111111111111
0.095,-0.135,10788.888888888889
0.08,-0.145,10791.666666666666
0.095,-0.13,10794.444444444445
0.105,-0.125,10797.222222222223
0.145,-0.095,10800.0
0.135,-0.09,10802.777777777777
0.145,-0.095,10805.555555555555
0.15,-0.095,10808.333333333334
0.15,-0.095,10811.111111111111
0.17,-0.075,10813.888888888889
0.2,-0.045,10816.666666666666
0.24,-0.025,10819.444444444445
0.26,-0.015,10822.222222222223
0.27,-0.015,10825.0
0.29,0.01,10827.777777777777
0.345,0.025,10830.555555555555
0.395,0.035,10833.333333333334
0.43,0.06,10836.111111111111
0.435,0.035,10838.888888888889
0.46,0.035,10841.666666666666
0.5,0.045,10844.444444444445
0.545,0.075,10847.222222222223
0.58,0.085,10850.0
0.615,0.095,10852.777777777777
0.645,0.085,10855.555555555555
0.67,0.075,10858.333333333334
0.69,0.085,10861.111111111111
0.73,0.1,10863.888888888889
0.775,0.11,10866.666666666666
0.83,0.105,10869.444444444445
0.865,0.1,10872.222222222223
0.875,0.08,10875.0
0.905,0.09,10877.777777777777
0.965,0.1,10880.555555555555
1.01,0.105,10883.333333333334
1.035,0.105,10886.111111111111
1.09,0.09,10888.888888888889
1.12,0.08,10891.666666666666
1.145,0.07,10894.444444444445
1.165,0.085,10897.222222222223
1.19,0.085,10900.0
1.22,0.085,10902.777777777777
1.25,0.075,10905.555555555555
1.245,0.055,10908.333333333334
1.245,0.06,10911.111111111111
1.26,0.07,10913.888888888889
1.26,0.085,10916.666666666666
1.235,0.055,10919.444444444445
1.225,0.035,10922.222222222223
1.18,0.02,10925.0
1.125,0.01,10927.777777777777
1.095,-0.005,10930.555555555555
1.06,-0.005,10933.333333333334
1.04,-0.03,10936.111111111111
0.985,-0.065,10938.888888888889
0.93,-0.085,10941.666666666666
0.865,-0.095,10944.444444444445
0.85,-0.085,10947.222222222223
0.81,-0.075,10950.0
0.765,-0.075,10952.777777777777
0.725,-0.07,10955.555555555555
0.675,-0.075,10958.333333333334
0.635,-0.065,10961.111111111111
0.59,-0.045,10963.888888888889
0.575,-0.025,10966.666666666666
0.55,-0.015,10969.444444444445
0.52,-0.035,10972.222222222223
0.48,-0.04,10975.0
0.435,-0.03,10977.777777777777
0.425,-0.005,10980.555555555555
0.43,0.005,10983.333333333334
0.415,0.005,10986.111111111111
0.395,-0.005,10988.888888888889
0.365,-0.03,10991.666666666666
0.35,-0.015,10994.444444444445
0.335,-0.005,10997.222222222223
0.315,0.005,11000.0
0.325,-0.005,11002.777777777777
0.32,-0.03,11005.555555555555
0.295,-0.04,11008.333333333334
0.27,-0.05,11011.111111111111
0.285,-0.035,11013.888888888889
0.31,-0.02,11016.666666666666
0.295,-0.03,11019.444444444445
0.295,-0.045,11022.222222222223
0.27,-0.05,11025.0
0.265,-0.055,11027.777777777777
0.28,-0.035,11030.555555555555
0.28,-0.01,11033.333333333334
0.29,-0.005,11036.111111111111
0.29,0.0,11038.888888888889
0.275,-0.02,11041.666666666666
0.3,0.0,11044.444444444445
0.385,0.02,11047.222222222223
0.505,0.055,11050.0
0.59,0.04,11052.777777777777
0.625,0.025,11055.555555555555
0.67,0.01,11058.333333333334
0.725,0.02,11061.111111111111
0.75,0.06,11063.888888888889
0.77,0.11,11066.666666666666
0.895,0.135,11069.444444444445
1.07,0.09,11072.222222222223
1.3,0.055,11075.0
1.535,0.025,11077.777777777777
1.735,-0.02,11080.555555555555
1.82,-0.08,11083.333333333334
1.82,-0.19,11086.111111111111
1.825,-0.285,11088.888888888889
1.785,-0.36,11091.666666666666
1.7,-0.4,11094.444444444445
1.62,-0.47,11097.222222222223
1.52,-0.545,11100.0
1.39,-0.625,11102.777777777777
1.235,-0.665,11105.555555555555
1.1,-0.67,11108.333333333334
0.95,-0.64,11111.111111111111
0.785,-0.58,11113.888888888889
0.585,-0.495,11116.666666666666
0.415,-0.44,11119.444444444445
0.23,-0.4,11122.222222222223
0.075,-0.365,11125.0
-0.03,-0.29,11127.777777777777
-0.04,-0.22,11130.555555555555
-0.045,-0.19,11133.333333333334
-0.06,-0.175,11136.111111111111
-0.11,-0.17,11138.888888888889
-0.15,-0.165,11141.666666666666
-0.19,-0.14,11144.444444444445
-0.205,-0.105,11147.222222222223
-0.205,-0.085,11150.0
-0.195,-0.075,11152.777777777777
-0.23,-0.08,11155.555555555555
-0.265,-0.095,11158.333333333334
-0.28,-0.09,11161.111111111111
-0.295,-0.07,11163.888888888889
-0.275,-0.055,11166.666666666666
-0.265,-0.06,11169.444444444445
-0.29,-0.06,11172.222222222223
-0.3,-0.09,11175.0
-0.3,-0.08,11177.777777777777
-0.3,-0.09,11180.555555555555
-0.285,-0.065,11183.333333333334
-0.27,-0.095,11186.111111111111
-0.265,-0.105,11188.888888888889
-0.28,-0.115,11191.666666666666
-0.28,-0.12,11194.444444444445
-0.28,-0.11,11197.222222222223
-0.26,-0.1,11200.0
-0.25,-0.115,11202.777777777777
-0.245,-0.15,11205.555555555555
-0.24,-0.16,11208.333333333334
-0.24,-0.17,11211.111111111111
-0.225,-0.155,11213.888888888889
-0.2,-0.13,11216.666666666666
-0.205,-0.155,11219.444444444445
-0.215,-0.165,11222.222222222223
-0.225,-0.175,11225.0
-0.215,-0.185,11227.777777777777
-0.18,-0.165,11230.555555555555
-0.185,-0.15,11233.333333333334
-0.185,-0.185,11236.111111111111
-0.205,-0.2,11238.888888888889
-0.205,-0.22,11241.666666666666
-0.215,-0.205,11244.444444444445
-0.21,-0.195,11247.222222222223
-0.195,-0.17,11250.0
-0.18,-0.17,11252.777777777777
-0.165,-0.185,11255.555555555555
-0.18,-0.18,11258.333333333334
-0.19,-0.16,11261.111111111111
-0.175,-0.13,11263.888888888889
-0.145,-0.105,11266.666666666666
-0.13,-0.1,11269.444444444445
-0.11,-0.1,11272.222222222223
-0.1,-0.1,11275.0
-0.065,-0.09,11277.777777777777
-0.005,-0.07,11280.555555555555
0.03,-0.045,11283.333333333334
0.045,-0.06,11286.111111111111
0.08,-0.07,11288.888888888889
0.1,-0.085,11291.666666666666
0.13,-0.065,11294.444444444445
0.155,-0.04,11297.222222222223
0.185,-0.035,11300.0
0.2,-0.045,11302.777777777777
0.21,-0.055,11305.555555555555
0.2,-0.06,11308.333333333334
0.175,-0.045,11311.111111111111
0.205,-0.035,11313.888888888889
0.23,-0.02,11316.666666666666
0.23,-0.025,11319.444444444445
0.195,-0.035,11322.222222222223
0.185,-0.035,11325.0
0.185,-0.04,11327.777777777777
0.18,-0.015,11330.555555555555
0.18,0.0,11333.333333333334
0.17,-0.005,11336.111111111111
0.155,-0.02,11338.888888888889
0.135,-0.025,11341.666666666666
0.125,-0.04,11344.444444444445
0.125,-0.04,11347.222222222223
0.145,-0.035,11350.0
0.145,-0.045,11352.777777777777
0.135,-0.07,11355.555555555555
0.105,-0.105,11358.333333333334
0.125,-0.125,11361.111111111111
0.13,-0.14,11363.888888888889
0.13,-0.145,11366.666666666666
0.125,-0.155,11369.444444444445
0.12,-0.205,11372.222222222223
0.11,-0.25,11375.0
0.115,-0.27,11377.777777777777
0.135,-0.26,11380.555555555555
0.145,-0.265,11383.333333333334
0.17,-0.29,11386.111111111111
0.185,-0.31,11388.888888888889
0.165,-0.325,11391.666666666666
0.14,-0.32,11394.444444444445
0.15,-0.305,11397.222222222223
0.18,-0.295,11400.0
0.195,-0.295,11402.777777777777
0.16,-0.285,11405.555555555555
0.12,-0.305,11408.333333333334
0.11,-0.285,11411.111111111111
0.125,-0.255,11413.888888888889
0.125,-0.235,11416.666666666666
0.145,-0.225,11419.444444444445
0.135,-0.24,11422.222222222223
0.13,-0.25,11425.0
0.115,-0.23,11427.777777777777
0.14,-0.205,11430.555555555555
