MLII,V1,time_ms
-0.43,-0.54,0.0
-0.43,-0.54,2.7777777777777777
-0.43,-0.54,5.555555555555555
-0.43,-0.54,8.333333333333334
-0.43,-0.54,11.11111111111111
-0.43,-0.54,13.88888888888889
-0.43,-0.54,16.666666666666668
-0.43,-0.54,19.444444444444443
-0.45,-0.55,22.22222222222222
-0.46,-0.535,25.0
-0.465,-0.525,27.77777777777778
-0.46,-0.53,30.555555555555557
-0.46,-0.505,33.333333333333336
-0.445,-0.51,36.111111111111114
-0.445,-0.51,38.888888888888886
-0.455,-0.505,41.666666666666664
-0.47,-0.515,44.44444444444444
-0.47,-0.52,47.22222222222222
-0.465,-0.54,50.0
-0.475,-0.53,52.77777777777778
-0.48,-0.535,55.55555555555556
-0.48,-0.52,58.333333333333336
-0.47,-0.525,61.111111111111114
-0.465,-0.52,63.888888888888886
-0.47,-0.515,66.66666666666667
-0.46,-0.515,69.44444444444444
-0.445,-0.51,72.22222222222223
-0.455,-0.51,75.0
-0.465,-0.515,77.77777777777777
-0.46,-0.52,80.55555555555556
-0.47,-0.545,83.33333333333333
-0.465,-0.54,86.11111111111111
-0.475,-0.535,88.88888888888889
-0.48,-0.53,91.66666666666667
-0.46,-0.535,94.44444444444444
-0.45,-0.515,97.22222222222223
-0.445,-0.515,100.0
-0.44,-0.51,102.77777777777777
-0.435,-0.515,105.55555555555556
-0.43,-0.525,108.33333333333333
-0.44,-0.535,111.11111111111111
-0.445,-0.54,113.88888888888889
-0.45,-0.545,116.66666666666667
-0.44,-0.55,119.44444444444444
-0.445,-0.55,122.22222222222223
-0.465,-0.54,125.0
-0.445,-0.535,127.77777777777777
-0.435,-0.54,130.55555555555554
-0.43,-0.515,133.33333333333334
-0.43,-0.515,136.11111111111111
-0.425,-0.525,138.88888888888889
-0.425,-0.525,141.66666666666666
-0.425,-0.535,144.44444444444446
-0.42,-0.55,147.22222222222223
-0.44,-0.545,150.0
-0.45,-0.56,152.77777777777777
-0.44,-0.55,155.55555555555554
-0.44,-0.555,158.33333333333334
-0.435,-0.55,161.11111111111111
-0.42,-0.545,163.88888888888889
-0.415,-0.54,166.66666666666666
-0.415,-0.535,169.44444444444446
-0.41,-0.535,172.22222222222223
-0.4,-0.55,175.0
-0.405,-0.55,177.77777777777777
-0.415,-0.565,180.55555555555554
-0.415,-0.56,183.33333333333334
-0.425,-0.565,186.11111111111111
-0.425,-0.565,188.88888888888889
-0.425,-0.57,191.66666666666666
-0.41,-0.565,194.44444444444446
-0.41,-0.55,197.22222222222223
-0.4,-0.55,200.0
-0.39,-0.545,202.77777777777777
-0.39,-0.555,205.55555555555554
-0.395,-0.56,208.33333333333334
-0.395,-0.57,211.11111111111111
-0.395,-0.575,213.88888888888889
-0.405,-0.585,216.66666666666666
-0.41,-0.585,219.44444444444446
-0.405,-0.595,222.22222222222223
-0.405,-0.58,225.0
-0.4,-0.575,227.77777777777777
-0.395,-0.58,230.55555555555554
-0.385,-0.57,233.33333333333334
-0.37,-0.565,236.11111111111111
-0.365,-0.575,238.88888888888889
-0.355,-0.575,241.66666666666666
-0.365,-0.595,244.44444444444446
-0.355,-0.595,247.22222222222223
-0.355,-0.615,250.0
-0.36,-0.605,252.77777777777777
-0.36,-0.615,255.55555555555554
-0.36,-0.615,258.3333333333333
-0.345,-0.605,261.1111111111111
-0.33,-0.595,263.8888888888889
-0.325,-0.59,266.6666666666667
-0.31,-0.59,269.44444444444446
-0.31,-0.6,272.22222222222223
-0.3,-0.59,275.0
-0.315,-0.61,277.77777777777777
-0.32,-0.605,280.55555555555554
-0.325,-0.63,283.3333333333333
-0.33,-0.61,286.1111111111111
-0.34,-0.61,288.8888888888889
-0.355,-0.61,291.6666666666667
-0.35,-0.595,294.44444444444446
-0.355,-0.585,297.22222222222223
-0.355,-0.575,300.0
-0.355,-0.565,302.77777777777777
-0.355,-0.58,305.55555555555554
-0.36,-0.56,308.3333333333333
-0.37,-0.565,311.1111111111111
-0.39,-0.575,313.8888888888889
-0.39,-0.59,316.6666666666667
-0.405,-0.565,319.44444444444446
-0.415,-0.565,322.22222222222223
-0.42,-0.56,325.0
-0.42,-0.545,327.77777777777777
-0.425,-0.545,330.55555555555554
-0.415,-0.54,333.3333333333333
-0.42,-0.535,336.1111111111111
-0.42,-0.535,338.8888888888889
-0.41,-0.535,341.6666666666667
-0.415,-0.535,344.44444444444446
-0.425,-0.545,347.22222222222223
-0.435,-0.545,350.0
-0.44,-0.555,352.77777777777777
-0.44,-0.55,355.55555555555554
-0.44,-0.545,358.3333333333333
-0.445,-0.55,361.1111111111111
-0.435,-0.53,363.8888888888889
-0.445,-0.525,366.6666666666667
-0.435,-0.52,369.44444444444446
-0.42,-0.515,372.22222222222223
-0.435,-0.52,375.0
-0.445,-0.53,377.77777777777777
-0.445,-0.53,380.55555555555554
-0.45,-0.545,383.3333333333333
-0.46,-0.55,386.1111111111111
-0.455,-0.545,388.8888888888889
-0.46,-0.535,391.6666666666667
-0.45,-0.53,394.44444444444446
-0.455,-0.525,397.22222222222223
-0.445,-0.51,400.0
-0.44,-0.515,402.77777777777777
-0.44,-0.505,405.55555555555554
-0.435,-0.51,408.3333333333333
-0.445,-0.52,411.1111111111111
-0.455,-0.535,413.8888888888889
-0.46,-0.535,416.6666666666667
-0.46,-0.535,419.44444444444446
-0.47,-0.535,422.22222222222223
-0.475,-0.535,425.0
-0.475,-0.53,427.77777777777777
-0.47,-0.525,430.55555555555554
-0.46,-0.51,433.3333333333333
-0.45,-0.515,436.1111111111111
-0.465,-0.515,438.8888888888889
-0.445,-0.525,441.6666666666667
-0.45,-0.525,444.44444444444446
-0.45,-0.535,447.22222222222223
-0.465,-0.545,450.0
-0.465,-0.545,452.77777777777777
-0.47,-0.53,455.55555555555554
-0.475,-0.53,458.3333333333333
-0.46,-0.53,461.1111111111111
-0.455,-0.52,463.8888888888889
-0.435,-0.515,466.6666666666667
-0.425,-0.51,469.44444444444446
-0.405,-0.5,472.22222222222223
-0.4,-0.505,475.0
-0.4,-0.51,477.77777777777777
-0.41,-0.52,480.55555555555554
-0.415,-0.52,483.3333333333333
-0.41,-0.52,486.1111111111111
-0.415,-0.52,488.8888888888889
-0.41,-0.52,491.6666666666667
-0.395,-0.515,494.44444444444446
-0.385,-0.51,497.22222222222223
-0.365,-0.52,500.0
-0.345,-0.52,502.77777777777777
-0.355,-0.54,505.55555555555554
-0.37,-0.56,508.3333333333333
-0.385,-0.57,511.1111111111111
-0.41,-0.585,513.8888888888889
-0.435,-0.58,516.6666666666666
-0.43,-0.575,519.4444444444445
-0.435,-0.57,522.2222222222222
-0.45,-0.555,525.0
-0.43,-0.56,527.7777777777778
-0.43,-0.56,530.5555555555555
-0.435,-0.545,533.3333333333334
-0.435,-0.535,536.1111111111111
-0.43,-0.53,538.8888888888889
-0.45,-0.53,541.6666666666666
-0.455,-0.535,544.4444444444445
-0.47,-0.54,547.2222222222222
-0.49,-0.53,550.0
-0.515,-0.535,552.7777777777778
-0.52,-0.53,555.5555555555555
-0.52,-0.525,558.3333333333334
-0.515,-0.52,561.1111111111111
-0.52,-0.515,563.8888888888889
-0.51,-0.51,566.6666666666666
-0.505,-0.5,569.4444444444445
-0.49,-0.505,572.2222222222222
-0.49,-0.505,575.0
-0.5,-0.505,577.7777777777778
-0.495,-0.52,580.5555555555555
-0.505,-0.53,583.3333333333334
-0.525,-0.535,586.1111111111111
-0.505,-0.535,588.8888888888889
-0.51,-0.53,591.6666666666666
-0.5,-0.515,594.4444444444445
-0.5,-0.515,597.2222222222222
-0.51,-0.495,600.0
-0.525,-0.5,602.7777777777778
-0.55,-0.49,605.5555555555555
-0.555,-0.49,608.3333333333334
-0.545,-0.495,611.1111111111111
-0.5,-0.515,613.8888888888889
-0.42,-0.54,616.6666666666666
-0.315,-0.59,619.4444444444445
-0.165,-0.625,622.2222222222222
0.0,-0.68,625.0
0.22,-0.735,627.7777777777778
0.43,-0.765,630.5555555555555
0.62,-0.78,633.3333333333334
0.735,-0.755,636.1111111111111
0.72,-0.74,638.8888888888889
0.57,-0.69,641.6666666666666
0.32,-0.635,644.4444444444445
0.015,-0.56,647.2222222222222
-0.25,-0.505,650.0
-0.43,-0.47,652.7777777777778
-0.515,-0.455,655.5555555555555
-0.51,-0.475,658.3333333333334
-0.45,-0.51,661.1111111111111
-0.395,-0.535,663.8888888888889
-0.36,-0.545,666.6666666666666
-0.33,-0.56,669.4444444444445
-0.345,-0.55,672.2222222222222
-0.37,-0.535,675.0
-0.42,-0.53,677.7777777777778
-0.44,-0.52,680.5555555555555
-0.47,-0.53,683.3333333333334
-0.48,-0.535,686.1111111111111
-0.485,-0.52,688.8888888888889
-0.48,-0.515,691.6666666666666
-0.465,-0.515,694.4444444444445
-0.475,-0.51,697.2222222222222
-0.465,-0.5,700.0
-0.47,-0.49,702.7777777777778
-0.47,-0.495,705.5555555555555
-0.47,-0.5,708.3333333333334
-0.465,-0.505,711.1111111111111
-0.475,-0.51,713.8888888888889
-0.48,-0.525,716.6666666666666
-0.485,-0.52,719.4444444444445
-0.49,-0.525,722.2222222222222
-0.48,-0.505,725.0
-0.485,-0.505,727.7777777777778
-0.475,-0.5,730.5555555555555
-0.465,-0.5,733.3333333333334
-0.46,-0.485,736.1111111111111
-0.455,-0.49,738.8888888888889
-0.455,-0.495,741.6666666666666
-0.46,-0.51,744.4444444444445
-0.46,-0.515,747.2222222222222
-0.47,-0.52,750.0
-0.475,-0.52,752.7777777777778
-0.47,-0.52,755.5555555555555
-0.47,-0.51,758.3333333333334
-0.47,-0.51,761.1111111111111
-0.465,-0.5,763.8888888888889
-0.47,-0.505,766.6666666666666
-0.46,-0.5,769.4444444444445
-0.455,-0.5,772.2222222222222
-0.455,-0.505,775.0
-0.465,-0.5,777.7777777777778
-0.465,-0.515,780.5555555555555
-0.48,-0.525,783.3333333333334
-0.48,-0.53,786.1111111111111
-0.49,-0.52,788.8888888888889
-0.475,-0.52,791.6666666666666
-0.465,-0.515,794.4444444444445
-0.455,-0.515,797.2222222222222
-0.455,-0.515,800.0
-0.445,-0.515,802.7777777777778
-0.45,-0.515,805.5555555555555
-0.44,-0.52,808.3333333333334
-0.44,-0.525,811.1111111111111
-0.44,-0.535,813.8888888888889
-0.445,-0.545,816.6666666666666
-0.455,-0.54,819.4444444444445
-0.455,-0.54,822.2222222222222
-0.455,-0.535,825.0
-0.455,-0.545,827.7777777777778
-0.44,-0.545,830.5555555555555
-0.44,-0.535,833.3333333333334
-0.425,-0.53,836.1111111111111
-0.42,-0.53,838.8888888888889
-0.415,-0.54,841.6666666666666
-0.42,-0.555,844.4444444444445
-0.425,-0.555,847.2222222222222
-0.44,-0.56,850.0
-0.445,-0.565,852.7777777777778
-0.445,-0.56,855.5555555555555
-0.46,-0.56,858.3333333333334
-0.45,-0.57,861.1111111111111
-0.44,-0.555,863.8888888888889
-0.425,-0.55,866.6666666666666
-0.405,-0.54,869.4444444444445
-0.41,-0.545,872.2222222222222
-0.415,-0.54,875.0
-0.415,-0.565,877.7777777777778
-0.405,-0.56,880.5555555555555
-0.425,-0.57,883.3333333333334
-0.42,-0.58,886.1111111111111
-0.415,-0.575,888.8888888888889
-0.4,-0.585,891.6666666666666
-0.38,-0.57,894.4444444444445
-0.37,-0.585,897.2222222222222
-0.36,-0.58,900.0
-0.355,-0.575,902.7777777777778
-0.345,-0.575,905.5555555555555
-0.34,-0.575,908.3333333333334
-0.34,-0.585,911.1111111111111
-0.34,-0.6,913.8888888888889
-0.345,-0.595,916.6666666666666
-0.34,-0.6,919.4444444444445
-0.35,-0.6,922.2222222222222
-0.35,-0.595,925.0
-0.35,-0.59,927.7777777777778
-0.345,-0.59,930.5555555555555
-0.345,-0.57,933.3333333333334
-0.325,-0.565,936.1111111111111
-0.33,-0.57,938.8888888888889
-0.335,-0.56,941.6666666666666
-0.34,-0.57,944.4444444444445
-0.36,-0.57,947.2222222222222
-0.38,-0.585,950.0
-0.385,-0.585,952.7777777777778
-0.405,-0.575,955.5555555555555
-0.41,-0.565,958.3333333333334
-0.4,-0.56,961.1111111111111
-0.415,-0.55,963.8888888888889
-0.405,-0.54,966.6666666666666
-0.41,-0.54,969.4444444444445
-0.405,-0.535,972.2222222222222
-0.41,-0.525,975.0
-0.415,-0.535,977.7777777777778
-0.41,-0.54,980.5555555555555
-0.42,-0.545,983.3333333333334
-0.435,-0.55,986.1111111111111
-0.44,-0.545,988.8888888888889
-0.45,-0.54,991.6666666666666
-0.455,-0.53,994.4444444444445
-0.45,-0.52,997.2222222222222
-0.445,-0.51,1000.0
-0.44,-0.5,1002.7777777777778
-0.44,-0.505,1005.5555555555555
-0.435,-0.505,1008.3333333333334
-0.44,-0.52,1011.1111111111111
-0.445,-0.52,1013.8888888888889
-0.445,-0.53,1016.6666666666666
-0.455,-0.53,1019.4444444444445
-0.465,-0.535,1022.2222222222222
-0.46,-0.535,1025.0
-0.46,-0.515,1027.7777777777778
-0.45,-0.515,1030.5555555555557
-0.445,-0.505,1033.3333333333333
-0.44,-0.495,1036.111111111111
-0.45,-0.495,1038.888888888889
-0.44,-0.5,1041.6666666666667
-0.44,-0.505,1044.4444444444443
-0.445,-0.515,1047.2222222222222
-0.45,-0.52,1050.0
-0.455,-0.53,1052.7777777777778
-0.465,-0.535,1055.5555555555557
-0.46,-0.525,1058.3333333333333
-0.46,-0.515,1061.111111111111
-0.465,-0.515,1063.888888888889
-0.455,-0.495,1066.6666666666667
-0.46,-0.495,1069.4444444444443
-0.46,-0.505,1072.2222222222222
-0.45,-0.5,1075.0
-0.46,-0.51,1077.7777777777778
-0.47,-0.51,1080.5555555555557
-0.48,-0.515,1083.3333333333333
-0.485,-0.525,1086.111111111111
-0.48,-0.53,1088.888888888889
-0.485,-0.515,1091.6666666666667
-0.49,-0.51,1094.4444444444443
-0.48,-0.5,1097.2222222222222
-0.47,-0.49,1100.0
-0.465,-0.495,1102.7777777777778
-0.47,-0.495,1105.5555555555557
-0.465,-0.485,1108.3333333333333
-0.465,-0.495,1111.111111111111
-0.47,-0.5,1113.888888888889
-0.465,-0.505,1116.6666666666667
-0.47,-0.51,1119.4444444444443
-0.47,-0.515,1122.2222222222222
-0.465,-0.51,1125.0
-0.45,-0.5,1127.7777777777778
-0.44,-0.49,1130.5555555555557
-0.43,-0.48,1133.3333333333333
-0.415,-0.47,1136.111111111111
-0.41,-0.47,1138.888888888889
-0.405,-0.47,1141.6666666666667
-0.41,-0.475,1144.4444444444443
-0.405,-0.475,1147.2222222222222
-0.405,-0.49,1150.0
-0.4,-0.495,1152.7777777777778
-0.4,-0.495,1155.5555555555557
-0.39,-0.5,1158.3333333333333
-0.385,-0.515,1161.111111111111
-0.385,-0.525,1163.888888888889
-0.395,-0.515,1166.6666666666667
-0.41,-0.53,1169.4444444444443
-0.415,-0.525,1172.2222222222222
-0.43,-0.515,1175.0
-0.43,-0.535,1177.7777777777778
-0.435,-0.53,1180.5555555555557
-0.445,-0.535,1183.3333333333333
-0.455,-0.535,1186.111111111111
-0.45,-0.53,1188.888888888889
-0.455,-0.53,1191.6666666666667
-0.445,-0.52,1194.4444444444443
-0.44,-0.51,1197.2222222222222
-0.45,-0.505,1200.0
-0.445,-0.495,1202.7777777777778
-0.47,-0.49,1205.5555555555557
-0.49,-0.5,1208.3333333333333
-0.5,-0.485,1211.111111111111
-0.52,-0.485,1213.888888888889
-0.53,-0.5,1216.6666666666667
-0.53,-0.5,1219.4444444444443
-0.53,-0.505,1222.2222222222222
-0.53,-0.5,1225.0
-0.525,-0.49,1227.7777777777778
-0.515,-0.49,1230.5555555555557
-0.51,-0.475,1233.3333333333333
-0.5,-0.475,1236.111111111111
-0.5,-0.485,1238.888888888889
-0.5,-0.485,1241.6666666666667
-0.505,-0.485,1244.4444444444443
-0.51,-0.5,1247.2222222222222
-0.51,-0.5,1250.0
-0.515,-0.505,1252.7777777777778
-0.525,-0.51,1255.5555555555557
-0.53,-0.5,1258.3333333333333
-0.55,-0.49,1261.111111111111
-0.57,-0.49,1263.888888888889
-0.575,-0.475,1266.6666666666667
-0.56,-0.465,1269.4444444444443
-0.505,-0.485,1272.2222222222222
-0.41,-0.51,1275.0
-0.275,-0.55,1277.7777777777778
-0.11,-0.605,1280.5555555555557
0.095,-0.66,1283.3333333333333
0.305,-0.735,1286.111111111111
0.535,-0.775,1288.888888888889
0.72,-0.78,1291.6666666666667
0.805,-0.765,1294.4444444444443
0.75,-0.715,1297.2222222222222
0.565,-0.65,1300.0
0.285,-0.56,1302.7777777777778
-0.01,-0.48,1305.5555555555557
-0.26,-0.425,1308.3333333333333
-0.425,-0.4,1311.111111111111
-0.5,-0.395,1313.888888888889
-0.49,-0.435,1316.6666666666667
-0.45,-0.48,1319.4444444444443
-0.415,-0.515,1322.2222222222222
-0.4,-0.545,1325.0
-0.385,-0.545,1327.7777777777778
-0.39,-0.54,1330.5555555555557
-0.4,-0.52,1333.3333333333333
-0.42,-0.495,1336.111111111111
-0.445,-0.49,1338.888888888889
-0.465,-0.485,1341.6666666666667
-0.47,-0.505,1344.4444444444443
-0.485,-0.505,1347.2222222222222
-0.5,-0.51,1350.0
-0.5,-0.52,1352.7777777777778
-0.51,-0.505,1355.5555555555557
-0.495,-0.5,1358.3333333333333
-0.48,-0.495,1361.111111111111
-0.48,-0.49,1363.888888888889
-0.475,-0.48,1366.6666666666667
-0.485,-0.475,1369.4444444444443
-0.48,-0.47,1372.2222222222222
-0.47,-0.475,1375.0
-0.475,-0.475,1377.7777777777778
-0.495,-0.495,1380.5555555555557
-0.505,-0.495,1383.3333333333333
-0.505,-0.495,1386.111111111111
-0.515,-0.49,1388.888888888889
-0.51,-0.485,1391.6666666666667
-0.5,-0.495,1394.4444444444443
-0.485,-0.475,1397.2222222222222
-0.485,-0.47,1400.0
-0.47,-0.465,1402.7777777777778
-0.475,-0.465,1405.5555555555557
-0.475,-0.475,1408.3333333333333
-0.48,-0.49,1411.111111111111
-0.485,-0.5,1413.888888888889
-0.485,-0.505,1416.6666666666667
-0.485,-0.505,1419.4444444444443
-0.49,-0.505,1422.2222222222222
-0.495,-0.51,1425.0
-0.49,-0.49,1427.7777777777778
-0.485,-0.495,1430.5555555555557
-0.47,-0.485,1433.3333333333333
-0.465,-0.485,1436.111111111111
-0.47,-0.49,1438.888888888889
-0.455,-0.495,1441.6666666666667
-0.455,-0.495,1444.4444444444443
-0.46,-0.505,1447.2222222222222
-0.47,-0.515,1450.0
-0.465,-0.525,1452.7777777777778
-0.475,-0.515,1455.5555555555557
-0.475,-0.515,1458.3333333333333
-0.485,-0.515,1461.111111111111
-0.48,-0.505,1463.888888888889
-0.475,-0.505,1466.6666666666667
-0.455,-0.5,1469.4444444444443
-0.44,-0.5,1472.2222222222222
-0.435,-0.51,1475.0
-0.425,-0.51,1477.7777777777778
-0.435,-0.52,1480.5555555555557
-0.435,-0.525,1483.3333333333333
-0.45,-0.52,1486.111111111111
-0.455,-0.53,1488.888888888889
-0.46,-0.535,1491.6666666666667
-0.455,-0.525,1494.4444444444443
-0.46,-0.52,1497.2222222222222
-0.455,-0.52,1500.0
-0.455,-0.51,1502.7777777777778
-0.45,-0.505,1505.5555555555557
-0.435,-0.52,1508.3333333333333
-0.43,-0.525,1511.111111111111
-0.435,-0.54,1513.888888888889
-0.435,-0.545,1516.6666666666667
-0.445,-0.56,1519.4444444444443
-0.445,-0.55,1522.2222222222222
-0.45,-0.55,1525.0
-0.445,-0.55,1527.7777777777778
-0.44,-0.54,1530.5555555555557
-0.435,-0.54,1533.3333333333333
-0.44,-0.53,1536.111111111111
-0.435,-0.535,1538.888888888889
-0.42,-0.53,1541.6666666666667
-0.425,-0.555,1544.4444444444443
-0.435,-0.565,1547.2222222222222
-0.43,-0.57,1550.0
-0.435,-0.58,1552.7777777777778
-0.425,-0.58,1555.5555555555557
-0.41,-0.58,1558.3333333333333
-0.385,-0.575,1561.111111111111
-0.375,-0.565,1563.888888888889
-0.36,-0.57,1566.6666666666667
-0.345,-0.565,1569.4444444444443
-0.34,-0.565,1572.2222222222222
-0.34,-0.565,1575.0
-0.35,-0.58,1577.7777777777778
-0.345,-0.575,1580.5555555555557
-0.36,-0.59,1583.3333333333333
-0.365,-0.59,1586.111111111111
-0.37,-0.585,1588.888888888889
-0.385,-0.59,1591.6666666666667
-0.38,-0.575,1594.4444444444443
-0.365,-0.575,1597.2222222222222
-0.37,-0.56,1600.0
-0.365,-0.555,1602.7777777777778
-0.37,-0.545,1605.5555555555557
-0.375,-0.555,1608.3333333333333
-0.39,-0.555,1611.111111111111
-0.4,-0.55,1613.888888888889
-0.415,-0.56,1616.6666666666667
-0.42,-0.56,1619.4444444444443
-0.425,-0.55,1622.2222222222222
-0.43,-0.55,1625.0
-0.43,-0.535,1627.7777777777778
-0.435,-0.525,1630.5555555555557
-0.425,-0.52,1633.3333333333333
-0.42,-0.52,1636.111111111111
-0.43,-0.525,1638.888888888889
-0.445,-0.515,1641.6666666666667
-0.445,-0.51,1644.4444444444443
-0.45,-0.515,1647.2222222222222
-0.45,-0.515,1650.0
-0.455,-0.515,1652.7777777777778
-0.465,-0.51,1655.5555555555557
-0.465,-0.51,1658.3333333333333
-0.455,-0.505,1661.111111111111
-0.46,-0.51,1663.888888888889
-0.455,-0.485,1666.6666666666667
-0.44,-0.485,1669.4444444444443
-0.45,-0.49,1672.2222222222222
-0.44,-0.485,1675.0
-0.445,-0.495,1677.7777777777778
-0.46,-0.505,1680.5555555555557
-0.46,-0.51,1683.3333333333333
-0.475,-0.515,1686.111111111111
-0.47,-0.51,1688.888888888889
-0.48,-0.505,1691.6666666666667
-0.475,-0.5,1694.4444444444443
-0.47,-0.49,1697.2222222222222
-0.465,-0.475,1700.0
-0.46,-0.48,1702.7777777777778
-0.46,-0.47,1705.5555555555557
-0.46,-0.465,1708.3333333333333
-0.47,-0.49,1711.111111111111
-0.47,-0.49,1713.888888888889
-0.48,-0.5,1716.6666666666667
-0.5,-0.505,1719.4444444444443
-0.51,-0.51,1722.2222222222222
-0.52,-0.5,1725.0
-0.51,-0.49,1727.7777777777778
-0.49,-0.48,1730.5555555555557
-0.48,-0.48,1733.3333333333333
-0.465,-0.47,1736.111111111111
-0.465,-0.475,1738.888888888889
-0.465,-0.475,1741.6666666666667
-0.465,-0.485,1744.4444444444443
-0.49,-0.48,1747.2222222222222
-0.49,-0.49,1750.0
-0.5,-0.505,1752.7777777777778
-0.495,-0.495,1755.5555555555557
-0.49,-0.5,1758.3333333333333
-0.485,-0.475,1761.111111111111
-0.48,-0.47,1763.888888888889
-0.475,-0.475,1766.6666666666667
-0.47,-0.47,1769.4444444444443
-0.48,-0.46,1772.2222222222222
-0.475,-0.475,1775.0
-0.48,-0.465,1777.7777777777778
-0.495,-0.48,1780.5555555555557
-0.49,-0.475,1783.3333333333333
-0.505,-0.48,1786.111111111111
-0.49,-0.485,1788.888888888889
-0.49,-0.475,1791.6666666666667
-0.47,-0.46,1794.4444444444443
-0.465,-0.455,1797.2222222222222
-0.455,-0.45,1800.0
-0.45,-0.43,1802.7777777777778
-0.445,-0.44,1805.5555555555557
-0.44,-0.445,1808.3333333333333
-0.43,-0.445,1811.111111111111
-0.435,-0.445,1813.888888888889
-0.43,-0.47,1816.6666666666667
-0.415,-0.48,1819.4444444444443
-0.415,-0.485,1822.2222222222222
-0.42,-0.48,1825.0
-0.41,-0.485,1827.7777777777778
-0.42,-0.485,1830.5555555555557
-0.43,-0.485,1833.3333333333333
-0.43,-0.485,1836.111111111111
-0.44,-0.5,1838.888888888889
-0.435,-0.49,1841.6666666666667
-0.455,-0.5,1844.4444444444443
-0.445,-0.49,1847.2222222222222
-0.445,-0.51,1850.0
-0.465,-0.515,1852.7777777777778
-0.475,-0.5,1855.5555555555557
-0.49,-0.505,1858.3333333333333
-0.49,-0.5,1861.111111111111
-0.495,-0.475,1863.888888888889
-0.49,-0.475,1866.6666666666667
-0.485,-0.47,1869.4444444444443
-0.49,-0.46,1872.2222222222222
-0.5,-0.455,1875.0
-0.5,-0.46,1877.7777777777778
-0.515,-0.46,1880.5555555555557
-0.52,-0.465,1883.3333333333333
-0.535,-0.48,1886.111111111111
-0.54,-0.475,1888.888888888889
-0.545,-0.465,1891.6666666666667
-0.54,-0.465,1894.4444444444443
-0.53,-0.455,1897.2222222222222
-0.535,-0.45,1900.0
-0.53,-0.43,1902.7777777777778
-0.52,-0.45,1905.5555555555557
-0.515,-0.455,1908.3333333333333
-0.505,-0.46,1911.111111111111
-0.52,-0.465,1913.888888888889
-0.525,-0.485,1916.6666666666667
-0.53,-0.48,1919.4444444444443
-0.54,-0.49,1922.2222222222222
-0.54,-0.465,1925.0
-0.55,-0.47,1927.7777777777778
-0.56,-0.47,1930.5555555555557
-0.575,-0.45,1933.3333333333333
-0.58,-0.46,1936.111111111111
-0.555,-0.46,1938.888888888889
-0.48,-0.465,1941.6666666666667
-0.36,-0.5,1944.4444444444443
-0.215,-0.53,1947.2222222222222
-0.03,-0.575,1950.0
0.195,-0.635,1952.7777777777778
0.44,-0.68,1955.5555555555557
0.65,-0.69,1958.3333333333333
0.8,-0.69,1961.111111111111
0.82,-0.655,1963.888888888889
0.69,-0.605,1966.6666666666667
0.43,-0.53,1969.4444444444443
0.105,-0.47,1972.2222222222222
-0.215,-0.42,1975.0
-0.445,-0.38,1977.7777777777778
-0.555,-0.355,1980.5555555555557
-0.58,-0.38,1983.3333333333333
-0.53,-0.4,1986.111111111111
-0.485,-0.435,1988.888888888889
-0.445,-0.465,1991.6666666666667
-0.43,-0.485,1994.4444444444443
-0.42,-0.485,1997.2222222222222
-0.425,-0.49,2000.0
-0.43,-0.47,2002.7777777777778
-0.445,-0.465,2005.5555555555557
-0.46,-0.465,2008.3333333333333
-0.475,-0.46,2011.111111111111
-0.485,-0.47,2013.888888888889
-0.5,-0.475,2016.6666666666667
-0.505,-0.48,2019.4444444444443
-0.51,-0.485,2022.2222222222222
-0.515,-0.475,2025.0
-0.52,-0.48,2027.7777777777778
-0.51,-0.47,2030.5555555555557
-0.505,-0.465,2033.3333333333333
-0.5,-0.445,2036.111111111111
-0.495,-0.45,2038.888888888889
-0.495,-0.46,2041.6666666666667
-0.495,-0.465,2044.4444444444443
-0.5,-0.475,2047.2222222222222
-0.505,-0.47,2050.0
-0.51,-0.49,2052.777777777778
-0.505,-0.49,2055.5555555555557
-0.515,-0.49,2058.3333333333335
-0.525,-0.475,2061.1111111111113
-0.515,-0.465,2063.8888888888887
-0.51,-0.46,2066.6666666666665
-0.51,-0.45,2069.4444444444443
-0.5,-0.46,2072.222222222222
-0.49,-0.465,2075.0
-0.5,-0.465,2077.777777777778
-0.5,-0.47,2080.5555555555557
-0.495,-0.49,2083.3333333333335
-0.51,-0.49,2086.1111111111113
-0.5,-0.495,2088.8888888888887
-0.505,-0.5,2091.6666666666665
-0.495,-0.48,2094.4444444444443
-0.495,-0.475,2097.222222222222
-0.495,-0.47,2100.0
-0.485,-0.455,2102.777777777778
-0.475,-0.455,2105.5555555555557
-0.475,-0.47,2108.3333333333335
-0.475,-0.475,2111.1111111111113
-0.48,-0.485,2113.8888888888887
-0.47,-0.5,2116.6666666666665
-0.48,-0.495,2119.4444444444443
-0.485,-0.505,2122.222222222222
-0.48,-0.505,2125.0
-0.495,-0.49,2127.777777777778
-0.495,-0.49,2130.5555555555557
-0.475,-0.485,2133.3333333333335
-0.47,-0.475,2136.1111111111113
-0.47,-0.485,2138.8888888888887
-0.455,-0.485,2141.6666666666665
-0.46,-0.5,2144.4444444444443
-0.455,-0.505,2147.222222222222
-0.455,-0.515,2150.0
-0.47,-0.52,2152.777777777778
-0.475,-0.525,2155.5555555555557
-0.475,-0.52,2158.3333333333335
-0.47,-0.52,2161.1111111111113
-0.47,-0.51,2163.8888888888887
-0.465,-0.505,2166.6666666666665
-0.455,-0.505,2169.4444444444443
-0.455,-0.515,2172.222222222222
-0.465,-0.515,2175.0
-0.45,-0.515,2177.777777777778
-0.46,-0.53,2180.5555555555557
-0.47,-0.545,2183.3333333333335
-0.47,-0.55,2186.1111111111113
-0.475,-0.54,2188.8888888888887
-0.475,-0.54,2191.6666666666665
-0.47,-0.53,2194.4444444444443
-0.47,-0.525,2197.222222222222
-0.455,-0.52,2200.0
-0.455,-0.515,2202.777777777778
-0.44,-0.525,2205.5555555555557
-0.435,-0.525,2208.3333333333335
-0.43,-0.535,2211.1111111111113
-0.435,-0.555,2213.8888888888887
-0.43,-0.56,2216.6666666666665
-0.425,-0.565,2219.4444444444443
-0.425,-0.57,2222.222222222222
-0.425,-0.565,2225.0
-0.415,-0.56,2227.777777777778
-0.4,-0.55,2230.5555555555557
-0.38,-0.54,2233.3333333333335
-0.38,-0.54,2236.1111111111113
-0.37,-0.545,2238.8888888888887
-0.365,-0.54,2241.6666666666665
-0.37,-0.545,2244.4444444444443
-0.375,-0.545,2247.222222222222
-0.375,-0.565,2250.0
-0.385,-0.57,2252.777777777778
-0.385,-0.56,2255.5555555555557
-0.395,-0.56,2258.3333333333335
-0.405,-0.545,2261.1111111111113
-0.395,-0.535,2263.8888888888887
-0.4,-0.525,2266.6666666666665
-0.395,-0.52,2269.4444444444443
-0.4,-0.51,2272.222222222222
-0.405,-0.52,2275.0
-0.41,-0.52,2277.777777777778
-0.415,-0.525,2280.5555555555557
-0.425,-0.525,2283.3333333333335
-0.45,-0.525,2286.1111111111113
-0.45,-0.52,2288.8888888888887
-0.46,-0.51,2291.6666666666665
-0.465,-0.51,2294.4444444444443
-0.45,-0.5,2297.222222222222
-0.45,-0.505,2300.0
-0.45,-0.485,2302.777777777778
-0.455,-0.495,2305.5555555555557
-0.45,-0.495,2308.3333333333335
-0.445,-0.49,2311.1111111111113
-0.46,-0.49,2313.8888888888887
-0.47,-0.5,2316.6666666666665
-0.47,-0.505,2319.4444444444443
-0.475,-0.51,2322.222222222222
-0.47,-0.495,2325.0
-0.475,-0.495,2327.777777777778
-0.465,-0.495,2330.5555555555557
-0.465,-0.48,2333.3333333333335
-0.455,-0.475,2336.1111111111113
-0.455,-0.465,2338.8888888888887
-0.465,-0.47,2341.6666666666665
-0.455,-0.475,2344.4444444444443
-0.465,-0.485,2347.222222222222
-0.46,-0.5,2350.0
-0.48,-0.49,2352.777777777778
-0.495,-0.51,2355.5555555555557
-0.48,-0.49,2358.3333333333335
-0.485,-0.49,2361.1111111111113
-0.475,-0.475,2363.8888888888887
-0.475,-0.465,2366.6666666666665
-0.465,-0.465,2369.4444444444443
-0.47,-0.47,2372.222222222222
-0.47,-0.465,2375.0
-0.465,-0.485,2377.777777777778
-0.48,-0.49,2380.5555555555557
-0.485,-0.49,2383.3333333333335
-0.49,-0.49,2386.1111111111113
-0.505,-0.495,2388.8888888888887
-0.5,-0.485,2391.6666666666665
-0.5,-0.475,2394.4444444444443
-0.49,-0.48,2397.222222222222
-0.48,-0.46,2400.0
-0.48,-0.46,2402.777777777778
-0.485,-0.455,2405.5555555555557
-0.475,-0.465,2408.3333333333335
-0.475,-0.475,2411.1111111111113
-0.495,-0.475,2413.8888888888887
-0.485,-0.48,2416.6666666666665
-0.505,-0.485,2419.4444444444443
-0.495,-0.49,2422.222222222222
-0.505,-0.485,2425.0
-0.495,-0.49,2427.777777777778
-0.5,-0.475,2430.5555555555557
-0.49,-0.47,2433.3333333333335
-0.48,-0.45,2436.1111111111113
-0.475,-0.455,2438.8888888888887
-0.465,-0.47,2441.6666666666665
-0.46,-0.465,2444.4444444444443
-0.46,-0.48,2447.222222222222
-0.46,-0.485,2450.0
-0.455,-0.485,2452.777777777778
-0.455,-0.47,2455.5555555555557
-0.455,-0.48,2458.3333333333335
-0.445,-0.47,2461.1111111111113
-0.44,-0.46,2463.8888888888887
-0.43,-0.445,2466.6666666666665
-0.42,-0.445,2469.4444444444443
-0.415,-0.445,2472.222222222222
-0.4,-0.455,2475.0
-0.39,-0.46,2477.777777777778
-0.375,-0.48,2480.5555555555557
-0.375,-0.495,2483.3333333333335
-0.385,-0.515,2486.1111111111113
-0.41,-0.52,2488.8888888888887
-0.425,-0.51,2491.6666666666665
-0.44,-0.52,2494.4444444444443
-0.445,-0.505,2497.222222222222
-0.435,-0.505,2500.0
-0.44,-0.5,2502.777777777778
-0.435,-0.495,2505.5555555555557
-0.435,-0.5,2508.3333333333335
-0.44,-0.505,2511.1111111111113
-0.445,-0.51,2513.8888888888887
-0.45,-0.52,2516.6666666666665
-0.46,-0.515,2519.4444444444443
-0.48,-0.515,2522.222222222222
-0.485,-0.51,2525.0
-0.495,-0.5,2527.777777777778
-0.505,-0.485,2530.5555555555557
-0.505,-0.475,2533.3333333333335
-0.515,-0.47,2536.1111111111113
-0.52,-0.46,2538.8888888888887
-0.52,-0.465,2541.6666666666665
-0.51,-0.475,2544.4444444444443
-0.515,-0.475,2547.222222222222
-0.525,-0.49,2550.0
-0.52,-0.49,2552.777777777778
-0.525,-0.5,2555.5555555555557
-0.53,-0.49,2558.3333333333335
-0.525,-0.485,2561.1111111111113
-0.515,-0.475,2563.8888888888887
-0.515,-0.47,2566.6666666666665
-0.5,-0.46,2569.4444444444443
-0.51,-0.465,2572.222222222222
-0.51,-0.465,2575.0
-0.505,-0.47,2577.777777777778
-0.505,-0.485,2580.5555555555557
-0.515,-0.495,2583.3333333333335
-0.53,-0.5,2586.1111111111113
-0.555,-0.5,2588.8888888888887
-0.575,-0.49,2591.6666666666665
-0.595,-0.48,2594.4444444444443
-0.585,-0.465,2597.222222222222
-0.525,-0.48,2600.0
-0.44,-0.475,2602.777777777778
-0.32,-0.51,2605.5555555555557
-0.17,-0.55,2608.3333333333335
0.005,-0.59,2611.1111111111113
0.215,-0.635,2613.8888888888887
0.405,-0.67,2616.6666666666665
0.59,-0.695,2619.4444444444443
0.715,-0.69,2622.222222222222
0.725,-0.67,2625.0
0.625,-0.635,2627.777777777778
0.42,-0.595,2630.5555555555557
0.15,-0.535,2633.3333333333335
-0.115,-0.49,2636.1111111111113
-0.34,-0.45,2638.8888888888887
-0.47,-0.435,2641.6666666666665
-0.515,-0.425,2644.4444444444443
-0.495,-0.465,2647.222222222222
-0.45,-0.485,2650.0
-0.41,-0.515,2652.777777777778
-0.39,-0.535,2655.5555555555557
-0.385,-0.545,2658.3333333333335
-0.385,-0.535,2661.1111111111113
-0.39,-0.525,2663.8888888888887
-0.41,-0.505,2666.6666666666665
-0.425,-0.495,2669.4444444444443
-0.43,-0.485,2672.222222222222
-0.445,-0.49,2675.0
-0.455,-0.49,2677.777777777778
-0.46,-0.495,2680.5555555555557
-0.47,-0.51,2683.3333333333335
-0.485,-0.5,2686.1111111111113
-0.475,-0.51,2688.8888888888887
-0.485,-0.51,2691.6666666666665
-0.49,-0.51,2694.4444444444443
-0.485,-0.49,2697.222222222222
-0.48,-0.485,2700.0
-0.47,-0.485,2702.777777777778
-0.475,-0.475,2705.5555555555557
-0.47,-0.485,2708.3333333333335
-0.465,-0.475,2711.1111111111113
-0.475,-0.49,2713.8888888888887
-0.47,-0.505,2716.6666666666665
-0.49,-0.5,2719.4444444444443
-0.48,-0.505,2722.222222222222
-0.49,-0.51,2725.0
-0.48,-0.49,2727.777777777778
-0.475,-0.485,2730.5555555555557
-0.465,-0.485,2733.3333333333335
-0.46,-0.48,2736.1111111111113
-0.465,-0.48,2738.8888888888887
-0.45,-0.48,2741.6666666666665
-0.455,-0.49,2744.4444444444443
-0.46,-0.495,2747.222222222222
-0.465,-0.5,2750.0
-0.47,-0.5,2752.777777777778
-0.475,-0.51,2755.5555555555557
-0.47,-0.515,2758.3333333333335
-0.465,-0.505,2761.1111111111113
-0.455,-0.495,2763.8888888888887
-0.45,-0.495,2766.6666666666665
-0.445,-0.485,2769.4444444444443
-0.44,-0.48,2772.222222222222
-0.435,-0.49,2775.0
-0.44,-0.51,2777.777777777778
-0.45,-0.515,2780.5555555555557
-0.455,-0.52,2783.3333333333335
-0.465,-0.53,2786.1111111111113
-0.47,-0.52,2788.8888888888887
-0.46,-0.52,2791.6666666666665
-0.45,-0.52,2794.4444444444443
-0.435,-0.51,2797.222222222222
-0.425,-0.5,2800.0
-0.42,-0.5,2802.777777777778
-0.425,-0.51,2805.5555555555557
-0.425,-0.505,2808.3333333333335
-0.425,-0.515,2811.1111111111113
-0.43,-0.52,2813.8888888888887
-0.44,-0.535,2816.6666666666665
-0.435,-0.535,2819.4444444444443
-0.44,-0.53,2822.222222222222
-0.44,-0.53,2825.0
-0.43,-0.525,2827.777777777778
-0.42,-0.53,2830.5555555555557
-0.42,-0.52,2833.3333333333335
-0.405,-0.505,2836.1111111111113
-0.4,-0.53,2838.8888888888887
-0.405,-0.525,2841.6666666666665
-0.41,-0.54,2844.4444444444443
-0.415,-0.54,2847.222222222222
-0.42,-0.555,2850.0
-0.425,-0.55,2852.777777777778
-0.425,-0.545,2855.5555555555557
-0.42,-0.545,2858.3333333333335
-0.425,-0.54,2861.1111111111113
-0.415,-0.53,2863.8888888888887
-0.405,-0.53,2866.6666666666665
-0.395,-0.535,2869.4444444444443
-0.4,-0.535,2872.222222222222
-0.4,-0.535,2875.0
-0.405,-0.545,2877.777777777778
-0.405,-0.565,2880.5555555555557
-0.405,-0.57,2883.3333333333335
-0.41,-0.565,2886.1111111111113
-0.41,-0.565,2888.8888888888887
-0.4,-0.57,2891.6666666666665
-0.385,-0.565,2894.4444444444443
-0.365,-0.555,2897.222222222222
-0.355,-0.555,2900.0
-0.35,-0.55,2902.777777777778
-0.34,-0.565,2905.5555555555557
-0.325,-0.555,2908.3333333333335
-0.33,-0.565,2911.1111111111113
-0.33,-0.58,2913.8888888888887
-0.34,-0.59,2916.6666666666665
-0.34,-0.59,2919.4444444444443
-0.34,-0.585,2922.222222222222
-0.335,-0.585,2925.0
-0.335,-0.575,2927.777777777778
-0.34,-0.575,2930.5555555555557
-0.335,-0.555,2933.3333333333335
-0.33,-0.555,2936.1111111111113
-0.335,-0.55,2938.8888888888887
-0.34,-0.555,2941.6666666666665
-0.35,-0.56,2944.4444444444443
-0.36,-0.565,2947.222222222222
-0.37,-0.555,2950.0
-0.385,-0.57,2952.777777777778
-0.4,-0.555,2955.5555555555557
-0.395,-0.55,2958.3333333333335
-0.395,-0.55,2961.1111111111113
-0.395,-0.525,2963.8888888888887
-0.395,-0.53,2966.6666666666665
-0.4,-0.52,2969.4444444444443
-0.405,-0.515,2972.222222222222
-0.405,-0.525,2975.0
-0.415,-0.515,2977.777777777778
-0.415,-0.525,2980.5555555555557
-0.435,-0.535,2983.3333333333335
-0.435,-0.535,2986.1111111111113
-0.44,-0.53,2988.8888888888887
-0.44,-0.52,2991.6666666666665
-0.435,-0.505,2994.4444444444443
-0.43,-0.5,2997.222222222222
-0.43,-0.495,3000.0
-0.43,-0.485,3002.777777777778
-0.43,-0.49,3005.5555555555557
-0.425,-0.5,3008.3333333333335
-0.435,-0.5,3011.1111111111113
-0.435,-0.5,3013.8888888888887
-0.45,-0.515,3016.6666666666665
-0.445,-0.51,3019.4444444444443
-0.46,-0.505,3022.222222222222
-0.455,-0.5,3025.0
-0.46,-0.5,3027.777777777778
-0.44,-0.49,3030.5555555555557
-0.445,-0.475,3033.3333333333335
-0.425,-0.48,3036.1111111111113
-0.435,-0.485,3038.8888888888887
-0.43,-0.48,3041.6666666666665
-0.44,-0.49,3044.4444444444443
-0.45,-0.485,3047.222222222222
-0.45,-0.5,3050.0
-0.46,-0.505,3052.777777777778
-0.46,-0.5,3055.5555555555557
-0.465,-0.49,3058.3333333333335
-0.46,-0.485,3061.1111111111113
-0.45,-0.485,3063.8888888888887
-0.45,-0.48,3066.6666666666665
-0.45,-0.465,3069.4444444444443
-0.45,-0.48,3072.222222222222
-0.45,-0.485,3075.0
-0.45,-0.49,3077.777777777778
-0.455,-0.5,3080.5555555555557
-0.46,-0.495,3083.3333333333335
-0.475,-0.49,3086.1111111111113
-0.485,-0.495,3088.8888888888887
-0.49,-0.49,3091.6666666666665
-0.475,-0.47,3094.4444444444443
-0.465,-0.475,3097.222222222222
-0.455,-0.465,3100.0
-0.455,-0.46,3102.777777777778
-0.445,-0.465,3105.5555555555557
-0.44,-0.47,3108.3333333333335
-0.445,-0.48,3111.1111111111113
-0.44,-0.48,3113.8888888888887
-0.44,-0.505,3116.6666666666665
-0.445,-0.5,3119.4444444444443
-0.435,-0.485,3122.222222222222
-0.425,-0.49,3125.0
-0.42,-0.465,3127.777777777778
-0.4,-0.465,3130.5555555555557
-0.39,-0.455,3133.3333333333335
-0.395,-0.45,3136.1111111111113
-0.385,-0.45,3138.8888888888887
-0.385,-0.455,3141.6666666666665
-0.385,-0.47,3144.4444444444443
-0.39,-0.465,3147.222222222222
-0.39,-0.475,3150.0
-0.385,-0.49,3152.777777777778
-0.375,-0.5,3155.5555555555557
-0.365,-0.5,3158.3333333333335
-0.375,-0.495,3161.1111111111113
-0.385,-0.5,3163.8888888888887
-0.39,-0.505,3166.6666666666665
-0.405,-0.505,3169.4444444444443
-0.405,-0.51,3172.222222222222
-0.405,-0.515,3175.0
-0.415,-0.515,3177.777777777778
-0.42,-0.525,3180.5555555555557
-0.425,-0.525,3183.3333333333335
-0.425,-0.53,3186.1111111111113
-0.44,-0.52,3188.8888888888887
-0.445,-0.505,3191.6666666666665
-0.44,-0.515,3194.4444444444443
-0.45,-0.49,3197.222222222222
-0.435,-0.475,3200.0
-0.45,-0.475,3202.777777777778
-0.455,-0.47,3205.5555555555557
-0.47,-0.47,3208.3333333333335
-0.485,-0.485,3211.1111111111113
-0.5,-0.47,3213.8888888888887
-0.515,-0.48,3216.6666666666665
-0.525,-0.49,3219.4444444444443
-0.525,-0.475,3222.222222222222
-0.515,-0.475,3225.0
-0.505,-0.47,3227.777777777778
-0.505,-0.46,3230.5555555555557
-0.5,-0.46,3233.3333333333335
-0.48,-0.455,3236.1111111111113
-0.485,-0.46,3238.8888888888887
-0.49,-0.46,3241.6666666666665
-0.49,-0.465,3244.4444444444443
-0.495,-0.47,3247.222222222222
-0.5,-0.49,3250.0
-0.5,-0.49,3252.777777777778
-0.5,-0.475,3255.5555555555557
-0.495,-0.48,3258.3333333333335
-0.505,-0.485,3261.1111111111113
-0.51,-0.465,3263.8888888888887
-0.53,-0.455,3266.6666666666665
-0.535,-0.45,3269.4444444444443
-0.54,-0.455,3272.222222222222
-0.515,-0.45,3275.0
-0.46,-0.47,3277.777777777778
-0.38,-0.495,3280.5555555555557
-0.255,-0.545,3283.3333333333335
-0.095,-0.585,3286.1111111111113
0.09,-0.62,3288.8888888888887
0.295,-0.66,3291.6666666666665
0.51,-0.695,3294.4444444444443
0.685,-0.7,3297.222222222222
0.765,-0.675,3300.0
0.715,-0.655,3302.777777777778
0.53,-0.62,3305.5555555555557
0.27,-0.55,3308.3333333333335
-0.01,-0.51,3311.1111111111113
-0.265,-0.47,3313.8888888888887
-0.43,-0.435,3316.6666666666665
-0.505,-0.43,3319.4444444444443
-0.49,-0.435,3322.222222222222
-0.45,-0.455,3325.0
-0.395,-0.48,3327.777777777778
-0.365,-0.5,3330.5555555555557
-0.34,-0.51,3333.3333333333335
-0.34,-0.5,3336.1111111111113
-0.36,-0.5,3338.8888888888887
-0.37,-0.495,3341.6666666666665
-0.4,-0.485,3344.4444444444443
-0.425,-0.495,3347.222222222222
-0.445,-0.495,3350.0
-0.455,-0.485,3352.777777777778
-0.46,-0.485,3355.5555555555557
-0.46,-0.48,3358.3333333333335
-0.46,-0.475,3361.1111111111113
-0.46,-0.475,3363.8888888888887
-0.45,-0.46,3366.6666666666665
-0.455,-0.45,3369.4444444444443
-0.45,-0.45,3372.222222222222
-0.45,-0.46,3375.0
-0.465,-0.47,3377.777777777778
-0.465,-0.485,3380.5555555555557
-0.47,-0.485,3383.3333333333335
-0.475,-0.485,3386.1111111111113
-0.485,-0.47,3388.8888888888887
-0.475,-0.475,3391.6666666666665
-0.47,-0.47,3394.4444444444443
-0.46,-0.465,3397.222222222222
-0.455,-0.465,3400.0
-0.445,-0.46,3402.777777777778
-0.445,-0.47,3405.5555555555557
-0.45,-0.465,3408.3333333333335
-0.445,-0.48,3411.1111111111113
-0.455,-0.485,3413.8888888888887
-0.455,-0.485,3416.6666666666665
-0.455,-0.49,3419.4444444444443
-0.465,-0.49,3422.222222222222
-0.455,-0.49,3425.0
-0.455,-0.48,3427.777777777778
-0.445,-0.48,3430.5555555555557
-0.435,-0.475,3433.3333333333335
-0.435,-0.465,3436.1111111111113
-0.43,-0.465,3438.8888888888887
-0.43,-0.475,3441.6666666666665
-0.425,-0.485,3444.4444444444443
-0.445,-0.49,3447.222222222222
-0.44,-0.5,3450.0
-0.44,-0.505,3452.777777777778
-0.45,-0.495,3455.5555555555557
-0.44,-0.485,3458.3333333333335
-0.445,-0.495,3461.1111111111113
-0.435,-0.48,3463.8888888888887
-0.435,-0.475,3466.6666666666665
-0.425,-0.48,3469.4444444444443
-0.42,-0.475,3472.222222222222
-0.42,-0.485,3475.0
-0.425,-0.505,3477.777777777778
-0.43,-0.505,3480.5555555555557
-0.425,-0.515,3483.3333333333335
-0.435,-0.51,3486.1111111111113
-0.435,-0.505,3488.8888888888887
-0.42,-0.525,3491.6666666666665
-0.425,-0.495,3494.4444444444443
-0.41,-0.495,3497.222222222222
-0.41,-0.495,3500.0
-0.4,-0.5,3502.777777777778
-0.4,-0.495,3505.5555555555557
-0.39,-0.505,3508.3333333333335
-0.395,-0.515,3511.1111111111113
-0.405,-0.52,3513.8888888888887
-0.41,-0.53,3516.6666666666665
-0.41,-0.54,3519.4444444444443
-0.42,-0.525,3522.222222222222
-0.415,-0.54,3525.0
-0.405,-0.525,3527.777777777778
-0.39,-0.52,3530.5555555555557
-0.385,-0.51,3533.3333333333335
-0.39,-0.51,3536.1111111111113
-0.385,-0.51,3538.8888888888887
-0.38,-0.525,3541.6666666666665
-0.385,-0.525,3544.4444444444443
-0.39,-0.535,3547.222222222222
-0.395,-0.54,3550.0
-0.405,-0.545,3552.777777777778
-0.4,-0.54,3555.5555555555557
-0.39,-0.545,3558.3333333333335
-0.39,-0.54,3561.1111111111113
-0.38,-0.53,3563.8888888888887
-0.36,-0.535,3566.6666666666665
-0.35,-0.525,3569.4444444444443
-0.335,-0.53,3572.222222222222
-0.33,-0.55,3575.0
-0.335,-0.555,3577.777777777778
-0.33,-0.565,3580.5555555555557
-0.34,-0.58,3583.3333333333335
-0.33,-0.575,3586.1111111111113
-0.325,-0.57,3588.8888888888887
-0.32,-0.575,3591.6666666666665
-0.31,-0.56,3594.4444444444443
-0.3,-0.565,3597.222222222222
-0.295,-0.56,3600.0
-0.285,-0.555,3602.777777777778
-0.285,-0.565,3605.5555555555557
-0.29,-0.555,3608.3333333333335
-0.3,-0.555,3611.1111111111113
-0.31,-0.565,3613.8888888888887
-0.325,-0.56,3616.6666666666665
-0.345,-0.565,3619.4444444444443
-0.345,-0.55,3622.222222222222
-0.345,-0.55,3625.0
-0.355,-0.55,3627.777777777778
-0.34,-0.52,3630.5555555555557
-0.355,-0.525,3633.3333333333335
-0.355,-0.515,3636.1111111111113
-0.365,-0.51,3638.8888888888887
-0.36,-0.515,3641.6666666666665
-0.375,-0.52,3644.4444444444443
-0.375,-0.525,3647.222222222222
-0.385,-0.53,3650.0
-0.405,-0.525,3652.777777777778
-0.41,-0.52,3655.5555555555557
-0.415,-0.52,3658.3333333333335
-0.405,-0.5,3661.1111111111113
-0.405,-0.495,3663.8888888888887
-0.4,-0.485,3666.6666666666665
-0.39,-0.485,3669.4444444444443
-0.39,-0.48,3672.222222222222
-0.395,-0.485,3675.0
-0.4,-0.495,3677.777777777778
-0.405,-0.5,3680.5555555555557
-0.425,-0.51,3683.3333333333335
-0.42,-0.495,3686.1111111111113
-0.425,-0.5,3688.8888888888887
-0.43,-0.495,3691.6666666666665
-0.425,-0.495,3694.4444444444443
-0.42,-0.49,3697.222222222222
-0.41,-0.475,3700.0
-0.415,-0.47,3702.777777777778
-0.42,-0.485,3705.5555555555557
-0.41,-0.475,3708.3333333333335
-0.41,-0.49,3711.1111111111113
-0.415,-0.495,3713.8888888888887
-0.425,-0.495,3716.6666666666665
-0.435,-0.5,3719.4444444444443
-0.435,-0.5,3722.222222222222
-0.44,-0.495,3725.0
-0.445,-0.485,3727.777777777778
-0.43,-0.475,3730.5555555555557
-0.425,-0.47,3733.3333333333335
-0.42,-0.47,3736.1111111111113
-0.42,-0.47,3738.8888888888887
-0.425,-0.475,3741.6666666666665
-0.42,-0.485,3744.4444444444443
-0.435,-0.485,3747.222222222222
-0.44,-0.495,3750.0
-0.445,-0.495,3752.777777777778
-0.455,-0.495,3755.5555555555557
-0.455,-0.495,3758.3333333333335
-0.45,-0.475,3761.1111111111113
-0.435,-0.475,3763.8888888888887
-0.45,-0.46,3766.6666666666665
-0.445,-0.47,3769.4444444444443
-0.44,-0.465,3772.222222222222
-0.44,-0.465,3775.0
-0.445,-0.475,3777.777777777778
-0.445,-0.495,3780.5555555555557
-0.455,-0.48,3783.3333333333335
-0.45,-0.5,3786.1111111111113
-0.455,-0.495,3788.8888888888887
-0.465,-0.48,3791.6666666666665
-0.45,-0.47,3794.4444444444443
-0.445,-0.46,3797.222222222222
-0.42,-0.465,3800.0
-0.405,-0.47,3802.777777777778
-0.4,-0.455,3805.5555555555557
-0.4,-0.46,3808.3333333333335
-0.39,-0.47,3811.1111111111113
-0.39,-0.48,3813.8888888888887
-0.395,-0.47,3816.6666666666665
-0.39,-0.47,3819.4444444444443
-0.39,-0.475,3822.222222222222
-0.395,-0.47,3825.0
-0.39,-0.455,3827.777777777778
-0.37,-0.455,3830.5555555555557
-0.365,-0.455,3833.3333333333335
-0.345,-0.46,3836.1111111111113
-0.335,-0.47,3838.8888888888887
-0.33,-0.475,3841.6666666666665
-0.345,-0.495,3844.4444444444443
-0.355,-0.505,3847.222222222222
-0.375,-0.52,3850.0
-0.4,-0.52,3852.777777777778
-0.41,-0.535,3855.5555555555557
-0.41,-0.51,3858.3333333333335
-0.4,-0.515,3861.1111111111113
-0.405,-0.5,3863.8888888888887
-0.4,-0.495,3866.6666666666665
-0.4,-0.49,3869.4444444444443
-0.405,-0.495,3872.222222222222
-0.405,-0.495,3875.0
-0.41,-0.5,3877.777777777778
-0.425,-0.5,3880.5555555555557
-0.44,-0.495,3883.3333333333335
-0.46,-0.495,3886.1111111111113
-0.475,-0.48,3888.8888888888887
-0.485,-0.465,3891.6666666666665
-0.49,-0.465,3894.4444444444443
-0.485,-0.46,3897.222222222222
-0.49,-0.445,3900.0
-0.47,-0.45,3902.777777777778
-0.48,-0.465,3905.5555555555557
-0.48,-0.46,3908.3333333333335
-0.48,-0.475,3911.1111111111113
-0.49,-0.47,3913.8888888888887
-0.495,-0.475,3916.6666666666665
-0.495,-0.485,3919.4444444444443
-0.5,-0.48,3922.222222222222
-0.5,-0.475,3925.0
-0.49,-0.475,3927.777777777778
-0.495,-0.47,3930.5555555555557
-0.485,-0.455,3933.3333333333335
-0.475,-0.46,3936.1111111111113
-0.485,-0.46,3938.8888888888887
-0.49,-0.46,3941.6666666666665
-0.515,-0.465,3944.4444444444443
-0.53,-0.465,3947.222222222222
-0.555,-0.475,3950.0
-0.515,-0.495,3952.777777777778
-0.435,-0.505,3955.5555555555557
-0.315,-0.53,3958.3333333333335
-0.14,-0.565,3961.1111111111113
0.075,-0.62,3963.8888888888887
0.31,-0.67,3966.6666666666665
0.55,-0.695,3969.4444444444443
0.71,-0.715,3972.222222222222
0.745,-0.69,3975.0
0.635,-0.655,3977.777777777778
0.385,-0.61,3980.5555555555557
0.09,-0.545,3983.3333333333335
-0.19,-0.49,3986.1111111111113
-0.395,-0.425,3988.8888888888887
-0.495,-0.415,3991.6666666666665
-0.495,-0.42,3994.4444444444443
-0.44,-0.445,3997.222222222222
-0.37,-0.46,4000.0
-0.325,-0.5,4002.777777777778
-0.305,-0.5,4005.5555555555557
-0.31,-0.51,4008.3333333333335
-0.33,-0.505,4011.1111111111113
-0.365,-0.495,4013.8888888888887
-0.405,-0.495,4016.6666666666665
-0.425,-0.5,4019.4444444444443
-0.45,-0.49,4022.222222222222
-0.45,-0.485,4025.0
-0.445,-0.48,4027.777777777778
-0.445,-0.465,4030.5555555555557
-0.43,-0.46,4033.3333333333335
-0.435,-0.455,4036.1111111111113
-0.43,-0.46,4038.8888888888887
-0.435,-0.465,4041.6666666666665
-0.445,-0.475,4044.4444444444443
-0.465,-0.48,4047.222222222222
-0.455,-0.475,4050.0
-0.46,-0.49,4052.777777777778
-0.465,-0.475,4055.5555555555557
-0.465,-0.485,4058.3333333333335
-0.465,-0.47,4061.1111111111113
-0.455,-0.465,4063.8888888888887
-0.44,-0.46,4066.6666666666665
-0.44,-0.46,4069.4444444444443
-0.44,-0.465,4072.222222222222
-0.44,-0.46,4075.0
-0.445,-0.465,4077.777777777778
-0.45,-0.475,4080.5555555555557
-0.455,-0.485,4083.3333333333335
-0.445,-0.475,4086.1111111111113
-0.445,-0.48,4088.8888888888887
-0.455,-0.475,4091.6666666666665
-0.44,-0.465,4094.4444444444443
-0.43,-0.47,4097.222222222223
-0.425,-0.455,4100.0
-0.41,-0.46,4102.777777777777
-0.405,-0.465,4105.555555555556
-0.4,-0.475,4108.333333333333
-0.415,-0.47,4111.111111111111
-0.415,-0.48,4113.888888888889
-0.42,-0.485,4116.666666666667
-0.425,-0.49,4119.444444444444
-0.425,-0.495,4122.222222222223
-0.425,-0.49,4125.0
-0.42,-0.485,4127.777777777777
-0.415,-0.475,4130.555555555556
-0.4,-0.475,4133.333333333333
-0.4,-0.475,4136.111111111111
-0.41,-0.475,4138.888888888889
-0.4,-0.475,4141.666666666667
-0.405,-0.485,4144.444444444444
-0.405,-0.495,4147.222222222223
-0.41,-0.5,4150.0
-0.41,-0.51,4152.777777777777
-0.4,-0.505,4155.555555555556
-0.415,-0.51,4158.333333333333
-0.4,-0.49,4161.111111111111
-0.385,-0.495,4163.888888888889
-0.38,-0.495,4166.666666666667
-0.365,-0.48,4169.444444444444
-0.37,-0.485,4172.222222222223
-0.355,-0.495,4175.0
-0.36,-0.505,4177.777777777777
-0.37,-0.52,4180.555555555556
-0.38,-0.52,4183.333333333333
-0.385,-0.525,4186.111111111111
-0.38,-0.53,4188.888888888889
-0.385,-0.515,4191.666666666667
-0.39,-0.505,4194.444444444444
-0.375,-0.5,4197.222222222223
-0.36,-0.5,4200.0
-0.355,-0.5,4202.777777777777
-0.355,-0.51,4205.555555555556
-0.335,-0.505,4208.333333333333
-0.345,-0.525,4211.111111111111
-0.355,-0.53,4213.888888888889
-0.365,-0.54,4216.666666666667
-0.36,-0.55,4219.444444444444
-0.36,-0.54,4222.222222222223
-0.36,-0.545,4225.0
-0.355,-0.53,4227.777777777777
-0.335,-0.53,4230.555555555556
-0.325,-0.535,4233.333333333333
-0.31,-0.53,4236.111111111111
-0.295,-0.53,4238.888888888889
-0.3,-0.535,4241.666666666667
-0.29,-0.54,4244.444444444444
-0.285,-0.56,4247.222222222223
-0.275,-0.555,4250.0
-0.275,-0.565,4252.777777777777
-0.275,-0.56,4255.555555555556
-0.28,-0.56,4258.333333333333
-0.275,-0.555,4261.111111111111
-0.275,-0.545,4263.888888888889
-0.27,-0.53,4266.666666666667
-0.26,-0.53,4269.444444444444
-0.27,-0.545,4272.222222222223
-0.27,-0.535,4275.0
-0.285,-0.545,4277.777777777777
-0.3,-0.545,4280.555555555556
-0.32,-0.555,4283.333333333333
-0.34,-0.545,4286.111111111111
-0.35,-0.545,4288.888888888889
-0.355,-0.535,4291.666666666667
-0.35,-0.52,4294.444444444444
-0.345,-0.51,4297.222222222223
-0.335,-0.505,4300.0
-0.34,-0.49,4302.777777777777
-0.34,-0.5,4305.555555555556
-0.34,-0.495,4308.333333333333
-0.355,-0.5,4311.111111111111
-0.37,-0.51,4313.888888888889
-0.385,-0.505,4316.666666666667
-0.39,-0.505,4319.444444444444
-0.395,-0.505,4322.222222222223
-0.41,-0.49,4325.0
-0.4,-0.49,4327.777777777777
-0.395,-0.475,4330.555555555556
-0.39,-0.47,4333.333333333333
-0.39,-0.47,4336.111111111111
-0.41,-0.465,4338.888888888889
-0.395,-0.465,4341.666666666667
-0.4,-0.475,4344.444444444444
-0.405,-0.475,4347.222222222223
-0.415,-0.48,4350.0
-0.425,-0.495,4352.777777777777
-0.425,-0.485,4355.555555555556
-0.44,-0.48,4358.333333333333
-0.445,-0.47,4361.111111111111
-0.43,-0.46,4363.888888888889
-0.43,-0.465,4366.666666666667
-0.425,-0.46,4369.444444444444
-0.42,-0.46,4372.222222222223
-0.415,-0.47,4375.0
-0.42,-0.475,4377.777777777777
-0.42,-0.475,4380.555555555556
-0.43,-0.485,4383.333333333333
-0.435,-0.485,4386.111111111111
-0.435,-0.48,4388.888888888889
-0.44,-0.48,4391.666666666667
-0.445,-0.475,4394.444444444444
-0.435,-0.47,4397.222222222223
-0.425,-0.46,4400.0
-0.43,-0.455,4402.777777777777
-0.43,-0.46,4405.555555555556
-0.43,-0.455,4408.333333333333
-0.43,-0.46,4411.111111111111
-0.435,-0.475,4413.888888888889
-0.445,-0.475,4416.666666666667
-0.445,-0.485,4419.444444444444
-0.455,-0.475,4422.222222222223
-0.45,-0.475,4425.0
-0.445,-0.47,4427.777777777777
-0.445,-0.465,4430.555555555556
-0.43,-0.46,4433.333333333333
-0.43,-0.445,4436.111111111111
-0.43,-0.46,4438.888888888889
-0.44,-0.47,4441.666666666667
-0.44,-0.47,4444.444444444444
-0.445,-0.47,4447.222222222223
-0.45,-0.47,4450.0
-0.45,-0.47,4452.777777777777
-0.445,-0.465,4455.555555555556
-0.445,-0.465,4458.333333333333
-0.425,-0.455,4461.111111111111
-0.42,-0.455,4463.888888888889
-0.41,-0.45,4466.666666666667
-0.4,-0.44,4469.444444444444
-0.39,-0.43,4472.222222222223
-0.39,-0.435,4475.0
-0.39,-0.445,4477.777777777777
-0.385,-0.455,4480.555555555556
-0.395,-0.46,4483.333333333333
-0.4,-0.465,4486.111111111111
-0.4,-0.465,4488.888888888889
-0.385,-0.45,4491.666666666667
-0.37,-0.45,4494.444444444444
-0.345,-0.45,4497.222222222223
-0.345,-0.45,4500.0
-0.34,-0.46,4502.777777777777
-0.345,-0.465,4505.555555555556
-0.355,-0.48,4508.333333333333
-0.365,-0.5,4511.111111111111
-0.39,-0.495,4513.888888888889
-0.4,-0.505,4516.666666666667
-0.41,-0.51,4519.444444444444
-0.41,-0.51,4522.222222222223
-0.41,-0.5,4525.0
-0.4,-0.495,4527.777777777777
-0.4,-0.475,4530.555555555556
-0.395,-0.47,4533.333333333333
-0.395,-0.465,4536.111111111111
-0.405,-0.475,4538.888888888889
-0.405,-0.47,4541.666666666667
-0.42,-0.47,4544.444444444444
-0.44,-0.485,4547.222222222223
-0.455,-0.475,4550.0
-0.465,-0.475,4552.777777777777
-0.485,-0.47,4555.555555555556
-0.5,-0.475,4558.333333333333
-0.485,-0.455,4561.111111111111
-0.485,-0.46,4563.888888888889
-0.47,-0.445,4566.666666666667
-0.47,-0.445,4569.444444444444
-0.465,-0.46,4572.222222222223
-0.465,-0.44,4575.0
-0.47,-0.45,4577.777777777777
-0.48,-0.46,4580.555555555556
-0.48,-0.465,4583.333333333333
-0.48,-0.47,4586.111111111111
-0.485,-0.46,4588.888888888889
-0.495,-0.46,4591.666666666667
-0.49,-0.455,4594.444444444444
-0.48,-0.46,4597.222222222223
-0.47,-0.45,4600.0
-0.465,-0.43,4602.777777777777
-0.47,-0.445,4605.555555555556
-0.485,-0.44,4608.333333333333
-0.505,-0.45,4611.111111111111
-0.53,-0.45,4613.888888888889
-0.52,-0.465,4616.666666666667
-0.475,-0.475,4619.444444444444
-0.38,-0.485,4622.222222222223
-0.25,-0.51,4625.0
-0.075,-0.54,4627.777777777777
0.14,-0.58,4630.555555555556
0.365,-0.62,4633.333333333333
0.59,-0.655,4636.111111111111
0.77,-0.675,4638.888888888889
0.855,-0.67,4641.666666666667
0.795,-0.645,4644.444444444444
0.615,-0.6,4647.222222222223
0.335,-0.545,4650.0
0.045,-0.485,4652.777777777777
-0.205,-0.415,4655.555555555556
-0.38,-0.38,4658.333333333333
-0.45,-0.36,4661.111111111111
-0.455,-0.365,4663.888888888889
-0.425,-0.375,4666.666666666667
-0.37,-0.41,4669.444444444444
-0.345,-0.44,4672.222222222223
-0.345,-0.46,4675.0
-0.36,-0.485,4677.777777777777
-0.36,-0.505,4680.555555555556
-0.385,-0.485,4683.333333333333
-0.4,-0.49,4686.111111111111
-0.43,-0.49,4688.888888888889
-0.44,-0.465,4691.666666666667
-0.445,-0.45,4694.444444444444
-0.445,-0.455,4697.222222222223
-0.44,-0.45,4700.0
-0.435,-0.435,4702.777777777777
-0.435,-0.435,4705.555555555556
-0.445,-0.435,4708.333333333333
-0.435,-0.45,4711.111111111111
-0.46,-0.455,4713.888888888889
-0.455,-0.465,4716.666666666667
-0.46,-0.47,4719.444444444444
-0.465,-0.465,4722.222222222223
-0.46,-0.46,4725.0
-0.45,-0.445,4727.777777777777
-0.435,-0.44,4730.555555555556
-0.43,-0.43,4733.333333333333
-0.425,-0.425,4736.111111111111
-0.43,-0.435,4738.888888888889
-0.435,-0.445,4741.666666666667
-0.435,-0.45,4744.444444444444
-0.44,-0.46,4747.222222222223
-0.45,-0.465,4750.0
-0.45,-0.475,4752.777777777777
-0.455,-0.46,4755.555555555556
-0.46,-0.455,4758.333333333333
-0.455,-0.445,4761.111111111111
-0.455,-0.445,4763.888888888889
-0.445,-0.43,4766.666666666667
-0.435,-0.435,4769.444444444444
-0.43,-0.44,4772.222222222223
-0.425,-0.435,4775.0
-0.425,-0.46,4777.777777777777
-0.42,-0.46,4780.555555555556
-0.435,-0.475,4783.333333333333
-0.43,-0.475,4786.111111111111
-0.43,-0.465,4788.888888888889
-0.435,-0.465,4791.666666666667
-0.43,-0.465,4794.444444444444
-0.425,-0.46,4797.222222222223
-0.42,-0.445,4800.0
-0.4,-0.45,4802.777777777777
-0.405,-0.46,4805.555555555556
-0.39,-0.465,4808.333333333333
-0.4,-0.465,4811.111111111111
-0.4,-0.48,4813.888888888889
-0.405,-0.485,4816.666666666667
-0.415,-0.48,4819.444444444444
-0.42,-0.485,4822.222222222223
-0.43,-0.485,4825.0
-0.42,-0.48,4827.777777777777
-0.425,-0.48,4830.555555555556
-0.415,-0.48,4833.333333333333
-0.41,-0.47,4836.111111111111
-0.41,-0.475,4838.888888888889
-0.4,-0.48,4841.666666666667
-0.4,-0.48,4844.444444444444
-0.41,-0.49,4847.222222222223
-0.42,-0.495,4850.0
-0.425,-0.5,4852.777777777777
-0.43,-0.505,4855.555555555556
-0.445,-0.5,4858.333333333333
-0.435,-0.5,4861.111111111111
-0.425,-0.495,4863.888888888889
-0.42,-0.49,4866.666666666667
-0.405,-0.49,4869.444444444444
-0.395,-0.49,4872.222222222223
-0.38,-0.5,4875.0
-0.385,-0.51,4877.777777777777
-0.395,-0.525,4880.555555555556
-0.405,-0.53,4883.333333333333
-0.405,-0.535,4886.111111111111
-0.41,-0.53,4888.888888888889
-0.4,-0.52,4891.666666666667
-0.39,-0.53,4894.444444444444
-0.375,-0.52,4897.222222222223
-0.36,-0.52,4900.0
-0.335,-0.51,4902.777777777777
-0.335,-0.525,4905.555555555556
-0.315,-0.52,4908.333333333333
-0.31,-0.53,4911.111111111111
-0.33,-0.535,4913.888888888889
-0.325,-0.545,4916.666666666667
-0.34,-0.54,4919.444444444444
-0.335,-0.545,4922.222222222223
-0.34,-0.54,4925.0
-0.33,-0.53,4927.777777777777
-0.335,-0.525,4930.555555555556
-0.32,-0.51,4933.333333333333
-0.325,-0.515,4936.111111111111
-0.33,-0.51,4938.888888888889
-0.33,-0.505,4941.666666666667
-0.335,-0.515,4944.444444444444
-0.34,-0.51,4947.222222222223
-0.34,-0.52,4950.0
-0.36,-0.51,4952.777777777777
-0.375,-0.51,4955.555555555556
-0.385,-0.505,4958.333333333333
-0.375,-0.495,4961.111111111111
-0.38,-0.48,4963.888888888889
-0.385,-0.475,4966.666666666667
-0.385,-0.455,4969.444444444444
-0.385,-0.465,4972.222222222223
-0.38,-0.46,4975.0
-0.38,-0.475,4977.777777777777
-0.395,-0.47,4980.555555555556
-0.4,-0.47,4983.333333333333
-0.42,-0.475,4986.111111111111
-0.435,-0.485,4988.888888888889
-0.44,-0.47,4991.666666666667
-0.435,-0.455,4994.444444444444
-0.415,-0.45,4997.222222222223
-0.405,-0.435,5000.0
-0.395,-0.44,5002.777777777777
-0.395,-0.44,5005.555555555556
-0.39,-0.44,5008.333333333333
-0.4,-0.45,5011.111111111111
-0.415,-0.445,5013.888888888889
-0.42,-0.46,5016.666666666667
-0.43,-0.465,5019.444444444444
-0.425,-0.46,5022.222222222223
-0.43,-0.45,5025.0
-0.425,-0.455,5027.777777777777
-0.435,-0.435,5030.555555555556
-0.425,-0.44,5033.333333333333
-0.42,-0.425,5036.111111111111
-0.43,-0.43,5038.888888888889
-0.425,-0.43,5041.666666666667
-0.435,-0.44,5044.444444444444
-0.44,-0.455,5047.222222222223
-0.46,-0.46,5050.0
-0.46,-0.455,5052.777777777777
-0.465,-0.45,5055.555555555556
-0.46,-0.455,5058.333333333333
-0.45,-0.435,5061.111111111111
-0.445,-0.43,5063.888888888889
-0.44,-0.425,5066.666666666667
-0.435,-0.415,5069.444444444444
-0.425,-0.42,5072.222222222223
-0.425,-0.43,5075.0
-0.43,-0.43,5077.777777777777
-0.435,-0.445,5080.555555555556
-0.43,-0.45,5083.333333333333
-0.435,-0.45,5086.111111111111
-0.44,-0.445,5088.888888888889
-0.45,-0.435,5091.666666666667
-0.46,-0.44,5094.444444444444
-0.46,-0.43,5097.222222222223
-0.45,-0.43,5100.0
-0.445,-0.43,5102.777777777777
-0.445,-0.425,5105.555555555556
-0.44,-0.43,5108.333333333333
-0.44,-0.435,5111.111111111111
-0.44,-0.44,5113.888888888889
-0.43,-0.44,5116.666666666667
-0.425,-0.45,5119.444444444444
-0.41,-0.44,5122.222222222223
-0.415,-0.43,5125.0
-0.405,-0.405,5127.777777777777
-0.395,-0.4,5130.555555555556
-0.385,-0.405,5133.333333333333
-0.385,-0.395,5136.111111111111
-0.375,-0.405,5138.888888888889
-0.365,-0.41,5141.666666666667
-0.35,-0.42,5144.444444444444
-0.35,-0.43,5147.222222222223
-0.35,-0.445,5150.0
-0.365,-0.46,5152.777777777777
-0.375,-0.47,5155.555555555556
-0.39,-0.465,5158.333333333333
-0.405,-0.465,5161.111111111111
-0.405,-0.46,5163.888888888889
-0.405,-0.45,5166.666666666667
-0.395,-0.445,5169.444444444444
-0.395,-0.45,5172.222222222223
-0.395,-0.44,5175.0
-0.4,-0.45,5177.777777777777
-0.415,-0.455,5180.555555555556
-0.435,-0.46,5183.333333333333
-0.44,-0.465,5186.111111111111
-0.445,-0.455,5188.888888888889
-0.46,-0.44,5191.666666666667
-0.465,-0.44,5194.444444444444
-0.46,-0.43,5197.222222222223
-0.47,-0.425,5200.0
-0.475,-0.415,5202.777777777777
-0.48,-0.41,5205.555555555556
-0.485,-0.42,5208.333333333333
-0.485,-0.43,5211.111111111111
-0.49,-0.43,5213.888888888889
-0.49,-0.44,5216.666666666667
-0.49,-0.45,5219.444444444444
-0.495,-0.425,5222.222222222223
-0.495,-0.435,5225.0
-0.49,-0.44,5227.777777777777
-0.48,-0.42,5230.555555555556
-0.47,-0.425,5233.333333333333
-0.475,-0.42,5236.111111111111
-0.465,-0.42,5238.888888888889
-0.465,-0.415,5241.666666666667
-0.465,-0.435,5244.444444444444
-0.475,-0.435,5247.222222222223
-0.495,-0.44,5250.0
-0.51,-0.45,5252.777777777777
-0.53,-0.44,5255.555555555556
-0.535,-0.445,5258.333333333333
-0.51,-0.44,5261.111111111111
-0.45,-0.435,5263.888888888889
-0.34,-0.455,5266.666666666667
-0.205,-0.475,5269.444444444444
-0.02,-0.515,5272.222222222223
0.195,-0.565,5275.0
0.42,-0.59,5277.777777777777
0.62,-0.62,5280.555555555556
0.755,-0.62,5283.333333333333
0.79,-0.63,5286.111111111111
0.67,-0.57,5288.888888888889
0.435,-0.52,5291.666666666667
0.15,-0.455,5294.444444444444
-0.135,-0.41,5297.222222222223
-0.355,-0.37,5300.0
-0.485,-0.345,5302.777777777777
-0.515,-0.34,5305.555555555556
-0.485,-0.36,5308.333333333333
-0.45,-0.39,5311.111111111111
-0.405,-0.43,5313.888888888889
-0.385,-0.45,5316.666666666667
-0.395,-0.485,5319.444444444444
-0.405,-0.48,5322.222222222223
-0.41,-0.48,5325.0
-0.415,-0.46,5327.777777777777
-0.415,-0.45,5330.555555555556
-0.425,-0.445,5333.333333333333
-0.43,-0.43,5336.111111111111
-0.435,-0.43,5338.888888888889
-0.435,-0.445,5341.666666666667
-0.45,-0.45,5344.444444444444
-0.465,-0.46,5347.222222222223
-0.47,-0.47,5350.0
-0.485,-0.475,5352.777777777777
-0.47,-0.46,5355.555555555556
-0.475,-0.455,5358.333333333333
-0.47,-0.45,5361.111111111111
-0.465,-0.45,5363.888888888889
-0.46,-0.445,5366.666666666667
-0.455,-0.435,5369.444444444444
-0.435,-0.435,5372.222222222223
-0.445,-0.445,5375.0
-0.44,-0.445,5377.777777777777
-0.44,-0.45,5380.555555555556
-0.455,-0.455,5383.333333333333
-0.455,-0.455,5386.111111111111
-0.45,-0.465,5388.888888888889
-0.45,-0.465,5391.666666666667
-0.445,-0.455,5394.444444444444
-0.445,-0.445,5397.222222222223
-0.44,-0.435,5400.0
-0.435,-0.435,5402.777777777777
-0.435,-0.435,5405.555555555556
-0.425,-0.44,5408.333333333333
-0.425,-0.455,5411.111111111111
-0.435,-0.465,5413.888888888889
-0.44,-0.47,5416.666666666667
-0.44,-0.465,5419.444444444444
-0.445,-0.47,5422.222222222223
-0.45,-0.465,5425.0
-0.445,-0.45,5427.777777777777
-0.435,-0.46,5430.555555555556
-0.43,-0.45,5433.333333333333
-0.42,-0.44,5436.111111111111
-0.415,-0.45,5438.888888888889
-0.41,-0.455,5441.666666666667
-0.405,-0.465,5444.444444444444
-0.41,-0.475,5447.222222222223
-0.415,-0.485,5450.0
-0.42,-0.49,5452.777777777777
-0.425,-0.49,5455.555555555556
-0.42,-0.48,5458.333333333333
-0.41,-0.47,5461.111111111111
-0.41,-0.465,5463.888888888889
-0.4,-0.46,5466.666666666667
-0.395,-0.455,5469.444444444444
-0.39,-0.46,5472.222222222223
-0.39,-0.475,5475.0
-0.39,-0.48,5477.777777777777
-0.395,-0.485,5480.555555555556
-0.405,-0.495,5483.333333333333
-0.415,-0.505,5486.111111111111
-0.42,-0.5,5488.888888888889
-0.42,-0.495,5491.666666666667
-0.42,-0.49,5494.444444444444
-0.4,-0.49,5497.222222222223
-0.4,-0.495,5500.0
-0.395,-0.48,5502.777777777777
-0.39,-0.485,5505.555555555556
-0.39,-0.495,5508.333333333333
-0.395,-0.5,5511.111111111111
-0.395,-0.505,5513.888888888889
-0.4,-0.52,5516.666666666667
-0.41,-0.525,5519.444444444444
-0.405,-0.525,5522.222222222223
-0.405,-0.525,5525.0
-0.395,-0.515,5527.777777777777
-0.39,-0.515,5530.555555555556
-0.38,-0.505,5533.333333333333
-0.37,-0.5,5536.111111111111
-0.365,-0.505,5538.888888888889
-0.365,-0.51,5541.666666666667
-0.36,-0.52,5544.444444444444
-0.345,-0.525,5547.222222222223
-0.35,-0.535,5550.0
-0.35,-0.545,5552.777777777777
-0.355,-0.535,5555.555555555556
-0.345,-0.54,5558.333333333333
-0.33,-0.53,5561.111111111111
-0.32,-0.535,5563.888888888889
-0.315,-0.535,5566.666666666667
-0.295,-0.525,5569.444444444444
-0.295,-0.53,5572.222222222223
-0.29,-0.525,5575.0
-0.285,-0.53,5577.777777777777
-0.29,-0.545,5580.555555555556
-0.3,-0.545,5583.333333333333
-0.31,-0.545,5586.111111111111
-0.31,-0.54,5588.888888888889
-0.325,-0.53,5591.666666666667
-0.315,-0.525,5594.444444444444
-0.325,-0.52,5597.222222222223
-0.32,-0.5,5600.0
-0.335,-0.495,5602.777777777777
-0.33,-0.495,5605.555555555556
-0.325,-0.49,5608.333333333333
-0.33,-0.5,5611.111111111111
-0.34,-0.505,5613.888888888889
-0.355,-0.515,5616.666666666667
-0.36,-0.505,5619.444444444444
-0.37,-0.5,5622.222222222223
-0.375,-0.495,5625.0
-0.375,-0.495,5627.777777777777
-0.37,-0.475,5630.555555555556
-0.365,-0.475,5633.333333333333
-0.365,-0.465,5636.111111111111
-0.355,-0.46,5638.888888888889
-0.36,-0.46,5641.666666666667
-0.365,-0.465,5644.444444444444
-0.38,-0.48,5647.222222222223
-0.365,-0.48,5650.0
-0.385,-0.48,5652.777777777777
-0.39,-0.47,5655.555555555556
-0.395,-0.465,5658.333333333333
-0.39,-0.465,5661.111111111111
-0.39,-0.455,5663.888888888889
-0.38,-0.455,5666.666666666667
-0.365,-0.45,5669.444444444444
-0.36,-0.45,5672.222222222223
-0.365,-0.445,5675.0
-0.365,-0.455,5677.777777777777
-0.37,-0.46,5680.555555555556
-0.37,-0.465,5683.333333333333
-0.385,-0.47,5686.111111111111
-0.39,-0.475,5688.888888888889
-0.39,-0.47,5691.666666666667
-0.385,-0.46,5694.444444444444
-0.385,-0.46,5697.222222222223
-0.38,-0.445,5700.0
-0.375,-0.45,5702.777777777777
-0.37,-0.44,5705.555555555556
-0.365,-0.45,5708.333333333333
-0.37,-0.45,5711.111111111111
-0.375,-0.465,5713.888888888889
-0.38,-0.46,5716.666666666667
-0.39,-0.455,5719.444444444444
-0.39,-0.465,5722.222222222223
-0.4,-0.465,5725.0
-0.395,-0.455,5727.777777777777
-0.395,-0.445,5730.555555555556
-0.38,-0.44,5733.333333333333
-0.38,-0.435,5736.111111111111
-0.37,-0.43,5738.888888888889
-0.375,-0.445,5741.666666666667
-0.38,-0.45,5744.444444444444
-0.385,-0.45,5747.222222222223
-0.395,-0.475,5750.0
-0.405,-0.47,5752.777777777777
-0.41,-0.465,5755.555555555556
-0.405,-0.47,5758.333333333333
-0.405,-0.46,5761.111111111111
-0.4,-0.445,5763.888888888889
-0.39,-0.44,5766.666666666667
-0.38,-0.44,5769.444444444444
-0.375,-0.44,5772.222222222223
-0.38,-0.44,5775.0
-0.365,-0.455,5777.777777777777
-0.36,-0.46,5780.555555555556
-0.365,-0.455,5783.333333333333
-0.36,-0.445,5786.111111111111
-0.345,-0.445,5788.888888888889
-0.355,-0.455,5791.666666666667
-0.345,-0.44,5794.444444444444
-0.335,-0.44,5797.222222222223
-0.325,-0.415,5800.0
-0.32,-0.415,5802.777777777777
-0.315,-0.415,5805.555555555556
-0.31,-0.415,5808.333333333333
-0.295,-0.435,5811.111111111111
-0.3,-0.45,5813.888888888889
-0.29,-0.455,5816.666666666667
-0.29,-0.48,5819.444444444444
-0.31,-0.485,5822.222222222223
-0.32,-0.49,5825.0
-0.33,-0.48,5827.777777777777
-0.325,-0.475,5830.555555555556
-0.345,-0.47,5833.333333333333
-0.335,-0.47,5836.111111111111
-0.325,-0.475,5838.888888888889
-0.33,-0.48,5841.666666666667
-0.34,-0.47,5844.444444444444
-0.355,-0.485,5847.222222222223
-0.365,-0.485,5850.0
-0.375,-0.485,5852.777777777777
-0.375,-0.485,5855.555555555556
-0.385,-0.48,5858.333333333333
-0.39,-0.465,5861.111111111111
-0.4,-0.46,5863.888888888889
-0.4,-0.445,5866.666666666667
-0.405,-0.435,5869.444444444444
-0.415,-0.435,5872.222222222223
-0.405,-0.44,5875.0
-0.415,-0.44,5877.777777777777
-0.42,-0.445,5880.555555555556
-0.43,-0.45,5883.333333333333
-0.43,-0.47,5886.111111111111
-0.425,-0.455,5888.888888888889
-0.43,-0.45,5891.666666666667
-0.425,-0.445,5894.444444444444
-0.415,-0.44,5897.222222222223
-0.41,-0.43,5900.0
-0.405,-0.43,5902.777777777777
-0.4,-0.43,5905.555555555556
-0.405,-0.43,5908.333333333333
-0.41,-0.44,5911.111111111111
-0.395,-0.445,5913.888888888889
-0.405,-0.455,5916.666666666667
-0.41,-0.46,5919.444444444444
-0.42,-0.445,5922.222222222223
-0.44,-0.45,5925.0
-0.45,-0.445,5927.777777777777
-0.465,-0.44,5930.555555555556
-0.44,-0.42,5933.333333333333
-0.41,-0.42,5936.111111111111
-0.335,-0.43,5938.888888888889
-0.215,-0.465,5941.666666666667
-0.09,-0.5,5944.444444444444
0.08,-0.54,5947.222222222223
0.27,-0.585,5950.0
0.45,-0.625,5952.777777777777
0.62,-0.65,5955.555555555556
0.73,-0.655,5958.333333333333
0.75,-0.62,5961.111111111111
0.65,-0.59,5963.888888888889
0.445,-0.545,5966.666666666667
0.2,-0.495,5969.444444444444
-0.05,-0.44,5972.222222222223
-0.25,-0.4,5975.0
-0.365,-0.4,5977.777777777777
-0.39,-0.415,5980.555555555556
-0.37,-0.445,5983.333333333333
-0.33,-0.47,5986.111111111111
-0.295,-0.48,5988.888888888889
-0.285,-0.5,5991.666666666667
-0.275,-0.495,5994.444444444444
-0.28,-0.48,5997.222222222223
-0.295,-0.47,6000.0
-0.315,-0.45,6002.777777777777
-0.335,-0.445,6005.555555555556
-0.34,-0.45,6008.333333333333
-0.355,-0.45,6011.111111111111
-0.365,-0.445,6013.888888888889
-0.375,-0.46,6016.666666666667
-0.38,-0.47,6019.444444444444
-0.38,-0.465,6022.222222222223
-0.395,-0.455,6025.0
-0.395,-0.45,6027.777777777777
-0.39,-0.44,6030.555555555556
-0.385,-0.435,6033.333333333333
-0.365,-0.43,6036.111111111111
-0.36,-0.425,6038.888888888889
-0.37,-0.435,6041.666666666667
-0.365,-0.43,6044.444444444444
-0.37,-0.445,6047.222222222223
-0.37,-0.45,6050.0
-0.385,-0.455,6052.777777777777
-0.385,-0.455,6055.555555555556
-0.38,-0.45,6058.333333333333
-0.37,-0.435,6061.111111111111
-0.37,-0.44,6063.888888888889
-0.375,-0.435,6066.666666666667
-0.365,-0.43,6069.444444444444
-0.355,-0.43,6072.222222222223
-0.36,-0.435,6075.0
-0.355,-0.435,6077.777777777777
-0.365,-0.45,6080.555555555556
-0.37,-0.46,6083.333333333333
-0.375,-0.46,6086.111111111111
-0.375,-0.45,6088.888888888889
-0.385,-0.45,6091.666666666667
-0.375,-0.445,6094.444444444444
-0.365,-0.445,6097.222222222223
-0.36,-0.445,6100.0
-0.35,-0.435,6102.777777777777
-0.35,-0.445,6105.555555555556
-0.35,-0.455,6108.333333333333
-0.345,-0.46,6111.111111111111
-0.355,-0.47,6113.888888888889
-0.35,-0.465,6116.666666666667
-0.37,-0.475,6119.444444444444
-0.36,-0.47,6122.222222222223
-0.355,-0.47,6125.0
-0.36,-0.47,6127.777777777777
-0.345,-0.465,6130.555555555556
-0.345,-0.46,6133.333333333333
-0.335,-0.455,6136.111111111111
-0.33,-0.455,6138.888888888889
-0.33,-0.465,6141.666666666667
-0.335,-0.46,6144.444444444444
-0.335,-0.48,6147.222222222223
-0.34,-0.49,6150.0
-0.345,-0.48,6152.777777777777
-0.345,-0.495,6155.555555555556
-0.355,-0.49,6158.333333333333
-0.34,-0.485,6161.111111111111
-0.335,-0.485,6163.888888888889
-0.33,-0.48,6166.666666666667
-0.32,-0.475,6169.444444444444
-0.32,-0.46,6172.222222222223
-0.32,-0.485,6175.0
-0.32,-0.48,6177.777777777777
-0.315,-0.485,6180.555555555556
-0.325,-0.495,6183.333333333333
-0.33,-0.5,6186.111111111111
-0.335,-0.505,6188.888888888889
-0.335,-0.5,6191.666666666667
-0.32,-0.5,6194.444444444444
-0.31,-0.495,6197.222222222223
-0.31,-0.485,6200.0
-0.305,-0.48,6202.777777777777
-0.3,-0.48,6205.555555555556
-0.295,-0.495,6208.333333333333
-0.295,-0.49,6211.111111111111
-0.3,-0.505,6213.888888888889
-0.305,-0.51,6216.666666666667
-0.305,-0.515,6219.444444444444
-0.3,-0.525,6222.222222222223
-0.305,-0.525,6225.0
-0.3,-0.51,6227.777777777777
-0.285,-0.515,6230.555555555556
-0.265,-0.5,6233.333333333333
-0.26,-0.51,6236.111111111111
-0.25,-0.505,6238.888888888889
-0.245,-0.51,6241.666666666667
-0.24,-0.515,6244.444444444444
-0.24,-0.525,6247.222222222223
-0.245,-0.535,6250.0
-0.24,-0.54,6252.777777777777
-0.24,-0.545,6255.555555555556
-0.245,-0.545,6258.333333333333
-0.25,-0.535,6261.111111111111
-0.235,-0.53,6263.888888888889
-0.24,-0.525,6266.666666666667
-0.22,-0.505,6269.444444444444
-0.235,-0.51,6272.222222222223
-0.215,-0.51,6275.0
-0.23,-0.515,6277.777777777777
-0.24,-0.535,6280.555555555556
-0.26,-0.53,6283.333333333333
-0.27,-0.53,6286.111111111111
-0.275,-0.53,6288.888888888889
-0.285,-0.52,6291.666666666667
-0.285,-0.515,6294.444444444444
-0.275,-0.505,6297.222222222223
-0.285,-0.49,6300.0
-0.28,-0.48,6302.777777777777
-0.28,-0.485,6305.555555555556
-0.285,-0.49,6308.333333333333
-0.29,-0.485,6311.111111111111
-0.32,-0.485,6313.888888888889
-0.33,-0.49,6316.666666666667
-0.33,-0.505,6319.444444444444
-0.33,-0.495,6322.222222222223
-0.34,-0.485,6325.0
-0.335,-0.475,6327.777777777777
-0.335,-0.48,6330.555555555556
-0.335,-0.465,6333.333333333333
-0.335,-0.46,6336.111111111111
-0.33,-0.455,6338.888888888889
-0.34,-0.455,6341.666666666667
-0.325,-0.46,6344.444444444444
-0.335,-0.475,6347.222222222223
-0.35,-0.48,6350.0
-0.355,-0.475,6352.777777777777
-0.355,-0.485,6355.555555555556
-0.35,-0.475,6358.333333333333
-0.35,-0.47,6361.111111111111
-0.35,-0.46,6363.888888888889
-0.34,-0.455,6366.666666666667
-0.345,-0.45,6369.444444444444
-0.335,-0.455,6372.222222222223
-0.35,-0.455,6375.0
-0.345,-0.46,6377.777777777777
-0.35,-0.465,6380.555555555556
-0.36,-0.48,6383.333333333333
-0.375,-0.495,6386.111111111111
-0.365,-0.475,6388.888888888889
-0.37,-0.485,6391.666666666667
-0.37,-0.47,6394.444444444444
-0.36,-0.455,6397.222222222223
-0.355,-0.46,6400.0
-0.355,-0.445,6402.777777777777
-0.355,-0.45,6405.555555555556
-0.35,-0.45,6408.333333333333
-0.35,-0.46,6411.111111111111
-0.36,-0.465,6413.888888888889
-0.375,-0.47,6416.666666666667
-0.375,-0.48,6419.444444444444
-0.375,-0.485,6422.222222222223
-0.38,-0.475,6425.0
-0.38,-0.47,6427.777777777777
-0.37,-0.455,6430.555555555556
-0.365,-0.455,6433.333333333333
-0.36,-0.455,6436.111111111111
-0.355,-0.46,6438.888888888889
-0.36,-0.45,6441.666666666667
-0.37,-0.455,6444.444444444444
-0.37,-0.465,6447.222222222223
-0.385,-0.47,6450.0
-0.39,-0.48,6452.777777777777
-0.405,-0.475,6455.555555555556
-0.4,-0.465,6458.333333333333
-0.39,-0.465,6461.111111111111
-0.38,-0.46,6463.888888888889
-0.37,-0.46,6466.666666666667
-0.365,-0.445,6469.444444444444
-0.35,-0.455,6472.222222222223
-0.335,-0.45,6475.0
-0.335,-0.455,6477.777777777777
-0.335,-0.46,6480.555555555556
-0.325,-0.46,6483.333333333333
-0.335,-0.47,6486.111111111111
-0.335,-0.46,6488.888888888889
-0.335,-0.46,6491.666666666667
-0.335,-0.445,6494.444444444444
-0.325,-0.445,6497.222222222223
-0.31,-0.445,6500.0
-0.305,-0.43,6502.777777777777
-0.28,-0.435,6505.555555555556
-0.275,-0.455,6508.333333333333
-0.27,-0.465,6511.111111111111
-0.28,-0.485,6513.888888888889
-0.29,-0.5,6516.666666666667
-0.31,-0.505,6519.444444444444
-0.325,-0.505,6522.222222222223
-0.345,-0.515,6525.0
-0.345,-0.51,6527.777777777777
-0.35,-0.495,6530.555555555556
-0.34,-0.48,6533.333333333333
-0.345,-0.47,6536.111111111111
-0.34,-0.47,6538.888888888889
-0.34,-0.475,6541.666666666667
-0.345,-0.49,6544.444444444444
-0.355,-0.485,6547.222222222223
-0.38,-0.49,6550.0
-0.39,-0.485,6552.777777777777
-0.415,-0.485,6555.555555555556
-0.425,-0.465,6558.333333333333
-0.44,-0.465,6561.111111111111
-0.44,-0.455,6563.888888888889
-0.435,-0.45,6566.666666666667
-0.425,-0.445,6569.444444444444
-0.41,-0.445,6572.222222222223
-0.405,-0.445,6575.0
-0.41,-0.45,6577.777777777777
-0.405,-0.46,6580.555555555556
-0.41,-0.46,6583.333333333333
-0.425,-0.46,6586.111111111111
-0.425,-0.455,6588.888888888889
-0.43,-0.465,6591.666666666667
-0.42,-0.455,6594.444444444444
-0.415,-0.46,6597.222222222223
-0.41,-0.45,6600.0
-0.4,-0.445,6602.777777777777
-0.395,-0.44,6605.555555555556
-0.4,-0.445,6608.333333333333
-0.405,-0.455,6611.111111111111
-0.425,-0.455,6613.888888888889
-0.45,-0.46,6616.666666666667
-0.47,-0.47,6619.444444444444
-0.46,-0.465,6622.222222222223
-0.435,-0.465,6625.0
-0.355,-0.47,6627.777777777777
-0.245,-0.49,6630.555555555556
-0.1,-0.515,6633.333333333333
0.075,-0.56,6636.111111111111
0.28,-0.605,6638.888888888889
0.47,-0.64,6641.666666666667
0.65,-0.665,6644.444444444444
0.76,-0.675,6647.222222222223
0.755,-0.665,6650.0
0.615,-0.62,6652.777777777777
0.38,-0.58,6655.555555555556
0.085,-0.51,6658.333333333333
-0.175,-0.45,6661.111111111111
-0.345,-0.41,6663.888888888889
-0.425,-0.39,6666.666666666667
-0.415,-0.4,6669.444444444444
-0.355,-0.425,6672.222222222223
-0.295,-0.46,6675.0
-0.27,-0.48,6677.777777777777
-0.26,-0.495,6680.555555555556
-0.285,-0.49,6683.333333333333
-0.305,-0.485,6686.111111111111
-0.335,-0.49,6688.888888888889
-0.36,-0.475,6691.666666666667
-0.375,-0.47,6694.444444444444
-0.38,-0.455,6697.222222222223
-0.385,-0.44,6700.0
-0.37,-0.44,6702.777777777777
-0.37,-0.44,6705.555555555556
-0.37,-0.445,6708.333333333333
-0.37,-0.44,6711.111111111111
-0.38,-0.435,6713.888888888889
-0.39,-0.45,6716.666666666667
-0.395,-0.465,6719.444444444444
-0.4,-0.445,6722.222222222223
-0.395,-0.45,6725.0
-0.385,-0.445,6727.777777777777
-0.385,-0.44,6730.555555555556
-0.38,-0.43,6733.333333333333
-0.375,-0.43,6736.111111111111
-0.37,-0.425,6738.888888888889
-0.37,-0.43,6741.666666666667
-0.375,-0.44,6744.444444444444
-0.38,-0.45,6747.222222222223
-0.375,-0.45,6750.0
-0.38,-0.45,6752.777777777777
-0.385,-0.455,6755.555555555556
-0.375,-0.45,6758.333333333333
-0.385,-0.45,6761.111111111111
-0.375,-0.445,6763.888888888889
-0.375,-0.445,6766.666666666667
-0.365,-0.43,6769.444444444444
-0.36,-0.43,6772.222222222223
-0.355,-0.43,6775.0
-0.36,-0.445,6777.777777777777
-0.365,-0.44,6780.555555555556
-0.38,-0.45,6783.333333333333
-0.385,-0.46,6786.111111111111
-0.385,-0.46,6788.888888888889
-0.385,-0.455,6791.666666666667
-0.38,-0.46,6794.444444444444
-0.365,-0.445,6797.222222222223
-0.36,-0.445,6800.0
-0.35,-0.455,6802.777777777777
-0.34,-0.44,6805.555555555556
-0.33,-0.445,6808.333333333333
-0.34,-0.45,6811.111111111111
-0.345,-0.46,6813.888888888889
-0.35,-0.475,6816.666666666667
-0.355,-0.485,6819.444444444444
-0.355,-0.48,6822.222222222223
-0.345,-0.48,6825.0
-0.35,-0.47,6827.777777777777
-0.345,-0.48,6830.555555555556
-0.35,-0.465,6833.333333333333
-0.345,-0.46,6836.111111111111
-0.325,-0.465,6838.888888888889
-0.325,-0.46,6841.666666666667
-0.325,-0.475,6844.444444444444
-0.33,-0.475,6847.222222222223
-0.33,-0.495,6850.0
-0.34,-0.5,6852.777777777777
-0.35,-0.5,6855.555555555556
-0.345,-0.5,6858.333333333333
-0.34,-0.495,6861.111111111111
-0.325,-0.495,6863.888888888889
-0.325,-0.475,6866.666666666667
-0.315,-0.475,6869.444444444444
-0.305,-0.485,6872.222222222223
-0.31,-0.48,6875.0
-0.315,-0.495,6877.777777777777
-0.32,-0.505,6880.555555555556
-0.32,-0.52,6883.333333333333
-0.325,-0.525,6886.111111111111
-0.325,-0.52,6888.888888888889
-0.335,-0.52,6891.666666666667
-0.33,-0.515,6894.444444444444
-0.305,-0.51,6897.222222222223
-0.315,-0.5,6900.0
-0.3,-0.495,6902.777777777777
-0.285,-0.515,6905.555555555556
-0.28,-0.525,6908.333333333333
-0.275,-0.515,6911.111111111111
-0.27,-0.53,6913.888888888889
-0.275,-0.54,6916.666666666667
-0.265,-0.555,6919.444444444444
-0.27,-0.55,6922.222222222223
-0.275,-0.545,6925.0
-0.255,-0.545,6927.777777777777
-0.255,-0.535,6930.555555555556
-0.25,-0.53,6933.333333333333
-0.235,-0.515,6936.111111111111
-0.23,-0.52,6938.888888888889
-0.235,-0.535,6941.666666666667
-0.24,-0.535,6944.444444444444
-0.25,-0.53,6947.222222222223
-0.255,-0.545,6950.0
-0.265,-0.535,6952.777777777777
-0.28,-0.54,6955.555555555556
-0.29,-0.52,6958.333333333333
-0.29,-0.52,6961.111111111111
-0.29,-0.52,6963.888888888889
-0.3,-0.505,6966.666666666667
-0.29,-0.49,6969.444444444444
-0.295,-0.485,6972.222222222223
-0.305,-0.485,6975.0
-0.305,-0.49,6977.777777777777
-0.31,-0.49,6980.555555555556
-0.325,-0.49,6983.333333333333
-0.335,-0.485,6986.111111111111
-0.345,-0.5,6988.888888888889
-0.35,-0.485,6991.666666666667
-0.355,-0.475,6994.444444444444
-0.36,-0.475,6997.222222222223
-0.35,-0.46,7000.0
-0.345,-0.45,7002.777777777777
-0.34,-0.45,7005.555555555556
-0.34,-0.45,7008.333333333333
-0.34,-0.45,7011.111111111111
-0.35,-0.465,7013.888888888889
-0.365,-0.47,7016.666666666667
-0.37,-0.475,7019.444444444444
-0.375,-0.475,7022.222222222223
-0.39,-0.465,7025.0
-0.375,-0.455,7027.777777777777
-0.375,-0.465,7030.555555555556
-0.355,-0.445,7033.333333333333
-0.36,-0.45,7036.111111111111
-0.37,-0.445,7038.888888888889
-0.365,-0.445,7041.666666666667
-0.375,-0.45,7044.444444444444
-0.38,-0.46,7047.222222222223
-0.385,-0.475,7050.0
-0.385,-0.47,7052.777777777777
-0.39,-0.475,7055.555555555556
-0.39,-0.465,7058.333333333333
-0.39,-0.46,7061.111111111111
-0.385,-0.445,7063.888888888889
-0.375,-0.455,7066.666666666667
-0.37,-0.44,7069.444444444444
-0.37,-0.44,7072.222222222223
-0.37,-0.445,7075.0
-0.375,-0.445,7077.777777777777
-0.375,-0.45,7080.555555555556
-0.39,-0.455,7083.333333333333
-0.4,-0.465,7086.111111111111
-0.4,-0.465,7088.888888888889
-0.4,-0.465,7091.666666666667
-0.405,-0.45,7094.444444444444
-0.405,-0.44,7097.222222222223
-0.4,-0.445,7100.0
-0.39,-0.435,7102.777777777777
-0.39,-0.44,7105.555555555556
-0.39,-0.435,7108.333333333333
-0.39,-0.445,7111.111111111111
-0.395,-0.455,7113.888888888889
-0.4,-0.46,7116.666666666667
-0.41,-0.46,7119.444444444444
-0.41,-0.455,7122.222222222223
-0.415,-0.46,7125.0
-0.41,-0.45,7127.777777777777
-0.4,-0.445,7130.555555555556
-0.395,-0.445,7133.333333333333
-0.38,-0.44,7136.111111111111
-0.38,-0.43,7138.888888888889
-0.37,-0.44,7141.666666666667
-0.365,-0.44,7144.444444444444
-0.36,-0.45,7147.222222222223
-0.355,-0.455,7150.0
-0.37,-0.465,7152.777777777777
-0.36,-0.46,7155.555555555556
-0.355,-0.45,7158.333333333333
-0.36,-0.45,7161.111111111111
-0.34,-0.445,7163.888888888889
-0.34,-0.43,7166.666666666667
-0.335,-0.425,7169.444444444444
-0.33,-0.42,7172.222222222223
-0.315,-0.43,7175.0
-0.3,-0.425,7177.777777777777
-0.295,-0.45,7180.555555555556
-0.29,-0.475,7183.333333333333
-0.305,-0.475,7186.111111111111
-0.32,-0.485,7188.888888888889
-0.33,-0.49,7191.666666666667
-0.35,-0.49,7194.444444444444
-0.355,-0.485,7197.222222222223
-0.365,-0.475,7200.0
-0.36,-0.465,7202.777777777777
-0.36,-0.46,7205.555555555556
-0.355,-0.47,7208.333333333333
-0.355,-0.47,7211.111111111111
-0.37,-0.47,7213.888888888889
-0.37,-0.48,7216.666666666667
-0.38,-0.48,7219.444444444444
-0.39,-0.485,7222.222222222223
-0.395,-0.48,7225.0
-0.41,-0.465,7227.777777777777
-0.405,-0.45,7230.555555555556
-0.425,-0.445,7233.333333333333
-0.42,-0.43,7236.111111111111
-0.425,-0.43,7238.888888888889
-0.42,-0.425,7241.666666666667
-0.42,-0.43,7244.444444444444
-0.42,-0.44,7247.222222222223
-0.44,-0.455,7250.0
-0.45,-0.46,7252.777777777777
-0.45,-0.465,7255.555555555556
-0.44,-0.44,7258.333333333333
-0.43,-0.445,7261.111111111111
-0.435,-0.435,7263.888888888889
-0.425,-0.435,7266.666666666667
-0.415,-0.43,7269.444444444444
-0.415,-0.435,7272.222222222223
-0.405,-0.45,7275.0
-0.41,-0.435,7277.777777777777
-0.415,-0.445,7280.555555555556
-0.42,-0.46,7283.333333333333
-0.44,-0.46,7286.111111111111
-0.465,-0.46,7288.888888888889
-0.48,-0.45,7291.666666666667
-0.49,-0.44,7294.444444444444
-0.47,-0.445,7297.222222222223
-0.41,-0.44,7300.0
-0.33,-0.455,7302.777777777777
-0.21,-0.485,7305.555555555556
-0.055,-0.535,7308.333333333333
0.125,-0.59,7311.111111111111
0.325,-0.645,7313.888888888889
0.51,-0.67,7316.666666666667
0.68,-0.71,7319.444444444444
0.755,-0.705,7322.222222222223
0.74,-0.675,7325.0
0.6,-0.63,7327.777777777777
0.375,-0.575,7330.555555555556
0.125,-0.5,7333.333333333333
-0.12,-0.44,7336.111111111111
-0.3,-0.385,7338.888888888889
-0.4,-0.38,7341.666666666667
-0.425,-0.385,7344.444444444444
-0.39,-0.42,7347.222222222223
-0.34,-0.45,7350.0
-0.32,-0.485,7352.777777777777
-0.305,-0.495,7355.555555555556
-0.31,-0.505,7358.333333333333
-0.325,-0.495,7361.111111111111
-0.34,-0.485,7363.888888888889
-0.365,-0.455,7366.666666666667
-0.37,-0.455,7369.444444444444
-0.38,-0.44,7372.222222222223
-0.385,-0.45,7375.0
-0.405,-0.46,7377.777777777777
-0.395,-0.44,7380.555555555556
-0.395,-0.46,7383.333333333333
-0.4,-0.455,7386.111111111111
-0.42,-0.46,7388.888888888889
-0.42,-0.45,7391.666666666667
-0.42,-0.455,7394.444444444444
-0.41,-0.445,7397.222222222223
-0.405,-0.43,7400.0
-0.405,-0.43,7402.777777777777
-0.395,-0.435,7405.555555555556
-0.39,-0.44,7408.333333333333
-0.395,-0.45,7411.111111111111
-0.405,-0.44,7413.888888888889
-0.4,-0.45,7416.666666666667
-0.405,-0.45,7419.444444444444
-0.405,-0.465,7422.222222222223
-0.41,-0.45,7425.0
-0.405,-0.455,7427.777777777777
-0.4,-0.455,7430.555555555556
-0.4,-0.44,7433.333333333333
-0.4,-0.435,7436.111111111111
-0.4,-0.44,7438.888888888889
-0.385,-0.435,7441.666666666667
-0.385,-0.435,7444.444444444444
-0.39,-0.45,7447.222222222223
-0.39,-0.46,7450.0
-0.4,-0.46,7452.777777777777
-0.395,-0.465,7455.555555555556
-0.41,-0.465,7458.333333333333
-0.4,-0.455,7461.111111111111
-0.395,-0.44,7463.888888888889
-0.385,-0.445,7466.666666666667
-0.38,-0.43,7469.444444444444
-0.385,-0.44,7472.222222222223
-0.365,-0.45,7475.0
-0.36,-0.46,7477.777777777777
-0.365,-0.465,7480.555555555556
-0.38,-0.46,7483.333333333333
-0.38,-0.465,7486.111111111111
-0.39,-0.48,7488.888888888889
-0.38,-0.475,7491.666666666667
-0.38,-0.48,7494.444444444444
-0.375,-0.465,7497.222222222223
-0.37,-0.46,7500.0
-0.355,-0.45,7502.777777777777
-0.36,-0.46,7505.555555555556
-0.355,-0.465,7508.333333333333
-0.355,-0.46,7511.111111111111
-0.36,-0.47,7513.888888888889
-0.365,-0.475,7516.666666666667
-0.37,-0.485,7519.444444444444
-0.37,-0.495,7522.222222222223
-0.38,-0.485,7525.0
-0.38,-0.485,7527.777777777777
-0.375,-0.475,7530.555555555556
-0.38,-0.475,7533.333333333333
-0.36,-0.47,7536.111111111111
-0.365,-0.47,7538.888888888889
-0.38,-0.475,7541.666666666667
-0.37,-0.47,7544.444444444444
-0.38,-0.48,7547.222222222223
-0.39,-0.495,7550.0
-0.395,-0.51,7552.777777777777
-0.395,-0.5,7555.555555555556
-0.4,-0.505,7558.333333333333
-0.385,-0.505,7561.111111111111
-0.375,-0.5,7563.888888888889
-0.365,-0.49,7566.666666666667
-0.355,-0.48,7569.444444444444
-0.345,-0.485,7572.222222222223
-0.34,-0.5,7575.0
-0.335,-0.49,7577.777777777777
-0.335,-0.495,7580.555555555556
-0.335,-0.5,7583.333333333333
-0.345,-0.52,7586.111111111111
-0.345,-0.525,7588.888888888889
-0.345,-0.525,7591.666666666667
-0.34,-0.52,7594.444444444444
-0.325,-0.52,7597.222222222223
-0.295,-0.515,7600.0
-0.29,-0.525,7602.777777777777
-0.28,-0.52,7605.555555555556
-0.27,-0.52,7608.333333333333
-0.26,-0.525,7611.111111111111
-0.26,-0.535,7613.888888888889
-0.265,-0.535,7616.666666666667
-0.265,-0.56,7619.444444444444
-0.27,-0.55,7622.222222222223
-0.275,-0.535,7625.0
-0.275,-0.53,7627.777777777777
-0.275,-0.525,7630.555555555556
-0.285,-0.52,7633.333333333333
-0.28,-0.51,7636.111111111111
-0.28,-0.5,7638.888888888889
-0.28,-0.51,7641.666666666667
-0.29,-0.5,7644.444444444444
-0.3,-0.505,7647.222222222223
-0.31,-0.515,7650.0
-0.33,-0.51,7652.777777777777
-0.345,-0.505,7655.555555555556
-0.345,-0.5,7658.333333333333
-0.355,-0.495,7661.111111111111
-0.35,-0.49,7663.888888888889
-0.345,-0.48,7666.666666666667
-0.35,-0.465,7669.444444444444
-0.35,-0.46,7672.222222222223
-0.345,-0.46,7675.0
-0.355,-0.465,7677.777777777777
-0.37,-0.475,7680.555555555556
-0.38,-0.48,7683.333333333333
-0.395,-0.47,7686.111111111111
-0.385,-0.485,7688.888888888889
-0.39,-0.485,7691.666666666667
-0.405,-0.47,7694.444444444444
-0.39,-0.475,7697.222222222223
-0.39,-0.455,7700.0
-0.385,-0.46,7702.777777777777
-0.37,-0.445,7705.555555555556
-0.38,-0.465,7708.333333333333
-0.375,-0.45,7711.111111111111
-0.38,-0.46,7713.888888888889
-0.39,-0.47,7716.666666666667
-0.405,-0.475,7719.444444444444
-0.39,-0.475,7722.222222222223
-0.405,-0.47,7725.0
-0.395,-0.46,7727.777777777777
-0.395,-0.455,7730.555555555556
-0.4,-0.45,7733.333333333333
-0.39,-0.455,7736.111111111111
-0.39,-0.44,7738.888888888889
-0.4,-0.45,7741.666666666667
-0.39,-0.45,7744.444444444444
-0.405,-0.465,7747.222222222223
-0.405,-0.475,7750.0
-0.415,-0.46,7752.777777777777
-0.42,-0.465,7755.555555555556
-0.425,-0.455,7758.333333333333
-0.415,-0.465,7761.111111111111
-0.415,-0.45,7763.888888888889
-0.415,-0.455,7766.666666666667
-0.405,-0.44,7769.444444444444
-0.4,-0.435,7772.222222222223
-0.4,-0.435,7775.0
-0.405,-0.45,7777.777777777777
-0.405,-0.45,7780.555555555556
-0.415,-0.46,7783.333333333333
-0.42,-0.465,7786.111111111111
-0.425,-0.47,7788.888888888889
-0.42,-0.465,7791.666666666667
-0.42,-0.465,7794.444444444444
-0.42,-0.46,7797.222222222223
-0.405,-0.445,7800.0
-0.4,-0.435,7802.777777777777
-0.395,-0.435,7805.555555555556
-0.39,-0.445,7808.333333333333
-0.39,-0.45,7811.111111111111
-0.385,-0.455,7813.888888888889
-0.4,-0.455,7816.666666666667
-0.39,-0.46,7819.444444444444
-0.395,-0.46,7822.222222222223
-0.385,-0.445,7825.0
-0.37,-0.445,7827.777777777777
-0.375,-0.44,7830.555555555556
-0.36,-0.43,7833.333333333333
-0.355,-0.415,7836.111111111111
-0.34,-0.42,7838.888888888889
-0.32,-0.425,7841.666666666667
-0.305,-0.43,7844.444444444444
-0.3,-0.46,7847.222222222223
-0.305,-0.455,7850.0
-0.315,-0.485,7852.777777777777
-0.335,-0.495,7855.555555555556
-0.36,-0.495,7858.333333333333
-0.375,-0.495,7861.111111111111
-0.385,-0.485,7863.888888888889
-0.39,-0.475,7866.666666666667
-0.39,-0.47,7869.444444444444
-0.395,-0.465,7872.222222222223
-0.39,-0.47,7875.0
-0.39,-0.475,7877.777777777777
-0.385,-0.48,7880.555555555556
-0.39,-0.49,7883.333333333333
-0.405,-0.48,7886.111111111111
-0.405,-0.485,7888.888888888889
-0.425,-0.47,7891.666666666667
-0.45,-0.455,7894.444444444444
-0.445,-0.455,7897.222222222223
-0.455,-0.44,7900.0
-0.445,-0.435,7902.777777777777
-0.45,-0.43,7905.555555555556
-0.445,-0.44,7908.333333333333
-0.445,-0.43,7911.111111111111
-0.44,-0.445,7913.888888888889
-0.45,-0.45,7916.666666666667
-0.45,-0.46,7919.444444444444
-0.465,-0.45,7922.222222222223
-0.455,-0.455,7925.0
-0.455,-0.445,7927.777777777777
-0.445,-0.445,7930.555555555556
-0.44,-0.435,7933.333333333333
-0.435,-0.425,7936.111111111111
-0.435,-0.425,7938.888888888889
-0.43,-0.435,7941.666666666667
-0.43,-0.44,7944.444444444444
-0.455,-0.46,7947.222222222223
-0.475,-0.455,7950.0
-0.5,-0.455,7952.777777777777
-0.51,-0.46,7955.555555555556
-0.5,-0.45,7958.333333333333
-0.445,-0.47,7961.111111111111
-0.35,-0.47,7963.888888888889
-0.205,-0.51,7966.666666666667
-0.025,-0.55,7969.444444444444
0.2,-0.595,7972.222222222223
0.45,-0.675,7975.0
0.695,-0.7,7977.777777777777
0.85,-0.72,7980.555555555556
0.885,-0.705,7983.333333333333
0.745,-0.66,7986.111111111111
0.485,-0.59,7988.888888888889
0.165,-0.5,7991.666666666667
-0.13,-0.43,7994.444444444444
-0.335,-0.37,7997.222222222223
-0.435,-0.345,8000.0
-0.44,-0.345,8002.777777777777
-0.405,-0.375,8005.555555555556
-0.34,-0.425,8008.333333333333
-0.305,-0.46,8011.111111111111
-0.31,-0.49,8013.888888888889
-0.32,-0.495,8016.666666666667
-0.34,-0.495,8019.444444444444
-0.365,-0.485,8022.222222222223
-0.4,-0.47,8025.0
-0.425,-0.465,8027.777777777777
-0.435,-0.445,8030.555555555556
-0.43,-0.445,8033.333333333333
-0.415,-0.445,8036.111111111111
-0.405,-0.435,8038.888888888889
-0.405,-0.445,8041.666666666667
-0.4,-0.435,8044.444444444444
-0.405,-0.435,8047.222222222223
-0.41,-0.445,8050.0
-0.42,-0.455,8052.777777777777
-0.435,-0.45,8055.555555555556
-0.435,-0.46,8058.333333333333
-0.445,-0.45,8061.111111111111
-0.43,-0.435,8063.888888888889
-0.425,-0.425,8066.666666666667
-0.415,-0.42,8069.444444444444
-0.405,-0.425,8072.222222222223
-0.41,-0.43,8075.0
-0.415,-0.43,8077.777777777777
-0.4,-0.43,8080.555555555556
-0.42,-0.45,8083.333333333333
-0.42,-0.46,8086.111111111111
-0.43,-0.46,8088.888888888889
-0.43,-0.445,8091.666666666667
-0.435,-0.445,8094.444444444444
-0.435,-0.44,8097.222222222223
-0.425,-0.44,8100.0
-0.415,-0.43,8102.777777777777
-0.405,-0.43,8105.555555555556
-0.4,-0.43,8108.333333333333
-0.39,-0.44,8111.111111111111
-0.385,-0.44,8113.888888888889
-0.38,-0.445,8116.666666666667
-0.395,-0.455,8119.444444444444
-0.4,-0.46,8122.222222222223
-0.41,-0.45,8125.0
-0.405,-0.45,8127.777777777777
-0.405,-0.45,8130.555555555556
-0.385,-0.44,8133.333333333333
-0.375,-0.435,8136.111111111111
-0.37,-0.425,8138.888888888889
-0.38,-0.44,8141.666666666667
-0.39,-0.44,8144.444444444444
-0.39,-0.455,8147.222222222223
-0.405,-0.47,8150.0
-0.405,-0.475,8152.777777777777
-0.415,-0.47,8155.555555555556
-0.42,-0.48,8158.333333333333
-0.41,-0.47,8161.111111111111
-0.4,-0.465,8163.888888888889
-0.38,-0.47,8166.666666666667
-0.38,-0.45,8169.444444444444
-0.37,-0.45,8172.222222222223
-0.375,-0.455,8175.0
-0.385,-0.475,8177.777777777777
-0.38,-0.46,8180.555555555556
-0.39,-0.485,8183.333333333333
-0.405,-0.49,8186.111111111111
-0.41,-0.5,8188.888888888889
-0.405,-0.485,8191.666666666667
-0.405,-0.485,8194.444444444445
-0.405,-0.48,8197.222222222223
-0.39,-0.475,8200.0
-0.375,-0.475,8202.777777777777
-0.365,-0.46,8205.555555555555
-0.36,-0.485,8208.333333333334
-0.365,-0.475,8211.111111111111
-0.36,-0.485,8213.888888888889
-0.375,-0.495,8216.666666666666
-0.375,-0.505,8219.444444444445
-0.38,-0.495,8222.222222222223
-0.39,-0.505,8225.0
-0.395,-0.51,8227.777777777777
-0.39,-0.495,8230.555555555555
-0.38,-0.485,8233.333333333334
-0.36,-0.49,8236.111111111111
-0.34,-0.49,8238.888888888889
-0.335,-0.49,8241.666666666666
-0.325,-0.5,8244.444444444445
-0.325,-0.505,8247.222222222223
-0.315,-0.515,8250.0
-0.315,-0.525,8252.777777777777
-0.31,-0.54,8255.555555555555
-0.31,-0.54,8258.333333333334
-0.305,-0.53,8261.111111111111
-0.295,-0.53,8263.888888888889
-0.29,-0.515,8266.666666666666
-0.285,-0.51,8269.444444444445
-0.285,-0.505,8272.222222222223
-0.28,-0.5,8275.0
-0.27,-0.515,8277.777777777777
-0.285,-0.515,8280.555555555555
-0.29,-0.515,8283.333333333334
-0.305,-0.53,8286.111111111111
-0.305,-0.52,8288.888888888889
-0.31,-0.52,8291.666666666666
-0.32,-0.505,8294.444444444445
-0.32,-0.5,8297.222222222223
-0.325,-0.49,8300.0
-0.33,-0.485,8302.777777777777
-0.32,-0.47,8305.555555555555
-0.335,-0.485,8308.333333333334
-0.335,-0.47,8311.111111111111
-0.35,-0.49,8313.888888888889
-0.35,-0.49,8316.666666666666
-0.365,-0.49,8319.444444444445
-0.36,-0.485,8322.222222222223
-0.375,-0.48,8325.0
-0.38,-0.475,8327.777777777777
-0.375,-0.475,8330.555555555555
-0.375,-0.45,8333.333333333334
-0.375,-0.44,8336.111111111111
-0.365,-0.435,8338.888888888889
-0.37,-0.445,8341.666666666666
-0.375,-0.44,8344.444444444445
-0.375,-0.455,8347.222222222223
-0.385,-0.455,8350.0
-0.39,-0.46,8352.777777777777
-0.41,-0.47,8355.555555555555
-0.42,-0.46,8358.333333333334
-0.41,-0.45,8361.111111111111
-0.4,-0.44,8363.888888888889
-0.4,-0.45,8366.666666666666
-0.39,-0.425,8369.444444444445
-0.37,-0.425,8372.222222222223
-0.37,-0.425,8375.0
-0.375,-0.43,8377.777777777777
-0.39,-0.43,8380.555555555555
-0.4,-0.43,8383.333333333334
-0.41,-0.455,8386.111111111111
-0.415,-0.445,8388.888888888889
-0.415,-0.435,8391.666666666666
-0.415,-0.44,8394.444444444445
-0.415,-0.425,8397.222222222223
-0.405,-0.425,8400.0
-0.405,-0.415,8402.777777777777
-0.395,-0.415,8405.555555555555
-0.395,-0.42,8408.333333333334
-0.385,-0.415,8411.111111111111
-0.4,-0.425,8413.888888888889
-0.395,-0.435,8416.666666666666
-0.405,-0.44,8419.444444444445
-0.415,-0.45,8422.222222222223
-0.425,-0.445,8425.0
-0.42,-0.43,8427.777777777777
-0.425,-0.43,8430.555555555555
-0.425,-0.425,8433.333333333334
-0.43,-0.415,8436.111111111111
-0.42,-0.415,8438.888888888889
-0.42,-0.415,8441.666666666666
-0.42,-0.415,8444.444444444445
-0.42,-0.425,8447.222222222223
-0.425,-0.435,8450.0
-0.425,-0.44,8452.777777777777
-0.43,-0.445,8455.555555555555
-0.44,-0.435,8458.333333333334
-0.45,-0.435,8461.111111111111
-0.445,-0.43,8463.888888888889
-0.445,-0.415,8466.666666666666
-0.44,-0.405,8469.444444444445
-0.43,-0.41,8472.222222222223
-0.405,-0.415,8475.0
-0.39,-0.41,8477.777777777777
-0.37,-0.415,8480.555555555555
-0.365,-0.42,8483.333333333334
-0.365,-0.425,8486.111111111111
-0.365,-0.42,8488.888888888889
-0.38,-0.415,8491.666666666666
-0.39,-0.41,8494.444444444445
-0.385,-0.41,8497.222222222223
-0.39,-0.395,8500.0
-0.365,-0.395,8502.777777777777
-0.355,-0.385,8505.555555555555
-0.345,-0.39,8508.333333333334
-0.335,-0.41,8511.111111111111
-0.34,-0.42,8513.888888888889
-0.345,-0.435,8516.666666666666
-0.36,-0.455,8519.444444444445
-0.36,-0.46,8522.222222222223
-0.38,-0.455,8525.0
-0.375,-0.46,8527.777777777777
-0.375,-0.45,8530.555555555555
-0.385,-0.44,8533.333333333334
-0.385,-0.43,8536.111111111111
-0.39,-0.425,8538.888888888889
-0.395,-0.43,8541.666666666666
-0.4,-0.435,8544.444444444445
-0.4,-0.44,8547.222222222223
-0.41,-0.435,8550.0
-0.415,-0.445,8552.777777777777
-0.445,-0.44,8555.555555555555
-0.455,-0.44,8558.333333333334
-0.465,-0.42,8561.111111111111
-0.47,-0.415,8563.888888888889
-0.47,-0.41,8566.666666666666
-0.455,-0.4,8569.444444444445
-0.445,-0.395,8572.222222222223
-0.45,-0.415,8575.0
-0.44,-0.4,8577.777777777777
-0.45,-0.4,8580.555555555555
-0.45,-0.405,8583.333333333334
-0.47,-0.42,8586.111111111111
-0.465,-0.425,8588.888888888889
-0.47,-0.41,8591.666666666666
-0.465,-0.425,8594.444444444445
-0.46,-0.415,8597.222222222223
-0.46,-0.42,8600.0
-0.455,-0.405,8602.777777777777
-0.45,-0.4,8605.555555555555
-0.46,-0.4,8608.333333333334
-0.46,-0.4,8611.111111111111
-0.49,-0.415,8613.888888888889
-0.52,-0.42,8616.666666666666
-0.535,-0.43,8619.444444444445
-0.52,-0.42,8622.222222222223
-0.48,-0.43,8625.0
-0.38,-0.45,8627.777777777777
-0.25,-0.47,8630.555555555555
-0.065,-0.495,8633.333333333334
0.15,-0.54,8636.111111111111
0.39,-0.575,8638.888888888889
0.63,-0.625,8641.666666666666
0.825,-0.63,8644.444444444445
0.93,-0.625,8647.222222222223
0.885,-0.6,8650.0
0.7,-0.555,8652.777777777777
0.41,-0.485,8655.555555555555
0.065,-0.42,8658.333333333334
-0.225,-0.375,8661.111111111111
-0.425,-0.33,8663.888888888889
-0.5,-0.3,8666.666666666666
-0.5,-0.3,8669.444444444445
-0.435,-0.325,8672.222222222223
-0.39,-0.36,8675.0
-0.35,-0.4,8677.777777777777
-0.335,-0.43,8680.555555555555
-0.36,-0.445,8683.333333333334
-0.37,-0.45,8686.111111111111
-0.395,-0.46,8688.888888888889
-0.41,-0.45,8691.666666666666
-0.43,-0.425,8694.444444444445
-0.435,-0.43,8697.222222222223
-0.44,-0.425,8700.0
-0.425,-0.405,8702.777777777777
-0.4,-0.405,8705.555555555555
-0.41,-0.415,8708.333333333334
-0.41,-0.41,8711.111111111111
-0.41,-0.42,8713.888888888889
-0.42,-0.425,8716.666666666666
-0.435,-0.43,8719.444444444445
-0.445,-0.43,8722.222222222223
-0.45,-0.43,8725.0
-0.455,-0.425,8727.777777777777
-0.455,-0.425,8730.555555555555
-0.455,-0.41,8733.333333333334
-0.455,-0.415,8736.111111111111
-0.43,-0.4,8738.888888888889
-0.435,-0.41,8741.666666666666
-0.435,-0.405,8744.444444444445
-0.425,-0.41,8747.222222222223
-0.42,-0.415,8750.0
-0.43,-0.43,8752.777777777777
-0.44,-0.45,8755.555555555555
-0.44,-0.43,8758.333333333334
-0.435,-0.435,8761.111111111111
-0.425,-0.425,8763.888888888889
-0.425,-0.42,8766.666666666666
-0.42,-0.42,8769.444444444445
-0.405,-0.41,8772.222222222223
-0.41,-0.425,8775.0
-0.405,-0.415,8777.777777777777
-0.395,-0.42,8780.555555555555
-0.4,-0.43,8783.333333333334
-0.4,-0.43,8786.111111111111
-0.41,-0.445,8788.888888888889
-0.42,-0.44,8791.666666666666
-0.42,-0.44,8794.444444444445
-0.405,-0.42,8797.222222222223
-0.41,-0.435,8800.0
-0.395,-0.42,8802.777777777777
-0.385,-0.415,8805.555555555555
-0.395,-0.43,8808.333333333334
-0.385,-0.425,8811.111111111111
-0.39,-0.425,8813.888888888889
-0.395,-0.43,8816.666666666666
-0.39,-0.445,8819.444444444445
-0.4,-0.45,8822.222222222223
-0.405,-0.455,8825.0
-0.405,-0.455,8827.777777777777
-0.4,-0.445,8830.555555555555
-0.395,-0.445,8833.333333333334
-0.375,-0.435,8836.111111111111
-0.375,-0.425,8838.888888888889
-0.37,-0.44,8841.666666666666
-0.37,-0.44,8844.444444444445
-0.38,-0.445,8847.222222222223
-0.39,-0.455,8850.0
-0.4,-0.47,8852.777777777777
-0.405,-0.47,8855.555555555555
-0.4,-0.475,8858.333333333334
-0.4,-0.48,8861.111111111111
-0.39,-0.465,8863.888888888889
-0.4,-0.46,8866.666666666666
-0.385,-0.455,8869.444444444445
-0.385,-0.455,8872.222222222223
-0.38,-0.455,8875.0
-0.375,-0.46,8877.777777777777
-0.39,-0.47,8880.555555555555
-0.385,-0.49,8883.333333333334
-0.4,-0.485,8886.111111111111
-0.4,-0.495,8888.888888888889
-0.4,-0.495,8891.666666666666
-0.41,-0.49,8894.444444444445
-0.395,-0.495,8897.222222222223
-0.39,-0.48,8900.0
-0.38,-0.485,8902.777777777777
-0.365,-0.47,8905.555555555555
-0.36,-0.49,8908.333333333334
-0.345,-0.485,8911.111111111111
-0.345,-0.5,8913.888888888889
-0.335,-0.505,8916.666666666666
-0.335,-0.515,8919.444444444445
-0.325,-0.51,8922.222222222223
-0.32,-0.515,8925.0
-0.325,-0.515,8927.777777777777
-0.325,-0.5,8930.555555555555
-0.305,-0.495,8933.333333333334
-0.305,-0.5,8936.111111111111
-0.3,-0.48,8938.888888888889
-0.285,-0.485,8941.666666666666
-0.285,-0.49,8944.444444444445
-0.29,-0.49,8947.222222222223
-0.305,-0.5,8950.0
-0.32,-0.5,8952.777777777777
-0.33,-0.505,8955.555555555555
-0.33,-0.495,8958.333333333334
-0.35,-0.485,8961.111111111111
-0.35,-0.475,8963.888888888889
-0.335,-0.465,8966.666666666666
-0.33,-0.455,8969.444444444445
-0.33,-0.46,8972.222222222223
-0.34,-0.46,8975.0
-0.34,-0.445,8977.777777777777
-0.355,-0.46,8980.555555555555
-0.37,-0.465,8983.333333333334
-0.38,-0.465,8986.111111111111
-0.385,-0.47,8988.888888888889
-0.39,-0.465,8991.666666666666
-0.395,-0.455,8994.444444444445
-0.385,-0.45,8997.222222222223
-0.385,-0.435,9000.0
-0.39,-0.435,9002.777777777777
-0.38,-0.42,9005.555555555555
-0.385,-0.425,9008.333333333334
-0.385,-0.42,9011.111111111111
-0.38,-0.42,9013.888888888889
-0.385,-0.43,9016.666666666666
-0.4,-0.43,9019.444444444445
-0.4,-0.44,9022.222222222223
-0.405,-0.445,9025.0
-0.405,-0.435,9027.777777777777
-0.395,-0.425,9030.555555555555
-0.39,-0.415,9033.333333333334
-0.395,-0.415,9036.111111111111
-0.38,-0.4,9038.888888888889
-0.385,-0.425,9041.666666666666
-0.39,-0.43,9044.444444444445
-0.385,-0.43,9047.222222222223
-0.405,-0.425,9050.0
-0.405,-0.43,9052.777777777777
-0.415,-0.435,9055.555555555555
-0.41,-0.43,9058.333333333334
-0.42,-0.425,9061.111111111111
-0.415,-0.415,9063.888888888889
-0.415,-0.41,9066.666666666666
-0.42,-0.405,9069.444444444445
-0.4,-0.41,9072.222222222223
-0.405,-0.405,9075.0
-0.395,-0.405,9077.777777777777
-0.4,-0.41,9080.555555555555
-0.415,-0.415,9083.333333333334
-0.415,-0.43,9086.111111111111
-0.425,-0.425,9088.888888888889
-0.425,-0.415,9091.666666666666
-0.425,-0.425,9094.444444444445
-0.425,-0.415,9097.222222222223
-0.415,-0.41,9100.0
-0.415,-0.405,9102.777777777777
-0.41,-0.385,9105.555555555555
-0.41,-0.395,9108.333333333334
-0.41,-0.405,9111.111111111111
-0.41,-0.405,9113.888888888889
-0.415,-0.42,9116.666666666666
-0.42,-0.415,9119.444444444445
-0.425,-0.42,9122.222222222223
-0.43,-0.42,9125.0
-0.435,-0.42,9127.777777777777
-0.425,-0.4,9130.555555555555
-0.425,-0.4,9133.333333333334
-0.405,-0.395,9136.111111111111
-0.4,-0.39,9138.888888888889
-0.395,-0.395,9141.666666666666
-0.375,-0.39,9144.444444444445
-0.375,-0.39,9147.222222222223
-0.365,-0.405,9150.0
-0.365,-0.4,9152.777777777777
-0.36,-0.4,9155.555555555555
-0.37,-0.41,9158.333333333334
-0.375,-0.4,9161.111111111111
-0.36,-0.395,9163.888888888889
-0.36,-0.38,9166.666666666666
-0.355,-0.375,9169.444444444445
-0.33,-0.38,9172.222222222223
-0.315,-0.385,9175.0
-0.305,-0.4,9177.777777777777
-0.305,-0.415,9180.555555555555
-0.31,-0.425,9183.333333333334
-0.32,-0.445,9186.111111111111
-0.345,-0.45,9188.888888888889
-0.355,-0.455,9191.666666666666
-0.365,-0.45,9194.444444444445
-0.36,-0.435,9197.222222222223
-0.365,-0.435,9200.0
-0.36,-0.415,9202.777777777777
-0.355,-0.42,9205.555555555555
-0.35,-0.435,9208.333333333334
-0.36,-0.42,9211.111111111111
-0.36,-0.425,9213.888888888889
-0.375,-0.43,9216.666666666666
-0.39,-0.44,9219.444444444445
-0.4,-0.435,9222.222222222223
-0.415,-0.43,9225.0
-0.43,-0.425,9227.777777777777
-0.435,-0.41,9230.555555555555
-0.445,-0.395,9233.333333333334
-0.43,-0.4,9236.111111111111
-0.435,-0.395,9238.888888888889
-0.43,-0.39,9241.666666666666
-0.435,-0.385,9244.444444444445
-0.415,-0.395,9247.222222222223
-0.425,-0.395,9250.0
-0.43,-0.415,9252.777777777777
-0.435,-0.42,9255.555555555555
-0.435,-0.415,9258.333333333334
-0.445,-0.415,9261.111111111111
-0.435,-0.41,9263.888888888889
-0.425,-0.395,9266.666666666666
-0.42,-0.39,9269.444444444445
-0.41,-0.385,9272.222222222223
-0.405,-0.395,9275.0
-0.415,-0.395,9277.777777777777
-0.425,-0.4,9280.555555555555
-0.445,-0.405,9283.333333333334
-0.48,-0.41,9286.111111111111
-0.5,-0.415,9288.888888888889
-0.5,-0.405,9291.666666666666
-0.45,-0.415,9294.444444444445
-0.355,-0.425,9297.222222222223
-0.23,-0.45,9300.0
-0.04,-0.48,9302.777777777777
0.185,-0.53,9305.555555555555
0.42,-0.585,9308.333333333334
0.655,-0.6,9311.111111111111
0.835,-0.615,9313.888888888889
0.9,-0.61,9316.666666666666
0.815,-0.58,9319.444444444445
0.59,-0.53,9322.222222222223
0.275,-0.475,9325.0
-0.045,-0.42,9327.777777777777
-0.295,-0.375,9330.555555555555
-0.44,-0.335,9333.333333333334
-0.47,-0.34,9336.111111111111
-0.415,-0.355,9338.888888888889
-0.355,-0.4,9341.666666666666
-0.295,-0.425,9344.444444444445
-0.27,-0.45,9347.222222222223
-0.27,-0.46,9350.0
-0.29,-0.475,9352.777777777777
-0.31,-0.48,9355.555555555555
-0.335,-0.445,9358.333333333334
-0.36,-0.43,9361.111111111111
-0.375,-0.44,9363.888888888889
-0.375,-0.42,9366.666666666666
-0.37,-0.42,9369.444444444445
-0.365,-0.405,9372.222222222223
-0.355,-0.41,9375.0
-0.365,-0.425,9377.777777777777
-0.37,-0.415,9380.555555555555
-0.37,-0.41,9383.333333333334
-0.385,-0.43,9386.111111111111
-0.39,-0.435,9388.888888888889
-0.395,-0.425,9391.666666666666
-0.405,-0.435,9394.444444444445
-0.4,-0.415,9397.222222222223
-0.395,-0.41,9400.0
-0.39,-0.405,9402.777777777777
-0.365,-0.395,9405.555555555555
-0.365,-0.4,9408.333333333334
-0.37,-0.42,9411.111111111111
-0.37,-0.415,9413.888888888889
-0.37,-0.425,9416.666666666666
-0.385,-0.43,9419.444444444445
-0.385,-0.44,9422.222222222223
-0.39,-0.435,9425.0
-0.39,-0.43,9427.777777777777
-0.385,-0.425,9430.555555555555
-0.37,-0.415,9433.333333333334
-0.36,-0.41,9436.111111111111
-0.35,-0.41,9438.888888888889
-0.35,-0.405,9441.666666666666
-0.35,-0.415,9444.444444444445
-0.35,-0.415,9447.222222222223
-0.355,-0.435,9450.0
-0.355,-0.435,9452.777777777777
-0.375,-0.45,9455.555555555555
-0.36,-0.44,9458.333333333334
-0.365,-0.44,9461.111111111111
-0.37,-0.44,9463.888888888889
-0.36,-0.42,9466.666666666666
-0.345,-0.425,9469.444444444445
-0.34,-0.415,9472.222222222223
-0.345,-0.435,9475.0
-0.34,-0.435,9477.777777777777
-0.345,-0.445,9480.555555555555
-0.34,-0.45,9483.333333333334
-0.35,-0.46,9486.111111111111
-0.37,-0.47,9488.888888888889
-0.355,-0.465,9491.666666666666
-0.36,-0.46,9494.444444444445
-0.36,-0.46,9497.222222222223
-0.355,-0.455,9500.0
-0.355,-0.445,9502.777777777777
-0.345,-0.445,9505.555555555555
-0.345,-0.45,9508.333333333334
-0.335,-0.445,9511.111111111111
-0.34,-0.455,9513.888888888889
-0.345,-0.47,9516.666666666666
-0.36,-0.47,9519.444444444445
-0.355,-0.485,9522.222222222223
-0.365,-0.485,9525.0
-0.365,-0.475,9527.777777777777
-0.36,-0.475,9530.555555555555
-0.355,-0.465,9533.333333333334
-0.345,-0.465,9536.111111111111
-0.335,-0.465,9538.888888888889
-0.335,-0.455,9541.666666666666
-0.34,-0.47,9544.444444444445
-0.345,-0.48,9547.222222222223
-0.35,-0.49,9550.0
-0.36,-0.49,9552.777777777777
-0.345,-0.5,9555.555555555555
-0.35,-0.5,9558.333333333334
-0.355,-0.505,9561.111111111111
-0.35,-0.495,9563.888888888889
-0.33,-0.49,9566.666666666666
-0.32,-0.485,9569.444444444445
-0.305,-0.475,9572.222222222223
-0.29,-0.485,9575.0
-0.275,-0.495,9577.777777777777
-0.27,-0.495,9580.555555555555
-0.265,-0.51,9583.333333333334
-0.26,-0.52,9586.111111111111
-0.27,-0.525,9588.888888888889
-0.27,-0.525,9591.666666666666
-0.265,-0.515,9594.444444444445
-0.25,-0.525,9597.222222222223
-0.245,-0.515,9600.0
-0.245,-0.5,9602.777777777777
-0.245,-0.5,9605.555555555555
-0.235,-0.49,9608.333333333334
-0.235,-0.49,9611.111111111111
-0.245,-0.5,9613.888888888889
-0.26,-0.5,9616.666666666666
-0.27,-0.51,9619.444444444445
-0.285,-0.51,9622.222222222223
-0.295,-0.5,9625.0
-0.3,-0.495,9627.777777777777
-0.3,-0.48,9630.555555555555
-0.3,-0.485,9633.333333333334
-0.3,-0.48,9636.111111111111
-0.3,-0.465,9638.888888888889
-0.3,-0.465,9641.666666666666
-0.31,-0.465,9644.444444444445
-0.305,-0.465,9647.222222222223
-0.325,-0.48,9650.0
-0.33,-0.485,9652.777777777777
-0.345,-0.475,9655.555555555555
-0.35,-0.475,9658.333333333334
-0.35,-0.47,9661.111111111111
-0.355,-0.465,9663.888888888889
-0.345,-0.45,9666.666666666666
-0.345,-0.455,9669.444444444445
-0.34,-0.445,9672.222222222223
-0.335,-0.45,9675.0
-0.345,-0.445,9677.777777777777
-0.35,-0.44,9680.555555555555
-0.36,-0.45,9683.333333333334
-0.355,-0.465,9686.111111111111
-0.365,-0.465,9688.888888888889
-0.37,-0.465,9691.666666666666
-0.375,-0.47,9694.444444444445
-0.365,-0.455,9697.222222222223
-0.365,-0.445,9700.0
-0.365,-0.435,9702.777777777777
-0.36,-0.43,9705.555555555555
-0.35,-0.44,9708.333333333334
-0.355,-0.44,9711.111111111111
-0.36,-0.435,9713.888888888889
-0.365,-0.445,9716.666666666666
-0.37,-0.445,9719.444444444445
-0.385,-0.465,9722.222222222223
-0.385,-0.455,9725.0
-0.395,-0.455,9727.777777777777
-0.385,-0.44,9730.555555555555
-0.385,-0.435,9733.333333333334
-0.365,-0.43,9736.111111111111
-0.375,-0.42,9738.888888888889
-0.365,-0.43,9741.666666666666
-0.375,-0.435,9744.444444444445
-0.38,-0.44,9747.222222222223
-0.38,-0.45,9750.0
-0.385,-0.455,9752.777777777777
-0.395,-0.455,9755.555555555555
-0.395,-0.455,9758.333333333334
-0.395,-0.45,9761.111111111111
-0.4,-0.445,9763.888888888889
-0.395,-0.445,9766.666666666666
-0.395,-0.435,9769.444444444445
-0.385,-0.425,9772.222222222223
-0.38,-0.425,9775.0
-0.385,-0.435,9777.777777777777
-0.375,-0.44,9780.555555555555
-0.4,-0.445,9783.333333333334
-0.41,-0.46,9786.111111111111
-0.41,-0.455,9788.888888888889
-0.405,-0.45,9791.666666666666
-0.415,-0.44,9794.444444444445
-0.39,-0.44,9797.222222222223
-0.385,-0.44,9800.0
-0.37,-0.42,9802.777777777777
-0.355,-0.42,9805.555555555555
-0.345,-0.42,9808.333333333334
-0.34,-0.41,9811.111111111111
-0.335,-0.415,9813.888888888889
-0.325,-0.425,9816.666666666666
-0.335,-0.425,9819.444444444445
-0.34,-0.43,9822.222222222223
-0.345,-0.43,9825.0
-0.34,-0.435,9827.777777777777
-0.335,-0.43,9830.555555555555
-0.3,-0.43,9833.333333333334
-0.295,-0.425,9836.111111111111
-0.27,-0.43,9838.888888888889
-0.275,-0.435,9841.666666666666
-0.27,-0.455,9844.444444444445
-0.285,-0.465,9847.222222222223
-0.31,-0.48,9850.0
-0.33,-0.495,9852.777777777777
-0.345,-0.495,9855.555555555555
-0.36,-0.5,9858.333333333334
-0.36,-0.475,9861.111111111111
-0.36,-0.48,9863.888888888889
-0.35,-0.465,9866.666666666666
-0.34,-0.46,9869.444444444445
-0.345,-0.45,9872.222222222223
-0.35,-0.45,9875.0
-0.345,-0.46,9877.777777777777
-0.355,-0.46,9880.555555555555
-0.37,-0.475,9883.333333333334
-0.39,-0.47,9886.111111111111
-0.415,-0.475,9888.888888888889
-0.43,-0.465,9891.666666666666
-0.44,-0.45,9894.444444444445
-0.45,-0.45,9897.222222222223
-0.445,-0.445,9900.0
-0.435,-0.43,9902.777777777777
-0.415,-0.435,9905.555555555555
-0.42,-0.435,9908.333333333334
-0.415,-0.435,9911.111111111111
-0.42,-0.43,9913.888888888889
-0.425,-0.445,9916.666666666666
-0.42,-0.45,9919.444444444445
-0.42,-0.46,9922.222222222223
-0.425,-0.45,9925.0
-0.43,-0.455,9927.777777777777
-0.42,-0.445,9930.555555555555
-0.42,-0.44,9933.333333333334
-0.41,-0.425,9936.111111111111
-0.405,-0.425,9938.888888888889
-0.405,-0.44,9941.666666666666
-0.41,-0.43,9944.444444444445
-0.42,-0.44,9947.222222222223
-0.445,-0.43,9950.0
-0.475,-0.44,9952.777777777777
-0.485,-0.44,9955.555555555555
-0.485,-0.445,9958.333333333334
-0.44,-0.45,9961.111111111111
-0.35,-0.45,9963.888888888889
-0.215,-0.49,9966.666666666666
-0.08,-0.52,9969.444444444445
0.105,-0.55,9972.222222222223
0.295,-0.605,9975.0
0.515,-0.65,9977.777777777777
0.695,-0.67,9980.555555555555
0.83,-0.685,9983.333333333334
0.85,-0.67,9986.111111111111
0.745,-0.635,9988.888888888889
0.53,-0.6,9991.666666666666
0.245,-0.54,9994.444444444445
-0.04,-0.475,9997.222222222223
-0.26,-0.425,10000.0
-0.38,-0.39,10002.777777777777
-0.415,-0.375,10005.555555555555
-0.38,-0.405,10008.333333333334
-0.32,-0.44,10011.111111111111
-0.28,-0.48,10013.888888888889
-0.27,-0.485,10016.666666666666
-0.265,-0.51,10019.444444444445
-0.29,-0.505,10022.222222222223
-0.305,-0.51,10025.0
-0.345,-0.5,10027.777777777777
-0.36,-0.47,10030.555555555555
-0.37,-0.465,10033.333333333334
-0.37,-0.455,10036.111111111111
-0.37,-0.445,10038.888888888889
-0.375,-0.45,10041.666666666666
-0.365,-0.455,10044.444444444445
-0.37,-0.45,10047.222222222223
-0.38,-0.465,10050.0
-0.38,-0.45,10052.777777777777
-0.4,-0.46,10055.555555555555
-0.4,-0.465,10058.333333333334
-0.405,-0.465,10061.111111111111
-0.4,-0.455,10063.888888888889
-0.405,-0.445,10066.666666666666
-0.395,-0.43,10069.444444444445
-0.4,-0.43,10072.222222222223
-0.39,-0.435,10075.0
-0.395,-0.44,10077.777777777777
-0.385,-0.45,10080.555555555555
-0.385,-0.46,10083.333333333334
-0.39,-0.465,10086.111111111111
-0.385,-0.46,10088.888888888889
-0.39,-0.465,10091.666666666666
-0.39,-0.46,10094.444444444445
-0.395,-0.455,10097.222222222223
-0.385,-0.455,10100.0
-0.375,-0.44,10102.777777777777
-0.37,-0.445,10105.555555555555
-0.37,-0.445,10108.333333333334
-0.36,-0.445,10111.111111111111
-0.36,-0.445,10113.888888888889
-0.365,-0.46,10116.666666666666
-0.37,-0.465,10119.444444444445
-0.38,-0.47,10122.222222222223
-0.375,-0.475,10125.0
-0.375,-0.47,10127.777777777777
-0.365,-0.46,10130.555555555555
-0.375,-0.45,10133.333333333334
-0.37,-0.45,10136.111111111111
-0.36,-0.455,10138.888888888889
-0.34,-0.455,10141.666666666666
-0.335,-0.465,10144.444444444445
-0.335,-0.47,10147.222222222223
-0.34,-0.47,10150.0
-0.345,-0.485,10152.777777777777
-0.35,-0.48,10155.555555555555
-0.355,-0.485,10158.333333333334
-0.36,-0.49,10161.111111111111
-0.35,-0.485,10163.888888888889
-0.345,-0.475,10166.666666666666
-0.345,-0.475,10169.444444444445
-0.34,-0.46,10172.222222222223
-0.325,-0.46,10175.0
-0.325,-0.475,10177.777777777777
-0.33,-0.485,10180.555555555555
-0.335,-0.495,10183.333333333334
-0.345,-0.495,10186.111111111111
-0.345,-0.5,10188.888888888889
-0.35,-0.505,10191.666666666666
-0.35,-0.495,10194.444444444445
-0.34,-0.5,10197.222222222223
-0.335,-0.49,10200.0
-0.33,-0.49,10202.777777777777
-0.315,-0.48,10205.555555555555
-0.325,-0.49,10208.333333333334
-0.32,-0.49,10211.111111111111
-0.315,-0.5,10213.888888888889
-0.33,-0.505,10216.666666666666
-0.335,-0.51,10219.444444444445
-0.33,-0.525,10222.222222222223
-0.325,-0.525,10225.0
-0.335,-0.52,10227.777777777777
-0.33,-0.51,10230.555555555555
-0.32,-0.515,10233.333333333334
-0.33,-0.5,10236.111111111111
-0.315,-0.5,10238.888888888889
-0.3,-0.5,10241.666666666666
-0.3,-0.515,10244.444444444445
-0.3,-0.52,10247.222222222223
-0.29,-0.53,10250.0
-0.29,-0.535,10252.777777777777
-0.27,-0.54,10255.555555555555
-0.265,-0.56,10258.333333333334
-0.27,-0.545,10261.111111111111
-0.26,-0.545,10263.888888888889
-0.245,-0.545,10266.666666666666
-0.24,-0.535,10269.444444444445
-0.235,-0.53,10272.222222222223
-0.215,-0.53,10275.0
-0.21,-0.53,10277.777777777777
-0.22,-0.54,10280.555555555555
-0.22,-0.545,10283.333333333334
-0.235,-0.55,10286.111111111111
-0.235,-0.545,10288.888888888889
-0.255,-0.545,10291.666666666666
-0.26,-0.545,10294.444444444445
-0.26,-0.535,10297.222222222223
-0.26,-0.535,10300.0
-0.26,-0.515,10302.777777777777
-0.265,-0.495,10305.555555555555
-0.26,-0.495,10308.333333333334
-0.265,-0.495,10311.111111111111
-0.27,-0.5,10313.888888888889
-0.285,-0.505,10316.666666666666
-0.29,-0.51,10319.444444444445
-0.3,-0.51,10322.222222222223
-0.31,-0.5,10325.0
-0.325,-0.495,10327.777777777777
-0.325,-0.495,10330.555555555555
-0.32,-0.485,10333.333333333334
-0.32,-0.47,10336.111111111111
-0.31,-0.465,10338.888888888889
-0.31,-0.46,10341.666666666666
-0.31,-0.465,10344.444444444445
-0.315,-0.475,10347.222222222223
-0.32,-0.47,10350.0
-0.33,-0.485,10352.777777777777
-0.33,-0.49,10355.555555555555
-0.34,-0.48,10358.333333333334
-0.335,-0.48,10361.111111111111
-0.345,-0.475,10363.888888888889
-0.335,-0.475,10366.666666666666
-0.335,-0.46,10369.444444444445
-0.325,-0.455,10372.222222222223
-0.32,-0.46,10375.0
-0.32,-0.445,10377.777777777777
-0.33,-0.46,10380.555555555555
-0.33,-0.46,10383.333333333334
-0.34,-0.475,10386.111111111111
-0.35,-0.48,10388.888888888889
-0.35,-0.48,10391.666666666666
-0.355,-0.465,10394.444444444445
-0.345,-0.465,10397.222222222223
-0.345,-0.45,10400.0
-0.35,-0.45,10402.777777777777
-0.335,-0.445,10405.555555555555
-0.34,-0.44,10408.333333333334
-0.34,-0.445,10411.111111111111
-0.34,-0.46,10413.888888888889
-0.355,-0.46,10416.666666666666
-0.36,-0.48,10419.444444444445
-0.37,-0.475,10422.222222222223
-0.375,-0.47,10425.0
-0.38,-0.465,10427.777777777777
-0.375,-0.47,10430.555555555555
-0.365,-0.455,10433.333333333334
-0.37,-0.45,10436.111111111111
-0.36,-0.44,10438.888888888889
-0.36,-0.44,10441.666666666666
-0.36,-0.44,10444.444444444445
-0.36,-0.46,10447.222222222223
-0.365,-0.46,10450.0
-0.375,-0.455,10452.777777777777
-0.385,-0.47,10455.555555555555
-0.39,-0.47,10458.333333333334
-0.39,-0.465,10461.111111111111
-0.385,-0.46,10463.888888888889
-0.375,-0.455,10466.666666666666
-0.38,-0.445,10469.444444444445
-0.36,-0.44,10472.222222222223
-0.365,-0.435,10475.0
-0.365,-0.43,10477.777777777777
-0.35,-0.445,10480.555555555555
-0.355,-0.445,10483.333333333334
-0.355,-0.46,10486.111111111111
-0.36,-0.465,10488.888888888889
-0.355,-0.47,10491.666666666666
-0.355,-0.455,10494.444444444445
-0.345,-0.45,10497.222222222223
-0.33,-0.445,10500.0
-0.315,-0.44,10502.777777777777
-0.305,-0.44,10505.555555555555
-0.295,-0.43,10508.333333333334
-0.3,-0.42,10511.111111111111
-0.295,-0.43,10513.888888888889
-0.3,-0.44,10516.666666666666
-0.29,-0.455,10519.444444444445
-0.285,-0.47,10522.222222222223
-0.275,-0.475,10525.0
-0.28,-0.485,10527.777777777777
-0.285,-0.49,10530.555555555555
-0.29,-0.48,10533.333333333334
-0.305,-0.495,10536.111111111111
-0.305,-0.49,10538.888888888889
-0.31,-0.485,10541.666666666666
-0.33,-0.49,10544.444444444445
-0.33,-0.49,10547.222222222223
-0.345,-0.5,10550.0
-0.335,-0.505,10552.777777777777
-0.35,-0.515,10555.555555555555
-0.36,-0.52,10558.333333333334
-0.36,-0.505,10561.111111111111
-0.36,-0.505,10563.888888888889
-0.365,-0.49,10566.666666666666
-0.365,-0.475,10569.444444444445
-0.37,-0.465,10572.222222222223
-0.385,-0.45,10575.0
-0.385,-0.455,10577.777777777777
-0.4,-0.455,10580.555555555555
-0.41,-0.455,10583.333333333334
-0.415,-0.46,10586.111111111111
-0.42,-0.465,10588.888888888889
-0.425,-0.475,10591.666666666666
-0.42,-0.47,10594.444444444445
-0.425,-0.465,10597.222222222223
-0.41,-0.45,10600.0
-0.415,-0.445,10602.777777777777
-0.4,-0.44,10605.555555555555
-0.4,-0.44,10608.333333333334
-0.4,-0.445,10611.111111111111
-0.4,-0.45,10613.888888888889
-0.405,-0.45,10616.666666666666
-0.405,-0.46,10619.444444444445
-0.415,-0.46,10622.222222222223
-0.42,-0.47,10625.0
-0.43,-0.465,10627.777777777777
-0.44,-0.47,10630.555555555555
-0.46,-0.455,10633.333333333334
-0.47,-0.44,10636.111111111111
-0.465,-0.435,10638.888888888889
-0.44,-0.43,10641.666666666666
-0.375,-0.455,10644.444444444445
-0.285,-0.48,10647.222222222223
-0.16,-0.525,10650.0
0.0,-0.585,10652.777777777777
0.195,-0.635,10655.555555555555
0.42,-0.68,10658.333333333334
0.615,-0.715,10661.111111111111
0.785,-0.725,10663.888888888889
0.845,-0.69,10666.666666666666
0.75,-0.665,10669.444444444445
0.54,-0.595,10672.222222222223
0.265,-0.545,10675.0
-0.025,-0.48,10677.777777777777
-0.245,-0.42,10680.555555555555
-0.395,-0.38,10683.333333333334
-0.44,-0.395,10686.111111111111
-0.405,-0.42,10688.888888888889
-0.35,-0.46,10691.666666666666
-0.305,-0.49,10694.444444444445
-0.285,-0.51,10697.222222222223
-0.275,-0.51,10700.0
-0.275,-0.51,10702.777777777777
-0.29,-0.49,10705.555555555555
-0.31,-0.48,10708.333333333334
-0.34,-0.47,10711.111111111111
-0.355,-0.46,10713.888888888889
-0.37,-0.475,10716.666666666666
-0.38,-0.47,10719.444444444445
-0.385,-0.49,10722.222222222223
-0.39,-0.485,10725.0
-0.395,-0.485,10727.777777777777
-0.385,-0.465,10730.555555555555
-0.385,-0.465,10733.333333333334
-0.385,-0.455,10736.111111111111
-0.385,-0.435,10738.888888888889
-0.39,-0.44,10741.666666666666
-0.38,-0.45,10744.444444444445
-0.39,-0.455,10747.222222222223
-0.39,-0.46,10750.0
-0.4,-0.465,10752.777777777777
-0.4,-0.465,10755.555555555555
-0.405,-0.475,10758.333333333334
-0.405,-0.47,10761.111111111111
-0.39,-0.465,10763.888888888889
-0.395,-0.45,10766.666666666666
-0.38,-0.46,10769.444444444445
-0.375,-0.44,10772.222222222223
-0.37,-0.445,10775.0
-0.365,-0.455,10777.777777777777
-0.355,-0.445,10780.555555555555
-0.365,-0.46,10783.333333333334
-0.365,-0.46,10786.111111111111
-0.37,-0.48,10788.888888888889
-0.375,-0.49,10791.666666666666
-0.38,-0.475,10794.444444444445
-0.375,-0.47,10797.222222222223
-0.375,-0.46,10800.0
-0.37,-0.45,10802.777777777777
-0.36,-0.45,10805.555555555555
-0.36,-0.445,10808.333333333334
-0.345,-0.46,10811.111111111111
-0.345,-0.455,10813.888888888889
-0.345,-0.475,10816.666666666666
-0.36,-0.47,10819.444444444445
-0.365,-0.48,10822.222222222223
-0.365,-0.49,10825.0
-0.37,-0.485,10827.777777777777
-0.37,-0.47,10830.555555555555
-0.365,-0.47,10833.333333333334
-0.355,-0.465,10836.111111111111
-0.35,-0.455,10838.888888888889
-0.35,-0.455,10841.666666666666
-0.35,-0.47,10844.444444444445
-0.345,-0.475,10847.222222222223
-0.35,-0.47,10850.0
-0.355,-0.495,10852.777777777777
-0.355,-0.495,10855.555555555555
-0.36,-0.49,10858.333333333334
-0.365,-0.49,10861.111111111111
-0.365,-0.495,10863.888888888889
-0.355,-0.485,10866.666666666666
-0.345,-0.485,10869.444444444445
-0.335,-0.475,10872.222222222223
-0.33,-0.48,10875.0
-0.335,-0.47,10877.777777777777
-0.335,-0.485,10880.555555555555
-0.35,-0.5,10883.333333333334
-0.355,-0.51,10886.111111111111
-0.37,-0.51,10888.888888888889
-0.365,-0.51,10891.666666666666
-0.36,-0.505,10894.444444444445
-0.36,-0.505,10897.222222222223
-0.355,-0.5,10900.0
-0.35,-0.505,10902.777777777777
-0.34,-0.485,10905.555555555555
-0.335,-0.49,10908.333333333334
-0.335,-0.5,10911.111111111111
-0.335,-0.5,10913.888888888889
-0.33,-0.51,10916.666666666666
-0.34,-0.525,10919.444444444445
-0.34,-0.53,10922.222222222223
-0.34,-0.53,10925.0
-0.355,-0.52,10927.777777777777
-0.34,-0.525,10930.555555555555
-0.34,-0.515,10933.333333333334
-0.325,-0.505,10936.111111111111
-0.305,-0.505,10938.888888888889
-0.305,-0.505,10941.666666666666
-0.29,-0.51,10944.444444444445
-0.28,-0.525,10947.222222222223
-0.28,-0.535,10950.0
-0.275,-0.545,10952.777777777777
-0.27,-0.555,10955.555555555555
-0.28,-0.555,10958.333333333334
-0.275,-0.545,10961.111111111111
-0.265,-0.55,10963.888888888889
-0.255,-0.545,10966.666666666666
-0.25,-0.545,10969.444444444445
-0.235,-0.535,10972.222222222223
-0.245,-0.53,10975.0
-0.24,-0.54,10977.777777777777
-0.245,-0.54,10980.555555555555
-0.255,-0.55,10983.333333333334
-0.27,-0.545,10986.111111111111
-0.285,-0.55,10988.888888888889
-0.29,-0.555,10991.666666666666
-0.315,-0.555,10994.444444444445
-0.31,-0.545,10997.222222222223
-0.31,-0.54,11000.0
-0.295,-0.515,11002.777777777777
-0.305,-0.515,11005.555555555555
-0.315,-0.51,11008.333333333334
-0.31,-0.51,11011.111111111111
-0.33,-0.505,11013.888888888889
-0.33,-0.51,11016.666666666666
-0.34,-0.52,11019.444444444445
-0.35,-0.515,11022.222222222223
-0.36,-0.52,11025.0
-0.36,-0.51,11027.777777777777
-0.355,-0.495,11030.555555555555
-0.365,-0.495,11033.333333333334
-0.355,-0.49,11036.111111111111
-0.345,-0.475,11038.888888888889
-0.345,-0.475,11041.666666666666
-0.345,-0.485,11044.444444444445
-0.355,-0.485,11047.222222222223
-0.36,-0.48,11050.0
-0.375,-0.49,11052.777777777777
-0.37,-0.495,11055.555555555555
-0.37,-0.5,11058.333333333334
-0.38,-0.485,11061.111111111111
-0.375,-0.49,11063.888888888889
-0.375,-0.475,11066.666666666666
-0.38,-0.47,11069.444444444445
-0.37,-0.46,11072.222222222223
-0.375,-0.465,11075.0
-0.365,-0.475,11077.777777777777
-0.365,-0.475,11080.555555555555
-0.38,-0.47,11083.333333333334
-0.375,-0.475,11086.111111111111
-0.395,-0.495,11088.888888888889
-0.4,-0.485,11091.666666666666
-0.395,-0.485,11094.444444444445
-0.395,-0.485,11097.222222222223
-0.395,-0.48,11100.0
-0.385,-0.465,11102.777777777777
-0.39,-0.45,11105.555555555555
-0.38,-0.46,11108.333333333334
-0.38,-0.465,11111.111111111111
-0.39,-0.465,11113.888888888889
-0.38,-0.46,11116.666666666666
-0.38,-0.465,11119.444444444445
-0.385,-0.48,11122.222222222223
-0.39,-0.48,11125.0
-0.395,-0.48,11127.777777777777
-0.4,-0.48,11130.555555555555
