MLII,V1,time_ms
-0.215,0.095,0.0
-0.215,0.095,2.7777777777777777
-0.215,0.095,5.555555555555555
-0.215,0.095,8.333333333333334
-0.215,0.095,11.11111111111111
-0.215,0.095,13.88888888888889
-0.215,0.095,16.666666666666668
-0.215,0.095,19.444444444444443
-0.21,0.095,22.22222222222222
-0.2,0.11,25.0
-0.19,0.1,27.77777777777778
-0.195,0.085,30.555555555555557
-0.2,0.05,33.333333333333336
-0.2,0.06,36.111111111111114
-0.175,0.09,38.888888888888886
-0.16,0.095,41.666666666666664
-0.16,0.095,44.44444444444444
-0.155,0.07,47.22222222222222
-0.175,0.045,50.0
-0.16,0.055,52.77777777777778
-0.16,0.065,55.55555555555556
-0.17,0.09,58.333333333333336
-0.155,0.09,61.111111111111114
-0.17,0.065,63.888888888888886
-0.185,0.06,66.66666666666667
-0.165,0.055,69.44444444444444
-0.175,0.065,72.22222222222223
-0.16,0.085,75.0
-0.145,0.085,77.77777777777777
-0.165,0.035,80.55555555555556
-0.195,0.01,83.33333333333333
-0.235,-0.045,86.11111111111111
-0.255,-0.07,88.88888888888889
-0.26,-0.075,91.66666666666667
-0.25,-0.115,94.44444444444444
-0.26,-0.175,97.22222222222223
-0.27,-0.235,100.0
-0.24,-0.265,102.77777777777777
-0.145,-0.25,105.55555555555556
-0.035,-0.22,108.33333333333333
0.095,-0.19,111.11111111111111
0.235,-0.18,113.88888888888889
0.315,-0.18,116.66666666666667
0.34,-0.185,119.44444444444444
0.38,-0.15,122.22222222222223
0.41,-0.06,125.0
0.48,0.115,127.77777777777777
0.59,0.375,130.55555555555554
0.71,0.675,133.33333333333334
0.795,0.94,136.11111111111111
0.815,1.08,138.88888888888889
0.775,1.135,141.66666666666666
0.71,1.185,144.44444444444446
0.655,1.225,147.22222222222223
0.58,1.28,150.0
0.485,1.305,152.77777777777777
0.37,1.305,155.55555555555554
0.215,1.29,158.33333333333334
0.02,1.22,161.11111111111111
-0.145,1.135,163.88888888888889
-0.265,1.035,166.66666666666666
-0.315,0.965,169.44444444444446
-0.345,0.9,172.22222222222223
-0.35,0.895,175.0
-0.39,0.895,177.77777777777777
-0.405,0.895,180.55555555555554
-0.465,0.905,183.33333333333334
-0.51,0.91,186.11111111111111
-0.49,0.965,188.88888888888889
-0.445,1.01,191.66666666666666
-0.39,1.04,194.44444444444446
-0.375,1.07,197.22222222222223
-0.345,1.07,200.0
-0.295,1.075,202.77777777777777
-0.23,1.065,205.55555555555554
-0.18,1.025,208.33333333333334
-0.16,0.945,211.11111111111111
-0.16,0.845,213.88888888888889
-0.2,0.725,216.66666666666666
-0.24,0.59,219.44444444444446
-0.26,0.445,222.22222222222223
-0.275,0.365,225.0
-0.275,0.255,227.77777777777777
-0.27,0.195,230.55555555555554
-0.28,0.145,233.33333333333334
-0.27,0.145,236.11111111111111
-0.265,0.125,238.88888888888889
-0.265,0.105,241.66666666666666
-0.26,0.085,244.44444444444446
-0.275,0.06,247.22222222222223
-0.285,0.045,250.0
-0.285,0.06,252.77777777777777
-0.285,0.07,255.55555555555554
-0.28,0.07,258.3333333333333
-0.285,0.035,261.1111111111111
-0.28,0.01,263.8888888888889
-0.3,0.01,266.6666666666667
-0.29,0.025,269.44444444444446
-0.29,0.05,272.22222222222223
-0.29,0.04,275.0
-0.28,0.035,277.77777777777777
-0.285,0.0,280.55555555555554
-0.3,-0.005,283.3333333333333
-0.29,0.015,286.1111111111111
-0.28,0.045,288.8888888888889
-0.26,0.045,291.6666666666667
-0.265,0.035,294.44444444444446
-0.265,0.0,297.22222222222223
-0.28,-0.015,300.0
-0.28,0.0,302.77777777777777
-0.27,0.015,305.55555555555554
-0.26,0.04,308.3333333333333
-0.265,0.035,311.1111111111111
-0.27,0.02,313.8888888888889
-0.28,-0.01,316.6666666666667
-0.285,0.0,319.44444444444446
-0.27,0.015,322.22222222222223
-0.25,0.045,325.0
-0.25,0.055,327.77777777777777
-0.255,0.03,330.55555555555554
-0.26,0.0,333.3333333333333
-0.25,-0.005,336.1111111111111
-0.24,0.025,338.8888888888889
-0.235,0.05,341.6666666666667
-0.225,0.045,344.44444444444446
-0.225,0.03,347.22222222222223
-0.24,0.01,350.0
-0.23,0.01,352.77777777777777
-0.21,0.03,355.55555555555554
-0.19,0.035,358.3333333333333
-0.19,0.055,361.1111111111111
-0.205,0.055,363.8888888888889
-0.215,0.025,366.6666666666667
-0.215,0.02,369.44444444444446
-0.195,0.035,372.22222222222223
-0.195,0.075,375.0
-0.175,0.08,377.77777777777777
-0.175,0.075,380.55555555555554
-0.18,0.045,383.3333333333333
-0.175,0.045,386.1111111111111
-0.165,0.07,388.8888888888889
-0.165,0.1,391.6666666666667
-0.135,0.115,394.44444444444446
-0.135,0.09,397.22222222222223
-0.14,0.09,400.0
-0.135,0.085,402.77777777777777
-0.13,0.11,405.55555555555554
-0.11,0.125,408.3333333333333
-0.09,0.14,411.1111111111111
-0.085,0.14,413.8888888888889
-0.1,0.125,416.6666666666667
-0.095,0.13,419.44444444444446
-0.08,0.14,422.22222222222223
-0.065,0.165,425.0
-0.065,0.18,427.77777777777777
-0.085,0.185,430.55555555555554
-0.075,0.175,433.3333333333333
-0.07,0.18,436.1111111111111
-0.055,0.18,438.8888888888889
-0.035,0.195,441.6666666666667
-0.035,0.215,444.44444444444446
-0.035,0.22,447.22222222222223
-0.035,0.215,450.0
-0.03,0.215,452.77777777777777
-0.02,0.22,455.55555555555554
-0.015,0.23,458.3333333333333
0.0,0.245,461.1111111111111
0.005,0.255,463.8888888888889
-0.005,0.26,466.6666666666667
0.01,0.26,469.44444444444446
0.035,0.265,472.22222222222223
0.05,0.275,475.0
0.05,0.295,477.77777777777777
0.05,0.29,480.55555555555554
0.045,0.29,483.3333333333333
0.04,0.295,486.1111111111111
0.035,0.295,488.8888888888889
0.07,0.305,491.6666666666667
0.07,0.315,494.44444444444446
0.07,0.32,497.22222222222223
0.065,0.315,500.0
0.075,0.32,502.77777777777777
0.07,0.32,505.55555555555554
0.08,0.34,508.3333333333333
0.1,0.35,511.1111111111111
0.095,0.36,513.8888888888889
0.085,0.345,516.6666666666666
0.08,0.34,519.4444444444445
0.095,0.35,522.2222222222222
0.105,0.37,525.0
0.125,0.375,527.7777777777778
0.125,0.37,530.5555555555555
0.125,0.37,533.3333333333334
0.11,0.38,536.1111111111111
0.13,0.385,538.8888888888889
0.15,0.39,541.6666666666666
0.145,0.405,544.4444444444445
0.14,0.395,547.2222222222222
0.115,0.405,550.0
0.11,0.41,552.7777777777778
0.125,0.4,555.5555555555555
0.14,0.405,558.3333333333334
0.145,0.42,561.1111111111111
0.135,0.415,563.8888888888889
0.13,0.425,566.6666666666666
0.125,0.43,569.4444444444445
0.125,0.435,572.2222222222222
0.14,0.43,575.0
0.14,0.44,577.7777777777778
0.135,0.435,580.5555555555555
0.13,0.45,583.3333333333334
0.14,0.46,586.1111111111111
0.145,0.46,588.8888888888889
0.15,0.465,591.6666666666666
0.14,0.46,594.4444444444445
0.125,0.47,597.2222222222222
0.115,0.48,600.0
0.115,0.49,602.7777777777778
0.13,0.495,605.5555555555555
0.12,0.49,608.3333333333334
0.115,0.49,611.1111111111111
0.115,0.5,613.8888888888889
0.1,0.51,616.6666666666666
0.09,0.525,619.4444444444445
0.1,0.53,622.2222222222222
0.11,0.535,625.0
0.105,0.54,627.7777777777778
0.09,0.55,630.5555555555555
0.075,0.57,633.3333333333334
0.08,0.565,636.1111111111111
0.085,0.585,638.8888888888889
0.11,0.58,641.6666666666666
0.105,0.58,644.4444444444445
0.1,0.58,647.2222222222222
0.085,0.6,650.0
0.09,0.61,652.7777777777778
0.105,0.63,655.5555555555555
0.095,0.635,658.3333333333334
0.095,0.615,661.1111111111111
0.08,0.625,663.8888888888889
0.07,0.62,666.6666666666666
0.06,0.65,669.4444444444445
0.07,0.66,672.2222222222222
0.09,0.645,675.0
0.09,0.635,677.7777777777778
0.09,0.64,680.5555555555555
0.085,0.63,683.3333333333334
0.075,0.655,686.1111111111111
0.085,0.66,688.8888888888889
0.105,0.655,691.6666666666666
0.115,0.645,694.4444444444445
0.105,0.63,697.2222222222222
0.11,0.64,700.0
0.11,0.645,702.7777777777778
0.12,0.65,705.5555555555555
0.13,0.64,708.3333333333334
0.145,0.605,711.1111111111111
0.135,0.61,713.8888888888889
0.125,0.61,716.6666666666666
0.125,0.63,719.4444444444445
0.135,0.64,722.2222222222222
0.135,0.635,725.0
0.15,0.625,727.7777777777778
0.145,0.61,730.5555555555555
0.145,0.61,733.3333333333334
0.145,0.635,736.1111111111111
0.16,0.65,738.8888888888889
0.165,0.64,741.6666666666666
0.175,0.63,744.4444444444445
0.17,0.62,747.2222222222222
0.165,0.61,750.0
0.175,0.625,752.7777777777778
0.165,0.64,755.5555555555555
0.195,0.63,758.3333333333334
0.195,0.625,761.1111111111111
0.185,0.59,763.8888888888889
0.185,0.59,766.6666666666666
0.19,0.605,769.4444444444445
0.2,0.62,772.2222222222222
0.225,0.625,775.0
0.22,0.605,777.7777777777778
0.205,0.555,780.5555555555555
0.185,0.525,783.3333333333334
0.18,0.515,786.1111111111111
0.185,0.525,788.8888888888889
0.19,0.51,791.6666666666666
0.19,0.475,794.4444444444445
0.19,0.41,797.2222222222222
0.2,0.365,800.0
0.21,0.375,802.7777777777778
0.275,0.395,805.5555555555555
0.335,0.435,808.3333333333334
0.39,0.45,811.1111111111111
0.405,0.465,813.8888888888889
0.405,0.475,816.6666666666666
0.395,0.49,819.4444444444445
0.42,0.53,822.2222222222222
0.42,0.565,825.0
0.405,0.565,827.7777777777778
0.355,0.56,830.5555555555555
0.285,0.515,833.3333333333334
0.2,0.52,836.1111111111111
0.11,0.5,838.8888888888889
0.01,0.52,841.6666666666666
-0.07,0.535,844.4444444444445
-0.2,0.555,847.2222222222222
-0.33,0.555,850.0
-0.465,0.54,852.7777777777778
-0.58,0.535,855.5555555555555
-0.7,0.505,858.3333333333334
-0.79,0.455,861.1111111111111
-0.87,0.395,863.8888888888889
-0.93,0.355,866.6666666666666
-0.975,0.31,869.4444444444445
-0.985,0.305,872.2222222222222
-0.965,0.305,875.0
-0.93,0.32,877.7777777777778
-0.87,0.35,880.5555555555555
-0.8,0.385,883.3333333333334
-0.705,0.42,886.1111111111111
-0.605,0.455,888.8888888888889
-0.495,0.475,891.6666666666666
-0.445,0.455,894.4444444444445
-0.445,0.4,897.2222222222222
-0.47,0.305,900.0
-0.525,0.2,902.7777777777778
-0.57,0.085,905.5555555555555
-0.63,-0.025,908.3333333333334
-0.71,-0.135,911.1111111111111
-0.8,-0.26,913.8888888888889
-0.885,-0.385,916.6666666666666
-0.94,-0.505,919.4444444444445
-0.955,-0.615,922.2222222222222
-0.975,-0.685,925.0
-0.975,-0.74,927.7777777777778
-0.975,-0.77,930.5555555555555
-0.985,-0.81,933.3333333333334
-1.0,-0.835,936.1111111111111
-0.99,-0.85,938.8888888888889
-0.985,-0.855,941.6666666666666
-0.99,-0.87,944.4444444444445
-1.005,-0.87,947.2222222222222
-0.995,-0.88,950.0
-1.005,-0.875,952.7777777777778
-1.005,-0.89,955.5555555555555
-0.995,-0.9,958.3333333333334
-0.99,-0.905,961.1111111111111
-1.01,-0.915,963.8888888888889
-1.02,-0.92,966.6666666666666
-1.025,-0.91,969.4444444444445
-1.025,-0.92,972.2222222222222
-1.02,-0.93,975.0
-1.005,-0.95,977.7777777777778
-1.025,-0.945,980.5555555555555
-1.03,-0.95,983.3333333333334
-1.03,-0.935,986.1111111111111
-1.015,-0.935,988.8888888888889
-1.015,-0.95,991.6666666666666
-1.005,-0.97,994.4444444444445
-1.015,-0.975,997.2222222222222
-1.02,-0.965,1000.0
-1.03,-0.96,1002.7777777777778
-1.015,-0.945,1005.5555555555555
-0.98,-0.96,1008.3333333333334
-0.99,-0.98,1011.1111111111111
-0.99,-0.985,1013.8888888888889
-1.0,-0.975,1016.6666666666666
-1.005,-0.955,1019.4444444444445
-0.995,-0.94,1022.2222222222222
-0.985,-0.95,1025.0
-1.01,-0.96,1027.7777777777778
-1.01,-0.975,1030.5555555555557
-0.995,-0.97,1033.3333333333333
-1.0,-0.945,1036.111111111111
-0.985,-0.925,1038.888888888889
-0.965,-0.935,1041.6666666666667
-0.96,-0.94,1044.4444444444443
-0.965,-0.935,1047.2222222222222
-0.975,-0.93,1050.0
-0.96,-0.905,1052.7777777777778
-0.94,-0.895,1055.5555555555557
-0.92,-0.885,1058.3333333333333
-0.91,-0.9,1061.111111111111
-0.91,-0.9,1063.888888888889
-0.94,-0.88,1066.6666666666667
-0.945,-0.86,1069.4444444444443
-0.915,-0.83,1072.2222222222222
-0.895,-0.83,1075.0
-0.895,-0.835,1077.7777777777778
-0.905,-0.84,1080.5555555555557
-0.885,-0.825,1083.3333333333333
-0.875,-0.795,1086.111111111111
-0.845,-0.77,1088.888888888889
-0.82,-0.76,1091.6666666666667
-0.81,-0.785,1094.4444444444443
-0.81,-0.775,1097.2222222222222
-0.82,-0.77,1100.0
-0.81,-0.75,1102.7777777777778
-0.8,-0.725,1105.5555555555557
-0.8,-0.715,1108.3333333333333
-0.79,-0.73,1111.111111111111
-0.8,-0.73,1113.888888888889
-0.79,-0.725,1116.6666666666667
-0.775,-0.69,1119.4444444444443
-0.75,-0.65,1122.2222222222222
-0.74,-0.64,1125.0
-0.725,-0.64,1127.7777777777778
-0.72,-0.66,1130.5555555555557
-0.725,-0.65,1133.3333333333333
-0.72,-0.625,1136.111111111111
-0.7,-0.58,1138.888888888889
-0.7,-0.59,1141.6666666666667
-0.7,-0.6,1144.4444444444443
-0.7,-0.6,1147.2222222222222
-0.715,-0.6,1150.0
-0.71,-0.565,1152.7777777777778
-0.675,-0.535,1155.5555555555557
-0.665,-0.515,1158.3333333333333
-0.65,-0.51,1161.111111111111
-0.65,-0.51,1163.888888888889
-0.655,-0.51,1166.6666666666667
-0.645,-0.48,1169.4444444444443
-0.63,-0.44,1172.2222222222222
-0.61,-0.425,1175.0
-0.6,-0.44,1177.7777777777778
-0.605,-0.435,1180.5555555555557
-0.605,-0.435,1183.3333333333333
-0.6,-0.41,1186.111111111111
-0.57,-0.365,1188.888888888889
-0.55,-0.365,1191.6666666666667
-0.54,-0.36,1194.4444444444443
-0.56,-0.375,1197.2222222222222
-0.55,-0.375,1200.0
-0.54,-0.35,1202.7777777777778
-0.525,-0.315,1205.5555555555557
-0.5,-0.295,1208.3333333333333
-0.5,-0.3,1211.111111111111
-0.505,-0.31,1213.888888888889
-0.5,-0.305,1216.6666666666667
-0.495,-0.29,1219.4444444444443
-0.47,-0.265,1222.2222222222222
-0.455,-0.255,1225.0
-0.45,-0.26,1227.7777777777778
-0.45,-0.26,1230.5555555555557
-0.455,-0.275,1233.3333333333333
-0.455,-0.255,1236.111111111111
-0.435,-0.22,1238.888888888889
-0.415,-0.185,1241.6666666666667
-0.405,-0.19,1244.4444444444443
-0.4,-0.205,1247.2222222222222
-0.415,-0.22,1250.0
-0.4,-0.205,1252.7777777777778
-0.41,-0.175,1255.5555555555557
-0.395,-0.16,1258.3333333333333
-0.37,-0.15,1261.111111111111
-0.38,-0.165,1263.888888888889
-0.385,-0.165,1266.6666666666667
-0.385,-0.145,1269.4444444444443
-0.375,-0.115,1272.2222222222222
-0.365,-0.095,1275.0
-0.345,-0.085,1277.7777777777778
-0.335,-0.1,1280.5555555555557
-0.345,-0.1,1283.3333333333333
-0.34,-0.09,1286.111111111111
-0.32,-0.05,1288.888888888889
-0.305,-0.025,1291.6666666666667
-0.305,-0.025,1294.4444444444443
-0.3,-0.025,1297.2222222222222
-0.305,-0.035,1300.0
-0.295,-0.025,1302.7777777777778
-0.28,0.0,1305.5555555555557
-0.265,0.04,1308.3333333333333
-0.255,0.04,1311.111111111111
-0.26,0.035,1313.888888888889
-0.28,0.015,1316.6666666666667
-0.275,0.025,1319.4444444444443
-0.27,0.045,1322.2222222222222
-0.245,0.07,1325.0
-0.25,0.085,1327.7777777777778
-0.275,0.065,1330.5555555555557
-0.275,0.055,1333.3333333333333
-0.26,0.06,1336.111111111111
-0.25,0.075,1338.888888888889
-0.23,0.09,1341.6666666666667
-0.23,0.105,1344.4444444444443
-0.235,0.1,1347.2222222222222
-0.245,0.085,1350.0
-0.24,0.095,1352.7777777777778
-0.22,0.09,1355.5555555555557
-0.205,0.11,1358.3333333333333
-0.2,0.105,1361.111111111111
-0.205,0.11,1363.888888888889
-0.22,0.105,1366.6666666666667
-0.23,0.095,1369.4444444444443
-0.215,0.1,1372.2222222222222
-0.19,0.105,1375.0
-0.2,0.125,1377.7777777777778
-0.195,0.125,1380.5555555555557
-0.215,0.125,1383.3333333333333
-0.22,0.115,1386.111111111111
-0.22,0.11,1388.888888888889
-0.2,0.125,1391.6666666666667
-0.2,0.125,1394.4444444444443
-0.205,0.13,1397.2222222222222
-0.215,0.115,1400.0
-0.21,0.125,1402.7777777777778
-0.21,0.12,1405.5555555555557
-0.185,0.13,1408.3333333333333
-0.185,0.135,1411.111111111111
-0.19,0.135,1413.888888888889
-0.19,0.13,1416.6666666666667
-0.195,0.125,1419.4444444444443
-0.175,0.12,1422.2222222222222
-0.16,0.13,1425.0
-0.17,0.135,1427.7777777777778
-0.175,0.135,1430.5555555555557
-0.175,0.13,1433.3333333333333
-0.2,0.12,1436.111111111111
-0.18,0.125,1438.888888888889
-0.175,0.13,1441.6666666666667
-0.175,0.14,1444.4444444444443
-0.175,0.145,1447.2222222222222
-0.19,0.13,1450.0
-0.2,0.13,1452.7777777777778
-0.175,0.13,1455.5555555555557
-0.175,0.125,1458.3333333333333
-0.17,0.135,1461.111111111111
-0.18,0.135,1463.888888888889
-0.185,0.14,1466.6666666666667
-0.19,0.135,1469.4444444444443
-0.185,0.13,1472.2222222222222
-0.165,0.125,1475.0
-0.145,0.13,1477.7777777777778
-0.165,0.125,1480.5555555555557
-0.165,0.13,1483.3333333333333
-0.175,0.145,1486.111111111111
-0.17,0.145,1488.888888888889
-0.16,0.125,1491.6666666666667
-0.165,0.125,1494.4444444444443
-0.17,0.135,1497.2222222222222
-0.195,0.14,1500.0
-0.19,0.14,1502.7777777777778
-0.195,0.135,1505.5555555555557
-0.165,0.13,1508.3333333333333
-0.175,0.125,1511.111111111111
-0.18,0.14,1513.888888888889
-0.19,0.13,1516.6666666666667
-0.175,0.135,1519.4444444444443
-0.17,0.125,1522.2222222222222
-0.15,0.12,1525.0
-0.155,0.14,1527.7777777777778
-0.165,0.13,1530.5555555555557
-0.16,0.135,1533.3333333333333
-0.16,0.13,1536.111111111111
-0.15,0.11,1538.888888888889
-0.14,0.115,1541.6666666666667
-0.135,0.12,1544.4444444444443
-0.145,0.135,1547.2222222222222
-0.16,0.125,1550.0
-0.18,0.12,1552.7777777777778
-0.16,0.12,1555.5555555555557
-0.16,0.125,1558.3333333333333
-0.16,0.125,1561.111111111111
-0.155,0.14,1563.888888888889
-0.16,0.14,1566.6666666666667
-0.17,0.125,1569.4444444444443
-0.16,0.125,1572.2222222222222
-0.14,0.125,1575.0
-0.14,0.13,1577.7777777777778
-0.15,0.13,1580.5555555555557
-0.155,0.125,1583.3333333333333
-0.155,0.12,1586.111111111111
-0.14,0.13,1588.888888888889
-0.13,0.13,1591.6666666666667
-0.125,0.13,1594.4444444444443
-0.145,0.135,1597.2222222222222
-0.145,0.125,1600.0
-0.15,0.125,1602.7777777777778
-0.145,0.125,1605.5555555555557
-0.13,0.135,1608.3333333333333
-0.135,0.13,1611.111111111111
-0.145,0.14,1613.888888888889
-0.16,0.125,1616.6666666666667
-0.165,0.12,1619.4444444444443
-0.15,0.13,1622.2222222222222
-0.14,0.13,1625.0
-0.14,0.135,1627.7777777777778
-0.135,0.13,1630.5555555555557
-0.14,0.12,1633.3333333333333
-0.165,0.1,1636.111111111111
-0.145,0.115,1638.888888888889
-0.125,0.13,1641.6666666666667
-0.12,0.135,1644.4444444444443
-0.135,0.125,1647.2222222222222
-0.14,0.11,1650.0
-0.14,0.11,1652.7777777777778
-0.135,0.1,1655.5555555555557
-0.13,0.12,1658.3333333333333
-0.135,0.13,1661.111111111111
-0.145,0.12,1663.888888888889
-0.15,0.115,1666.6666666666667
-0.16,0.12,1669.4444444444443
-0.15,0.11,1672.2222222222222
-0.14,0.12,1675.0
-0.135,0.125,1677.7777777777778
-0.15,0.125,1680.5555555555557
-0.15,0.115,1683.3333333333333
-0.155,0.09,1686.111111111111
-0.145,0.11,1688.888888888889
-0.135,0.115,1691.6666666666667
-0.125,0.125,1694.4444444444443
-0.135,0.125,1697.2222222222222
-0.13,0.1,1700.0
-0.135,0.085,1702.7777777777778
-0.125,0.11,1705.5555555555557
-0.105,0.125,1708.3333333333333
-0.115,0.125,1711.111111111111
-0.13,0.1,1713.888888888889
-0.14,0.085,1716.6666666666667
-0.15,0.095,1719.4444444444443
-0.13,0.11,1722.2222222222222
-0.125,0.13,1725.0
-0.13,0.115,1727.7777777777778
-0.13,0.105,1730.5555555555557
-0.14,0.085,1733.3333333333333
-0.135,0.105,1736.111111111111
-0.125,0.12,1738.888888888889
-0.12,0.135,1741.6666666666667
-0.11,0.135,1744.4444444444443
-0.125,0.1,1747.2222222222222
-0.155,0.09,1750.0
-0.15,0.095,1752.7777777777778
-0.13,0.12,1755.5555555555557
-0.105,0.13,1758.3333333333333
-0.115,0.115,1761.111111111111
-0.13,0.095,1763.888888888889
-0.125,0.075,1766.6666666666667
-0.12,0.09,1769.4444444444443
-0.12,0.12,1772.2222222222222
-0.105,0.125,1775.0
-0.11,0.12,1777.7777777777778
-0.13,0.095,1780.5555555555557
-0.135,0.075,1783.3333333333333
-0.155,0.085,1786.111111111111
-0.125,0.115,1788.888888888889
-0.125,0.12,1791.6666666666667
-0.13,0.12,1794.4444444444443
-0.13,0.1,1797.2222222222222
-0.135,0.075,1800.0
-0.13,0.085,1802.7777777777778
-0.13,0.105,1805.5555555555557
-0.1,0.115,1808.3333333333333
-0.105,0.115,1811.111111111111
-0.1,0.095,1813.888888888889
-0.115,0.075,1816.6666666666667
-0.11,0.085,1819.4444444444443
-0.11,0.11,1822.2222222222222
-0.1,0.115,1825.0
-0.1,0.115,1827.7777777777778
-0.115,0.075,1830.5555555555557
-0.12,0.075,1833.3333333333333
-0.135,0.09,1836.111111111111
-0.13,0.105,1838.888888888889
-0.105,0.13,1841.6666666666667
-0.115,0.105,1844.4444444444443
-0.12,0.07,1847.2222222222222
-0.13,0.065,1850.0
-0.135,0.105,1852.7777777777778
-0.11,0.115,1855.5555555555557
-0.1,0.12,1858.3333333333333
-0.105,0.1,1861.111111111111
-0.11,0.075,1863.888888888889
-0.12,0.06,1866.6666666666667
-0.115,0.075,1869.4444444444443
-0.095,0.1,1872.2222222222222
-0.09,0.115,1875.0
-0.09,0.105,1877.7777777777778
-0.105,0.065,1880.5555555555557
-0.105,0.06,1883.3333333333333
-0.125,0.095,1886.111111111111
-0.105,0.11,1888.888888888889
-0.1,0.105,1891.6666666666667
-0.11,0.095,1894.4444444444443
-0.12,0.06,1897.2222222222222
-0.125,0.06,1900.0
-0.14,0.085,1902.7777777777778
-0.11,0.1,1905.5555555555557
-0.105,0.1,1908.3333333333333
-0.1,0.085,1911.111111111111
-0.105,0.06,1913.888888888889
-0.12,0.055,1916.6666666666667
-0.105,0.09,1919.4444444444443
-0.11,0.095,1922.2222222222222
-0.095,0.085,1925.0
-0.1,0.075,1927.7777777777778
-0.105,0.055,1930.5555555555557
-0.11,0.05,1933.3333333333333
-0.115,0.07,1936.111111111111
-0.1,0.095,1938.888888888889
-0.085,0.095,1941.6666666666667
-0.09,0.07,1944.4444444444443
-0.11,0.06,1947.2222222222222
-0.115,0.055,1950.0
-0.115,0.085,1952.7777777777778
-0.12,0.105,1955.5555555555557
-0.1,0.095,1958.3333333333333
-0.105,0.07,1961.111111111111
-0.11,0.05,1963.888888888889
-0.115,0.06,1966.6666666666667
-0.105,0.08,1969.4444444444443
-0.1,0.09,1972.2222222222222
-0.08,0.08,1975.0
-0.08,0.06,1977.7777777777778
-0.095,0.055,1980.5555555555557
-0.095,0.05,1983.3333333333333
-0.1,0.07,1986.111111111111
-0.085,0.09,1988.888888888889
-0.08,0.08,1991.6666666666667
-0.085,0.065,1994.4444444444443
-0.095,0.035,1997.2222222222222
-0.11,0.04,2000.0
-0.12,0.055,2002.7777777777778
-0.12,0.075,2005.5555555555557
-0.095,0.065,2008.3333333333333
-0.09,0.055,2011.111111111111
-0.115,0.03,2013.888888888889
-0.115,0.045,2016.6666666666667
-0.115,0.065,2019.4444444444443
-0.1,0.07,2022.2222222222222
-0.105,0.075,2025.0
-0.095,0.035,2027.7777777777778
-0.095,0.025,2030.5555555555557
-0.1,0.05,2033.3333333333333
-0.105,0.065,2036.111111111111
-0.09,0.065,2038.888888888889
-0.075,0.065,2041.6666666666667
-0.08,0.04,2044.4444444444443
-0.1,0.025,2047.2222222222222
-0.1,0.05,2050.0
-0.095,0.055,2052.777777777778
-0.095,0.055,2055.5555555555557
-0.095,0.05,2058.3333333333335
-0.105,0.04,2061.1111111111113
-0.1,0.035,2063.8888888888887
-0.12,0.04,2066.6666666666665
-0.115,0.055,2069.4444444444443
-0.095,0.07,2072.222222222222
-0.08,0.065,2075.0
-0.08,0.035,2077.777777777778
-0.095,0.035,2080.5555555555557
-0.12,0.035,2083.3333333333335
-0.095,0.05,2086.1111111111113
-0.105,0.06,2088.8888888888887
-0.08,0.055,2091.6666666666665
-0.085,0.025,2094.4444444444443
-0.08,0.025,2097.222222222222
-0.095,0.025,2100.0
-0.09,0.055,2102.777777777778
-0.085,0.05,2105.5555555555557
-0.08,0.045,2108.3333333333335
-0.07,0.015,2111.1111111111113
-0.09,0.015,2113.8888888888887
-0.105,0.035,2116.6666666666665
-0.115,0.045,2119.4444444444443
-0.095,0.055,2122.222222222222
-0.095,0.04,2125.0
-0.085,0.015,2127.777777777778
-0.11,0.015,2130.5555555555557
-0.11,0.035,2133.3333333333335
-0.11,0.05,2136.1111111111113
-0.095,0.045,2138.8888888888887
-0.075,0.05,2141.6666666666665
-0.07,0.015,2144.4444444444443
-0.085,0.015,2147.222222222222
-0.095,0.03,2150.0
-0.09,0.03,2152.777777777778
-0.08,0.05,2155.5555555555557
-0.065,0.05,2158.3333333333335
-0.06,0.015,2161.1111111111113
-0.075,0.005,2163.8888888888887
-0.09,0.02,2166.6666666666665
-0.095,0.04,2169.4444444444443
-0.1,0.04,2172.222222222222
-0.085,0.03,2175.0
-0.085,0.02,2177.777777777778
-0.09,0.01,2180.5555555555557
-0.085,0.01,2183.3333333333335
-0.105,0.03,2186.1111111111113
-0.085,0.045,2188.8888888888887
-0.08,0.035,2191.6666666666665
-0.08,0.01,2194.4444444444443
-0.09,0.005,2197.222222222222
-0.09,0.01,2200.0
-0.1,0.035,2202.777777777778
-0.08,0.055,2205.5555555555557
-0.075,0.045,2208.3333333333335
-0.07,0.03,2211.1111111111113
-0.075,0.02,2213.8888888888887
-0.085,0.04,2216.6666666666665
-0.085,0.05,2219.4444444444443
-0.07,0.07,2222.222222222222
-0.065,0.065,2225.0
-0.07,0.05,2227.777777777778
-0.075,0.035,2230.5555555555557
-0.08,0.035,2233.3333333333335
-0.085,0.06,2236.1111111111113
-0.07,0.075,2238.8888888888887
-0.07,0.065,2241.6666666666665
-0.055,0.025,2244.4444444444443
-0.07,0.005,2247.222222222222
-0.065,0.01,2250.0
-0.075,0.015,2252.777777777778
-0.07,0.03,2255.5555555555557
-0.055,0.025,2258.3333333333335
-0.055,-0.01,2261.1111111111113
-0.06,-0.035,2263.8888888888887
-0.095,-0.045,2266.6666666666665
-0.13,-0.055,2269.4444444444443
-0.13,-0.08,2272.222222222222
-0.115,-0.12,2275.0
-0.105,-0.165,2277.777777777778
-0.115,-0.23,2280.5555555555557
-0.125,-0.26,2283.3333333333335
-0.085,-0.275,2286.1111111111113
-0.015,-0.28,2288.8888888888887
0.095,-0.265,2291.6666666666665
0.225,-0.27,2294.4444444444443
0.315,-0.295,2297.222222222222
0.385,-0.285,2300.0
0.415,-0.24,2302.777777777778
0.465,-0.18,2305.5555555555557
0.515,-0.085,2308.3333333333335
0.615,0.135,2311.1111111111113
0.75,0.43,2313.8888888888887
0.865,0.755,2316.6666666666665
0.9,0.97,2319.4444444444443
0.875,1.075,2322.222222222222
0.82,1.115,2325.0
0.75,1.135,2327.777777777778
0.675,1.175,2330.5555555555557
0.59,1.21,2333.3333333333335
0.455,1.23,2336.1111111111113
0.3,1.22,2338.8888888888887
0.115,1.16,2341.6666666666665
-0.06,1.045,2344.4444444444443
-0.16,0.92,2347.222222222222
-0.235,0.84,2350.0
-0.25,0.815,2352.777777777778
-0.255,0.83,2355.5555555555557
-0.29,0.835,2358.3333333333335
-0.305,0.82,2361.1111111111113
-0.365,0.795,2363.8888888888887
-0.385,0.825,2366.6666666666665
-0.34,0.895,2369.4444444444443
-0.275,0.965,2372.222222222222
-0.245,0.985,2375.0
-0.19,0.985,2377.777777777778
-0.16,0.955,2380.5555555555557
-0.1,0.935,2383.3333333333335
-0.06,0.91,2386.1111111111113
-0.05,0.855,2388.8888888888887
-0.03,0.755,2391.6666666666665
-0.065,0.6,2394.4444444444443
-0.105,0.455,2397.222222222222
-0.15,0.315,2400.0
-0.17,0.22,2402.777777777778
-0.165,0.165,2405.5555555555557
-0.145,0.125,2408.3333333333335
-0.155,0.07,2411.1111111111113
-0.16,0.005,2413.8888888888887
-0.19,-0.01,2416.6666666666665
-0.17,-0.01,2419.4444444444443
-0.16,-0.005,2422.222222222222
-0.15,-0.01,2425.0
-0.15,-0.02,2427.777777777778
-0.155,-0.06,2430.5555555555557
-0.17,-0.065,2433.3333333333335
-0.175,-0.06,2436.1111111111113
-0.15,-0.05,2438.8888888888887
-0.155,-0.035,2441.6666666666665
-0.145,-0.04,2444.4444444444443
-0.155,-0.07,2447.222222222222
-0.17,-0.08,2450.0
-0.16,-0.075,2452.777777777778
-0.165,-0.05,2455.5555555555557
-0.15,-0.04,2458.3333333333335
-0.155,-0.05,2461.1111111111113
-0.165,-0.08,2463.8888888888887
-0.18,-0.095,2466.6666666666665
-0.17,-0.09,2469.4444444444443
-0.17,-0.08,2472.222222222222
-0.155,-0.055,2475.0
-0.155,-0.065,2477.777777777778
-0.165,-0.075,2480.5555555555557
-0.165,-0.105,2483.3333333333335
-0.18,-0.1,2486.1111111111113
-0.16,-0.08,2488.8888888888887
-0.135,-0.07,2491.6666666666665
-0.135,-0.05,2494.4444444444443
-0.14,-0.1,2497.222222222222
-0.165,-0.1,2500.0
-0.145,-0.1,2502.777777777778
-0.125,-0.075,2505.5555555555557
-0.115,-0.055,2508.3333333333335
-0.12,-0.06,2511.1111111111113
-0.125,-0.07,2513.8888888888887
-0.14,-0.105,2516.6666666666665
-0.125,-0.075,2519.4444444444443
-0.115,-0.065,2522.222222222222
-0.095,-0.045,2525.0
-0.105,-0.04,2527.777777777778
-0.11,-0.08,2530.5555555555557
-0.115,-0.08,2533.3333333333335
-0.115,-0.07,2536.1111111111113
-0.1,-0.035,2538.8888888888887
-0.08,-0.025,2541.6666666666665
-0.08,-0.03,2544.4444444444443
-0.085,-0.055,2547.222222222222
-0.075,-0.07,2550.0
-0.075,-0.06,2552.777777777778
-0.065,-0.02,2555.5555555555557
-0.035,-0.015,2558.3333333333335
-0.035,-0.015,2561.1111111111113
-0.06,-0.03,2563.8888888888887
-0.065,-0.03,2566.6666666666665
-0.045,-0.025,2569.4444444444443
-0.03,0.01,2572.222222222222
-0.015,0.035,2575.0
-0.02,0.035,2577.777777777778
-0.03,0.01,2580.5555555555557
-0.04,0.0,2583.3333333333335
-0.04,0.025,2586.1111111111113
-0.02,0.055,2588.8888888888887
-0.01,0.065,2591.6666666666665
0.01,0.055,2594.4444444444443
-0.015,0.045,2597.222222222222
0.0,0.04,2600.0
0.005,0.065,2602.777777777778
0.01,0.095,2605.5555555555557
0.04,0.12,2608.3333333333335
0.04,0.105,2611.1111111111113
0.045,0.07,2613.8888888888887
0.04,0.07,2616.6666666666665
0.065,0.105,2619.4444444444443
0.085,0.13,2622.222222222222
0.1,0.145,2625.0
0.09,0.13,2627.777777777778
0.085,0.11,2630.5555555555557
0.075,0.115,2633.3333333333335
0.07,0.13,2636.1111111111113
0.09,0.165,2638.8888888888887
0.085,0.18,2641.6666666666665
0.095,0.16,2644.4444444444443
0.1,0.145,2647.222222222222
0.105,0.145,2650.0
0.115,0.175,2652.777777777778
0.125,0.21,2655.5555555555557
0.135,0.21,2658.3333333333335
0.145,0.195,2661.1111111111113
0.14,0.18,2663.8888888888887
0.12,0.185,2666.6666666666665
0.125,0.21,2669.4444444444443
0.15,0.23,2672.222222222222
0.175,0.23,2675.0
0.175,0.22,2677.777777777778
0.16,0.205,2680.5555555555557
0.155,0.215,2683.3333333333335
0.15,0.24,2686.1111111111113
0.17,0.26,2688.8888888888887
0.18,0.26,2691.6666666666665
0.18,0.25,2694.4444444444443
0.175,0.225,2697.222222222222
0.155,0.245,2700.0
0.16,0.265,2702.777777777778
0.18,0.285,2705.5555555555557
0.195,0.285,2708.3333333333335
0.195,0.265,2711.1111111111113
0.19,0.255,2713.8888888888887
0.175,0.265,2716.6666666666665
0.185,0.295,2719.4444444444443
0.2,0.32,2722.222222222222
0.21,0.305,2725.0
0.195,0.28,2727.777777777778
0.19,0.28,2730.5555555555557
0.195,0.295,2733.3333333333335
0.185,0.325,2736.1111111111113
0.2,0.34,2738.8888888888887
0.2,0.335,2741.6666666666665
0.19,0.32,2744.4444444444443
0.175,0.305,2747.222222222222
0.17,0.335,2750.0
0.165,0.36,2752.777777777778
0.175,0.375,2755.5555555555557
0.18,0.36,2758.3333333333335
0.175,0.34,2761.1111111111113
0.165,0.335,2763.8888888888887
0.155,0.36,2766.6666666666665
0.16,0.38,2769.4444444444443
0.155,0.405,2772.222222222222
0.165,0.385,2775.0
0.16,0.385,2777.777777777778
0.155,0.415,2780.5555555555557
0.13,0.44,2783.3333333333335
0.165,0.465,2786.1111111111113
0.16,0.45,2788.8888888888887
0.17,0.44,2791.6666666666665
0.145,0.44,2794.4444444444443
0.135,0.46,2797.222222222222
0.13,0.48,2800.0
0.135,0.495,2802.777777777778
0.145,0.485,2805.5555555555557
0.135,0.48,2808.3333333333335
0.13,0.465,2811.1111111111113
0.13,0.485,2813.8888888888887
0.135,0.51,2816.6666666666665
0.135,0.52,2819.4444444444443
0.15,0.5,2822.222222222222
0.14,0.485,2825.0
0.125,0.48,2827.777777777778
0.13,0.5,2830.5555555555557
0.14,0.515,2833.3333333333335
0.155,0.51,2836.1111111111113
0.165,0.5,2838.8888888888887
0.17,0.485,2841.6666666666665
0.165,0.49,2844.4444444444443
0.15,0.49,2847.222222222222
0.165,0.505,2850.0
0.165,0.51,2852.777777777778
0.175,0.5,2855.5555555555557
0.17,0.48,2858.3333333333335
0.15,0.485,2861.1111111111113
0.165,0.49,2863.8888888888887
0.16,0.505,2866.6666666666665
0.175,0.515,2869.4444444444443
0.195,0.49,2872.222222222222
0.205,0.485,2875.0
0.195,0.47,2877.777777777778
0.19,0.485,2880.5555555555557
0.205,0.515,2883.3333333333335
0.21,0.51,2886.1111111111113
0.225,0.495,2888.8888888888887
0.23,0.49,2891.6666666666665
0.23,0.485,2894.4444444444443
0.22,0.495,2897.222222222222
0.24,0.515,2900.0
0.255,0.515,2902.777777777778
0.275,0.495,2905.5555555555557
0.27,0.49,2908.3333333333335
0.255,0.485,2911.1111111111113
0.235,0.475,2913.8888888888887
0.22,0.47,2916.6666666666665
0.24,0.465,2919.4444444444443
0.23,0.44,2922.222222222222
0.21,0.395,2925.0
0.16,0.37,2927.777777777778
0.15,0.355,2930.5555555555557
0.16,0.35,2933.3333333333335
0.16,0.35,2936.1111111111113
0.185,0.35,2938.8888888888887
0.175,0.345,2941.6666666666665
0.145,0.345,2944.4444444444443
0.13,0.325,2947.222222222222
0.13,0.32,2950.0
0.14,0.32,2952.777777777778
0.155,0.32,2955.5555555555557
0.15,0.345,2958.3333333333335
0.1,0.35,2961.1111111111113
0.035,0.355,2963.8888888888887
-0.075,0.335,2966.6666666666665
-0.195,0.345,2969.4444444444443
-0.31,0.34,2972.222222222222
-0.415,0.355,2975.0
-0.5,0.36,2977.777777777778
-0.625,0.325,2980.5555555555557
-0.785,0.23,2983.3333333333335
-0.945,0.155,2986.1111111111113
-1.0,0.08,2988.8888888888887
-1.055,0.02,2991.6666666666665
-1.08,-0.025,2994.4444444444443
-1.11,-0.065,2997.222222222222
-1.145,-0.1,3000.0
-1.145,-0.11,3002.777777777778
-1.09,-0.07,3005.5555555555557
-1.005,-0.005,3008.3333333333335
-0.95,0.055,3011.1111111111113
-0.92,0.11,3013.8888888888887
-0.895,0.135,3016.6666666666665
-0.87,0.155,3019.4444444444443
-0.83,0.17,3022.222222222222
-0.805,0.17,3025.0
-0.805,0.14,3027.777777777778
-0.83,0.06,3030.5555555555557
-0.845,-0.03,3033.3333333333335
-0.84,-0.16,3036.1111111111113
-0.84,-0.31,3038.8888888888887
-0.84,-0.465,3041.6666666666665
-0.86,-0.62,3044.4444444444443
-0.885,-0.765,3047.222222222222
-0.885,-0.865,3050.0
-0.87,-0.915,3052.777777777778
-0.84,-0.945,3055.5555555555557
-0.835,-0.96,3058.3333333333335
-0.845,-0.995,3061.1111111111113
-0.86,-1.025,3063.8888888888887
-0.865,-1.03,3066.6666666666665
-0.855,-1.04,3069.4444444444443
-0.855,-1.025,3072.222222222222
-0.85,-1.025,3075.0
-0.865,-1.055,3077.777777777778
-0.885,-1.065,3080.5555555555557
-0.89,-1.075,3083.3333333333335
-0.875,-1.075,3086.1111111111113
-0.855,-1.075,3088.8888888888887
-0.855,-1.07,3091.6666666666665
-0.865,-1.065,3094.4444444444443
-0.88,-1.085,3097.222222222222
-0.88,-1.09,3100.0
-0.875,-1.085,3102.777777777778
-0.85,-1.08,3105.5555555555557
-0.86,-1.08,3108.3333333333335
-0.865,-1.1,3111.1111111111113
-0.865,-1.11,3113.8888888888887
-0.88,-1.11,3116.6666666666665
-0.86,-1.09,3119.4444444444443
-0.83,-1.085,3122.222222222222
-0.835,-1.09,3125.0
-0.845,-1.11,3127.777777777778
-0.86,-1.115,3130.5555555555557
-0.85,-1.115,3133.3333333333335
-0.83,-1.09,3136.1111111111113
-0.81,-1.065,3138.8888888888887
-0.81,-1.07,3141.6666666666665
-0.83,-1.09,3144.4444444444443
-0.82,-1.1,3147.222222222222
-0.815,-1.08,3150.0
-0.8,-1.055,3152.777777777778
-0.775,-1.03,3155.5555555555557
-0.77,-1.045,3158.3333333333335
-0.77,-1.05,3161.1111111111113
-0.77,-1.055,3163.8888888888887
-0.755,-1.035,3166.6666666666665
-0.745,-1.005,3169.4444444444443
-0.72,-0.98,3172.222222222222
-0.73,-0.98,3175.0
-0.73,-1.0,3177.777777777778
-0.72,-0.995,3180.5555555555557
-0.72,-0.975,3183.3333333333335
-0.69,-0.94,3186.1111111111113
-0.685,-0.915,3188.8888888888887
-0.66,-0.925,3191.6666666666665
-0.68,-0.94,3194.4444444444443
-0.675,-0.945,3197.222222222222
-0.665,-0.9,3200.0
-0.64,-0.87,3202.777777777778
-0.615,-0.83,3205.5555555555557
-0.62,-0.84,3208.3333333333335
-0.62,-0.855,3211.1111111111113
-0.625,-0.845,3213.8888888888887
-0.62,-0.81,3216.6666666666665
-0.595,-0.77,3219.4444444444443
-0.58,-0.75,3222.222222222222
-0.575,-0.77,3225.0
-0.565,-0.775,3227.777777777778
-0.57,-0.755,3230.5555555555557
-0.545,-0.725,3233.3333333333335
-0.525,-0.68,3236.1111111111113
-0.5,-0.675,3238.8888888888887
-0.505,-0.675,3241.6666666666665
-0.485,-0.685,3244.4444444444443
-0.475,-0.67,3247.222222222222
-0.475,-0.635,3250.0
-0.455,-0.61,3252.777777777778
-0.435,-0.605,3255.5555555555557
-0.445,-0.62,3258.3333333333335
-0.455,-0.63,3261.1111111111113
-0.435,-0.605,3263.8888888888887
-0.425,-0.56,3266.6666666666665
-0.41,-0.525,3269.4444444444443
-0.385,-0.535,3272.222222222222
-0.38,-0.535,3275.0
-0.37,-0.54,3277.777777777778
-0.365,-0.52,3280.5555555555557
-0.36,-0.48,3283.3333333333335
-0.335,-0.47,3286.1111111111113
-0.31,-0.455,3288.8888888888887
-0.32,-0.475,3291.6666666666665
-0.325,-0.475,3294.4444444444443
-0.335,-0.46,3297.222222222222
-0.32,-0.425,3300.0
-0.31,-0.395,3302.777777777778
-0.31,-0.385,3305.5555555555557
-0.28,-0.405,3308.3333333333335
-0.29,-0.4,3311.1111111111113
-0.285,-0.385,3313.8888888888887
-0.28,-0.345,3316.6666666666665
-0.255,-0.31,3319.4444444444443
-0.235,-0.305,3322.222222222222
-0.24,-0.33,3325.0
-0.255,-0.315,3327.777777777778
-0.26,-0.295,3330.5555555555557
-0.24,-0.265,3333.3333333333335
-0.22,-0.255,3336.1111111111113
-0.195,-0.255,3338.8888888888887
-0.205,-0.265,3341.6666666666665
-0.215,-0.27,3344.4444444444443
-0.22,-0.235,3347.222222222222
-0.215,-0.22,3350.0
-0.22,-0.21,3352.777777777778
-0.21,-0.215,3355.5555555555557
-0.21,-0.23,3358.3333333333335
-0.225,-0.215,3361.1111111111113
-0.225,-0.2,3363.8888888888887
-0.22,-0.175,3366.6666666666665
-0.205,-0.145,3369.4444444444443
-0.205,-0.145,3372.222222222222
-0.21,-0.18,3375.0
-0.21,-0.165,3377.777777777778
-0.225,-0.145,3380.5555555555557
-0.235,-0.13,3383.3333333333335
-0.205,-0.105,3386.1111111111113
-0.2,-0.11,3388.8888888888887
-0.19,-0.115,3391.6666666666665
-0.2,-0.095,3394.4444444444443
-0.215,-0.075,3397.222222222222
-0.21,-0.055,3400.0
-0.195,-0.055,3402.777777777778
-0.195,-0.055,3405.5555555555557
-0.2,-0.06,3408.3333333333335
-0.21,-0.05,3411.1111111111113
-0.22,-0.025,3413.8888888888887
-0.215,-0.005,3416.6666666666665
-0.215,0.0,3419.4444444444443
-0.21,-0.01,3422.222222222222
-0.2,-0.01,3425.0
-0.22,-0.005,3427.777777777778
-0.225,0.015,3430.5555555555557
-0.23,0.035,3433.3333333333335
-0.21,0.025,3436.1111111111113
-0.2,0.025,3438.8888888888887
-0.2,0.02,3441.6666666666665
-0.205,0.025,3444.4444444444443
-0.21,0.04,3447.222222222222
-0.2,0.055,3450.0
-0.2,0.05,3452.777777777778
-0.19,0.035,3455.5555555555557
-0.19,0.04,3458.3333333333335
-0.205,0.035,3461.1111111111113
-0.21,0.055,3463.8888888888887
-0.22,0.07,3466.6666666666665
-0.2,0.065,3469.4444444444443
-0.195,0.055,3472.222222222222
-0.2,0.045,3475.0
-0.205,0.055,3477.777777777778
-0.22,0.065,3480.5555555555557
-0.215,0.065,3483.3333333333335
-0.205,0.075,3486.1111111111113
-0.205,0.06,3488.8888888888887
-0.2,0.05,3491.6666666666665
-0.205,0.055,3494.4444444444443
-0.21,0.07,3497.222222222222
-0.205,0.08,3500.0
-0.19,0.075,3502.777777777778
-0.175,0.07,3505.5555555555557
-0.18,0.075,3508.3333333333335
-0.185,0.07,3511.1111111111113
-0.2,0.08,3513.8888888888887
-0.195,0.09,3516.6666666666665
-0.19,0.085,3519.4444444444443
-0.185,0.08,3522.222222222222
-0.2,0.08,3525.0
-0.205,0.09,3527.777777777778
-0.215,0.095,3530.5555555555557
-0.22,0.09,3533.3333333333335
-0.19,0.095,3536.1111111111113
-0.185,0.095,3538.8888888888887
-0.175,0.115,3541.6666666666665
-0.18,0.11,3544.4444444444443
-0.185,0.1,3547.222222222222
-0.195,0.1,3550.0
-0.175,0.11,3552.777777777778
-0.165,0.105,3555.5555555555557
-0.165,0.12,3558.3333333333335
-0.175,0.105,3561.1111111111113
-0.19,0.1,3563.8888888888887
-0.185,0.105,3566.6666666666665
-0.17,0.11,3569.4444444444443
-0.17,0.12,3572.222222222222
-0.18,0.13,3575.0
-0.185,0.12,3577.777777777778
-0.195,0.115,3580.5555555555557
-0.195,0.12,3583.3333333333335
-0.185,0.11,3586.1111111111113
-0.17,0.12,3588.8888888888887
-0.17,0.13,3591.6666666666665
-0.175,0.13,3594.4444444444443
-0.185,0.12,3597.222222222222
-0.185,0.12,3600.0
-0.17,0.125,3602.777777777778
-0.16,0.13,3605.5555555555557
-0.18,0.135,3608.3333333333335
-0.175,0.13,3611.1111111111113
-0.17,0.125,3613.8888888888887
-0.175,0.115,3616.6666666666665
-0.17,0.125,3619.4444444444443
-0.145,0.14,3622.222222222222
-0.15,0.145,3625.0
-0.17,0.145,3627.777777777778
-0.18,0.13,3630.5555555555557
-0.175,0.13,3633.3333333333335
-0.18,0.14,3636.1111111111113
-0.18,0.15,3638.8888888888887
-0.165,0.16,3641.6666666666665
-0.19,0.145,3644.4444444444443
-0.18,0.12,3647.222222222222
-0.195,0.13,3650.0
-0.18,0.145,3652.777777777778
-0.16,0.16,3655.5555555555557
-0.175,0.165,3658.3333333333335
-0.185,0.145,3661.1111111111113
-0.185,0.13,3663.8888888888887
-0.18,0.13,3666.6666666666665
-0.16,0.155,3669.4444444444443
-0.155,0.175,3672.222222222222
-0.17,0.16,3675.0
-0.165,0.135,3677.777777777778
-0.175,0.125,3680.5555555555557
-0.17,0.14,3683.3333333333335
-0.175,0.155,3686.1111111111113
-0.165,0.175,3688.8888888888887
-0.165,0.17,3691.6666666666665
-0.175,0.15,3694.4444444444443
-0.19,0.14,3697.222222222222
-0.175,0.15,3700.0
-0.17,0.16,3702.777777777778
-0.17,0.17,3705.5555555555557
-0.175,0.17,3708.3333333333335
-0.18,0.155,3711.1111111111113
-0.185,0.14,3713.8888888888887
-0.185,0.15,3716.6666666666665
-0.165,0.165,3719.4444444444443
-0.155,0.18,3722.222222222222
-0.16,0.165,3725.0
-0.155,0.145,3727.777777777778
-0.16,0.135,3730.5555555555557
-0.16,0.15,3733.3333333333335
-0.15,0.17,3736.1111111111113
-0.16,0.19,3738.8888888888887
-0.155,0.185,3741.6666666666665
-0.17,0.15,3744.4444444444443
-0.175,0.145,3747.222222222222
-0.185,0.165,3750.0
-0.17,0.195,3752.777777777778
-0.175,0.18,3755.5555555555557
-0.175,0.165,3758.3333333333335
-0.185,0.165,3761.1111111111113
-0.185,0.14,3763.8888888888887
-0.175,0.175,3766.6666666666665
-0.17,0.19,3769.4444444444443
-0.16,0.195,3772.222222222222
-0.17,0.18,3775.0
-0.17,0.15,3777.777777777778
-0.175,0.15,3780.5555555555557
-0.185,0.18,3783.3333333333335
-0.165,0.21,3786.1111111111113
-0.155,0.2,3788.8888888888887
-0.18,0.18,3791.6666666666665
-0.175,0.155,3794.4444444444443
-0.185,0.16,3797.222222222222
-0.18,0.175,3800.0
-0.18,0.21,3802.777777777778
-0.175,0.2,3805.5555555555557
-0.17,0.185,3808.3333333333335
-0.18,0.155,3811.1111111111113
-0.2,0.175,3813.8888888888887
-0.195,0.195,3816.6666666666665
-0.17,0.215,3819.4444444444443
-0.16,0.205,3822.222222222222
-0.165,0.2,3825.0
-0.185,0.16,3827.777777777778
-0.175,0.175,3830.5555555555557
-0.16,0.205,3833.3333333333335
-0.16,0.225,3836.1111111111113
-0.155,0.215,3838.8888888888887
-0.15,0.19,3841.6666666666665
-0.16,0.175,3844.4444444444443
-0.17,0.17,3847.222222222222
-0.165,0.2,3850.0
-0.155,0.215,3852.777777777778
-0.16,0.215,3855.5555555555557
-0.155,0.195,3858.3333333333335
-0.165,0.17,3861.1111111111113
-0.18,0.175,3863.8888888888887
-0.185,0.21,3866.6666666666665
-0.165,0.225,3869.4444444444443
-0.165,0.215,3872.222222222222
-0.155,0.19,3875.0
-0.17,0.17,3877.777777777778
-0.175,0.19,3880.5555555555557
-0.165,0.215,3883.3333333333335
-0.16,0.23,3886.1111111111113
-0.15,0.205,3888.8888888888887
-0.145,0.195,3891.6666666666665
-0.155,0.19,3894.4444444444443
-0.165,0.2,3897.222222222222
-0.165,0.23,3900.0
-0.15,0.235,3902.777777777778
-0.15,0.21,3905.5555555555557
-0.165,0.205,3908.3333333333335
-0.18,0.19,3911.1111111111113
-0.185,0.215,3913.8888888888887
-0.18,0.23,3916.6666666666665
-0.16,0.24,3919.4444444444443
-0.155,0.23,3922.222222222222
-0.15,0.205,3925.0
-0.17,0.195,3927.777777777778
-0.18,0.215,3930.5555555555557
-0.175,0.235,3933.3333333333335
-0.16,0.23,3936.1111111111113
-0.145,0.215,3938.8888888888887
-0.155,0.195,3941.6666666666665
-0.15,0.195,3944.4444444444443
-0.17,0.225,3947.222222222222
-0.16,0.23,3950.0
-0.155,0.23,3952.777777777778
-0.16,0.21,3955.5555555555557
-0.155,0.205,3958.3333333333335
-0.155,0.215,3961.1111111111113
-0.17,0.225,3963.8888888888887
-0.175,0.235,3966.6666666666665
-0.165,0.24,3969.4444444444443
-0.155,0.225,3972.222222222222
-0.165,0.205,3975.0
-0.165,0.22,3977.777777777778
-0.185,0.23,3980.5555555555557
-0.19,0.23,3983.3333333333335
-0.17,0.235,3986.1111111111113
-0.165,0.23,3988.8888888888887
-0.165,0.215,3991.6666666666665
-0.175,0.215,3994.4444444444443
-0.185,0.225,3997.222222222222
-0.19,0.24,4000.0
-0.17,0.24,4002.777777777778
-0.15,0.225,4005.5555555555557
-0.14,0.21,4008.3333333333335
-0.16,0.21,4011.1111111111113
-0.175,0.23,4013.8888888888887
-0.165,0.24,4016.6666666666665
-0.17,0.235,4019.4444444444443
-0.155,0.215,4022.222222222222
-0.165,0.22,4025.0
-0.18,0.22,4027.777777777778
-0.185,0.23,4030.5555555555557
-0.185,0.245,4033.3333333333335
-0.175,0.235,4036.1111111111113
-0.165,0.23,4038.8888888888887
-0.165,0.215,4041.6666666666665
-0.165,0.22,4044.4444444444443
-0.18,0.23,4047.222222222222
-0.175,0.245,4050.0
-0.17,0.23,4052.777777777778
-0.155,0.235,4055.5555555555557
-0.15,0.22,4058.3333333333335
-0.16,0.23,4061.1111111111113
-0.165,0.25,4063.8888888888887
-0.16,0.25,4066.6666666666665
-0.155,0.245,4069.4444444444443
-0.155,0.23,4072.222222222222
-0.155,0.225,4075.0
-0.165,0.24,4077.777777777778
-0.18,0.245,4080.5555555555557
-0.185,0.245,4083.3333333333335
-0.175,0.245,4086.1111111111113
-0.145,0.24,4088.8888888888887
-0.155,0.23,4091.6666666666665
-0.165,0.24,4094.4444444444443
-0.18,0.245,4097.222222222223
-0.175,0.255,4100.0
-0.16,0.245,4102.777777777777
-0.15,0.24,4105.555555555556
-0.16,0.225,4108.333333333333
-0.17,0.225,4111.111111111111
-0.16,0.24,4113.888888888889
-0.155,0.265,4116.666666666667
-0.135,0.25,4119.444444444444
-0.16,0.235,4122.222222222223
-0.155,0.225,4125.0
-0.16,0.24,4127.777777777777
-0.17,0.25,4130.555555555556
-0.17,0.26,4133.333333333333
-0.16,0.26,4136.111111111111
-0.17,0.24,4138.888888888889
-0.165,0.235,4141.666666666667
-0.175,0.245,4144.444444444444
-0.18,0.245,4147.222222222223
-0.185,0.26,4150.0
-0.175,0.26,4152.777777777777
-0.16,0.245,4155.555555555556
-0.155,0.245,4158.333333333333
-0.175,0.25,4161.111111111111
-0.17,0.26,4163.888888888889
-0.17,0.265,4166.666666666667
-0.155,0.265,4169.444444444444
-0.145,0.255,4172.222222222223
-0.155,0.24,4175.0
-0.155,0.255,4177.777777777777
-0.16,0.27,4180.555555555556
-0.15,0.26,4183.333333333333
-0.145,0.27,4186.111111111111
-0.14,0.255,4188.888888888889
-0.15,0.245,4191.666666666667
-0.17,0.255,4194.444444444444
-0.18,0.255,4197.222222222223
-0.18,0.26,4200.0
-0.165,0.26,4202.777777777777
-0.145,0.255,4205.555555555556
-0.155,0.25,4208.333333333333
-0.18,0.265,4211.111111111111
-0.17,0.265,4213.888888888889
-0.165,0.27,4216.666666666667
-0.165,0.265,4219.444444444444
-0.145,0.255,4222.222222222223
-0.16,0.255,4225.0
-0.185,0.27,4227.777777777777
-0.17,0.265,4230.555555555556
-0.155,0.265,4233.333333333333
-0.145,0.275,4236.111111111111
-0.13,0.26,4238.888888888889
-0.135,0.26,4241.666666666667
-0.15,0.265,4244.444444444444
-0.16,0.275,4247.222222222223
-0.155,0.285,4250.0
-0.14,0.285,4252.777777777777
-0.145,0.27,4255.555555555556
-0.145,0.275,4258.333333333333
-0.15,0.27,4261.111111111111
-0.16,0.285,4263.888888888889
-0.155,0.285,4266.666666666667
-0.145,0.295,4269.444444444444
-0.14,0.27,4272.222222222223
-0.155,0.27,4275.0
-0.155,0.275,4277.777777777777
-0.165,0.295,4280.555555555556
-0.15,0.305,4283.333333333333
-0.145,0.295,4286.111111111111
-0.14,0.29,4288.888888888889
-0.15,0.29,4291.666666666667
-0.165,0.29,4294.444444444444
-0.175,0.3,4297.222222222223
-0.165,0.31,4300.0
-0.135,0.295,4302.777777777777
-0.135,0.295,4305.555555555556
-0.145,0.29,4308.333333333333
-0.16,0.29,4311.111111111111
-0.16,0.31,4313.888888888889
-0.155,0.3,4316.666666666667
-0.14,0.31,4319.444444444444
-0.13,0.29,4322.222222222223
-0.135,0.27,4325.0
-0.145,0.27,4327.777777777777
-0.15,0.28,4330.555555555556
-0.155,0.31,4333.333333333333
-0.145,0.3,4336.111111111111
-0.125,0.295,4338.888888888889
-0.12,0.285,4341.666666666667
-0.13,0.285,4344.444444444444
-0.135,0.3,4347.222222222223
-0.13,0.295,4350.0
-0.115,0.295,4352.777777777777
-0.11,0.265,4355.555555555556
-0.125,0.255,4358.333333333333
-0.165,0.25,4361.111111111111
-0.195,0.23,4363.888888888889
-0.225,0.19,4366.666666666667
-0.24,0.15,4369.444444444444
-0.23,0.095,4372.222222222223
-0.24,0.06,4375.0
-0.22,0.035,4377.777777777777
-0.165,0.015,4380.555555555556
-0.055,0.01,4383.333333333333
0.08,0.015,4386.111111111111
0.21,0.045,4388.888888888889
0.3,0.04,4391.666666666667
0.33,0.07,4394.444444444444
0.355,0.115,4397.222222222223
0.41,0.22,4400.0
0.54,0.435,4402.777777777777
0.69,0.78,4405.555555555556
0.775,1.095,4408.333333333333
0.775,1.275,4411.111111111111
0.72,1.325,4413.888888888889
0.665,1.345,4416.666666666667
0.615,1.4,4419.444444444444
0.54,1.475,4422.222222222223
0.415,1.515,4425.0
0.245,1.51,4427.777777777777
0.04,1.445,4430.555555555556
-0.12,1.37,4433.333333333333
-0.22,1.28,4436.111111111111
-0.26,1.2,4438.888888888889
-0.285,1.15,4441.666666666667
-0.335,1.135,4444.444444444444
-0.36,1.14,4447.222222222223
-0.395,1.125,4450.0
-0.425,1.135,4452.777777777777
-0.415,1.15,4455.555555555556
-0.385,1.19,4458.333333333333
-0.36,1.25,4461.111111111111
-0.335,1.285,4463.888888888889
-0.3,1.28,4466.666666666667
-0.245,1.28,4469.444444444444
-0.18,1.285,4472.222222222223
-0.14,1.255,4475.0
-0.135,1.215,4477.777777777777
-0.125,1.12,4480.555555555556
-0.14,1.005,4483.333333333333
-0.18,0.87,4486.111111111111
-0.205,0.73,4488.888888888889
-0.23,0.605,4491.666666666667
-0.25,0.495,4494.444444444444
-0.245,0.435,4497.222222222223
-0.24,0.375,4500.0
-0.23,0.345,4502.777777777777
-0.21,0.33,4505.555555555556
-0.22,0.32,4508.333333333333
-0.23,0.295,4511.111111111111
-0.23,0.29,4513.888888888889
-0.23,0.285,4516.666666666667
-0.22,0.27,4519.444444444444
-0.21,0.275,4522.222222222223
-0.22,0.27,4525.0
-0.225,0.27,4527.777777777777
-0.235,0.26,4530.555555555556
-0.23,0.255,4533.333333333333
-0.225,0.265,4536.111111111111
-0.23,0.245,4538.888888888889
-0.235,0.26,4541.666666666667
-0.245,0.265,4544.444444444444
-0.25,0.255,4547.222222222223
-0.245,0.23,4550.0
-0.22,0.245,4552.777777777777
-0.215,0.26,4555.555555555556
-0.22,0.265,4558.333333333333
-0.225,0.25,4561.111111111111
-0.25,0.23,4563.888888888889
-0.23,0.23,4566.666666666667
-0.205,0.24,4569.444444444444
-0.195,0.26,4572.222222222223
-0.195,0.26,4575.0
-0.21,0.235,4577.777777777777
-0.22,0.225,4580.555555555556
-0.21,0.23,4583.333333333333
-0.19,0.265,4586.111111111111
-0.195,0.27,4588.888888888889
-0.2,0.245,4591.666666666667
-0.215,0.225,4594.444444444444
-0.2,0.225,4597.222222222223
-0.19,0.24,4600.0
-0.185,0.27,4602.777777777777
-0.175,0.285,4605.555555555556
-0.18,0.27,4608.333333333333
-0.2,0.235,4611.111111111111
-0.195,0.235,4613.888888888889
-0.18,0.265,4616.666666666667
-0.16,0.295,4619.444444444444
-0.15,0.295,4622.222222222223
-0.15,0.27,4625.0
-0.15,0.255,4627.777777777777
-0.155,0.255,4630.555555555556
-0.14,0.28,4633.333333333333
-0.125,0.31,4636.111111111111
-0.12,0.305,4638.888888888889
-0.13,0.295,4641.666666666667
-0.14,0.265,4644.444444444444
-0.145,0.27,4647.222222222223
-0.13,0.31,4650.0
-0.115,0.34,4652.777777777777
-0.105,0.34,4655.555555555556
-0.12,0.32,4658.333333333333
-0.13,0.32,4661.111111111111
-0.12,0.315,4663.888888888889
-0.1,0.355,4666.666666666667
-0.08,0.375,4669.444444444444
-0.075,0.37,4672.222222222223
-0.07,0.355,4675.0
-0.07,0.34,4677.777777777777
-0.075,0.36,4680.555555555556
-0.065,0.39,4683.333333333333
-0.04,0.41,4686.111111111111
-0.03,0.4,4688.888888888889
-0.025,0.385,4691.666666666667
-0.035,0.395,4694.444444444444
-0.045,0.4,4697.222222222223
-0.045,0.435,4700.0
-0.035,0.45,4702.777777777777
-0.01,0.435,4705.555555555556
-0.01,0.43,4708.333333333333
-0.025,0.425,4711.111111111111
-0.025,0.435,4713.888888888889
-0.02,0.47,4716.666666666667
0.005,0.475,4719.444444444444
0.01,0.48,4722.222222222223
0.02,0.47,4725.0
0.015,0.46,4727.777777777777
0.005,0.485,4730.555555555556
0.025,0.505,4733.333333333333
0.035,0.505,4736.111111111111
0.045,0.49,4738.888888888889
0.06,0.48,4741.666666666667
0.04,0.495,4744.444444444444
0.04,0.52,4747.222222222223
0.05,0.52,4750.0
0.065,0.515,4752.777777777777
0.07,0.515,4755.555555555556
0.065,0.53,4758.333333333333
0.065,0.54,4761.111111111111
0.05,0.535,4763.888888888889
0.06,0.55,4766.666666666667
0.075,0.545,4769.444444444444
0.095,0.565,4772.222222222223
0.09,0.575,4775.0
0.075,0.55,4777.777777777777
0.075,0.55,4780.555555555556
0.1,0.56,4783.333333333333
0.11,0.595,4786.111111111111
0.11,0.605,4788.888888888889
0.11,0.585,4791.666666666667
0.105,0.58,4794.444444444444
0.1,0.575,4797.222222222223
0.105,0.595,4800.0
0.1,0.62,4802.777777777777
0.11,0.61,4805.555555555556
0.115,0.595,4808.333333333333
0.1,0.6,4811.111111111111
0.095,0.615,4813.888888888889
0.095,0.64,4816.666666666667
0.1,0.64,4819.444444444444
0.095,0.63,4822.222222222223
0.095,0.615,4825.0
0.09,0.62,4827.777777777777
0.075,0.645,4830.555555555556
0.085,0.665,4833.333333333333
0.1,0.68,4836.111111111111
0.1,0.66,4838.888888888889
0.08,0.66,4841.666666666667
0.075,0.655,4844.444444444444
0.075,0.69,4847.222222222223
0.085,0.715,4850.0
0.09,0.71,4852.777777777777
0.07,0.7,4855.555555555556
0.07,0.7,4858.333333333333
0.06,0.71,4861.111111111111
0.055,0.73,4863.888888888889
0.055,0.765,4866.666666666667
0.065,0.765,4869.444444444444
0.06,0.74,4872.222222222223
0.05,0.735,4875.0
0.05,0.75,4877.777777777777
0.03,0.765,4880.555555555556
0.045,0.775,4883.333333333333
0.04,0.765,4886.111111111111
0.045,0.745,4888.888888888889
0.04,0.75,4891.666666666667
0.045,0.745,4894.444444444444
0.04,0.76,4897.222222222223
0.06,0.76,4900.0
0.07,0.765,4902.777777777777
0.07,0.76,4905.555555555556
0.055,0.74,4908.333333333333
0.05,0.74,4911.111111111111
0.045,0.735,4913.888888888889
0.04,0.75,4916.666666666667
0.055,0.755,4919.444444444444
0.065,0.74,4922.222222222223
0.05,0.72,4925.0
0.055,0.735,4927.777777777777
0.05,0.745,4930.555555555556
0.07,0.75,4933.333333333333
0.085,0.735,4936.111111111111
0.09,0.73,4938.888888888889
0.09,0.73,4941.666666666667
0.09,0.735,4944.444444444444
0.1,0.745,4947.222222222223
0.105,0.735,4950.0
0.125,0.735,4952.777777777777
0.13,0.73,4955.555555555556
0.135,0.725,4958.333333333333
0.14,0.73,4961.111111111111
0.13,0.725,4963.888888888889
0.135,0.715,4966.666666666667
0.14,0.71,4969.444444444444
0.155,0.72,4972.222222222223
0.17,0.705,4975.0
0.165,0.705,4977.777777777777
0.155,0.705,4980.555555555556
0.155,0.68,4983.333333333333
0.145,0.665,4986.111111111111
0.135,0.65,4988.888888888889
0.13,0.62,4991.666666666667
0.11,0.605,4994.444444444444
0.11,0.565,4997.222222222223
0.14,0.525,5000.0
0.16,0.495,5002.777777777777
0.185,0.48,5005.555555555556
0.21,0.48,5008.333333333333
0.195,0.48,5011.111111111111
0.215,0.51,5013.888888888889
0.22,0.53,5016.666666666667
0.225,0.565,5019.444444444444
0.205,0.595,5022.222222222223
0.15,0.595,5025.0
0.08,0.585,5027.777777777777
0.0,0.57,5030.555555555556
-0.075,0.605,5033.333333333333
-0.185,0.66,5036.111111111111
-0.28,0.71,5038.888888888889
-0.395,0.71,5041.666666666667
-0.52,0.685,5044.444444444444
-0.65,0.635,5047.222222222223
-0.72,0.59,5050.0
-0.82,0.54,5052.777777777777
-0.92,0.475,5055.555555555556
-0.995,0.405,5058.333333333333
-1.035,0.335,5061.111111111111
-1.045,0.3,5063.888888888889
-1.0,0.325,5066.666666666667
-0.95,0.37,5069.444444444444
-0.875,0.41,5072.222222222223
-0.77,0.44,5075.0
-0.695,0.445,5077.777777777777
-0.62,0.47,5080.555555555556
-0.555,0.48,5083.333333333333
-0.5,0.485,5086.111111111111
-0.485,0.445,5088.888888888889
-0.53,0.345,5091.666666666667
-0.595,0.185,5094.444444444444
-0.66,0.045,5097.222222222223
-0.71,-0.07,5100.0
-0.75,-0.165,5102.777777777777
-0.8,-0.285,5105.555555555556
-0.835,-0.41,5108.333333333333
-0.86,-0.51,5111.111111111111
-0.885,-0.6,5113.888888888889
-0.88,-0.645,5116.666666666667
-0.865,-0.67,5119.444444444444
-0.87,-0.7,5122.222222222223
-0.895,-0.745,5125.0
-0.895,-0.765,5127.777777777777
-0.905,-0.785,5130.555555555556
-0.905,-0.785,5133.333333333333
-0.895,-0.775,5136.111111111111
-0.9,-0.78,5138.888888888889
-0.905,-0.805,5141.666666666667
-0.915,-0.835,5144.444444444444
-0.91,-0.845,5147.222222222223
-0.91,-0.845,5150.0
-0.895,-0.825,5152.777777777777
-0.9,-0.83,5155.555555555556
-0.905,-0.845,5158.333333333333
-0.915,-0.88,5161.111111111111
-0.915,-0.89,5163.888888888889
-0.91,-0.87,5166.666666666667
-0.91,-0.86,5169.444444444444
-0.9,-0.85,5172.222222222223
-0.895,-0.875,5175.0
-0.91,-0.9,5177.777777777777
-0.915,-0.91,5180.555555555556
-0.91,-0.895,5183.333333333333
-0.895,-0.875,5186.111111111111
-0.885,-0.88,5188.888888888889
-0.9,-0.9,5191.666666666667
-0.9,-0.925,5194.444444444444
-0.91,-0.93,5197.222222222223
-0.885,-0.915,5200.0
-0.875,-0.895,5202.777777777777
-0.865,-0.895,5205.555555555556
-0.87,-0.92,5208.333333333333
-0.89,-0.94,5211.111111111111
-0.88,-0.94,5213.888888888889
-0.86,-0.915,5216.666666666667
-0.84,-0.89,5219.444444444444
-0.825,-0.88,5222.222222222223
-0.845,-0.895,5225.0
-0.83,-0.925,5227.777777777777
-0.835,-0.92,5230.555555555556
-0.815,-0.885,5233.333333333333
-0.81,-0.865,5236.111111111111
-0.805,-0.85,5238.888888888889
-0.8,-0.86,5241.666666666667
-0.81,-0.885,5244.444444444444
-0.82,-0.89,5247.222222222223
-0.805,-0.855,5250.0
-0.785,-0.83,5252.777777777777
-0.785,-0.815,5255.555555555556
-0.79,-0.825,5258.333333333333
-0.805,-0.83,5261.111111111111
-0.795,-0.84,5263.888888888889
-0.775,-0.805,5266.666666666667
-0.745,-0.785,5269.444444444444
-0.72,-0.76,5272.222222222223
-0.72,-0.76,5275.0
-0.715,-0.785,5277.777777777777
-0.715,-0.78,5280.555555555556
-0.705,-0.76,5283.333333333333
-0.675,-0.74,5286.111111111111
-0.675,-0.715,5288.888888888889
-0.655,-0.73,5291.666666666667
-0.685,-0.725,5294.444444444444
-0.675,-0.73,5297.222222222223
-0.665,-0.71,5300.0
-0.645,-0.67,5302.777777777777
-0.635,-0.65,5305.555555555556
-0.645,-0.65,5308.333333333333
-0.645,-0.665,5311.111111111111
-0.63,-0.665,5313.888888888889
-0.625,-0.655,5316.666666666667
-0.605,-0.63,5319.444444444444
-0.605,-0.605,5322.222222222223
-0.595,-0.615,5325.0
-0.62,-0.605,5327.777777777777
-0.61,-0.61,5330.555555555556
-0.6,-0.605,5333.333333333333
-0.57,-0.58,5336.111111111111
-0.555,-0.555,5338.888888888889
-0.555,-0.565,5341.666666666667
-0.57,-0.54,5344.444444444444
-0.57,-0.545,5347.222222222223
-0.55,-0.53,5350.0
-0.52,-0.51,5352.777777777777
-0.51,-0.485,5355.555555555556
-0.51,-0.475,5358.333333333333
-0.51,-0.475,5361.111111111111
-0.515,-0.47,5363.888888888889
-0.505,-0.46,5366.666666666667
-0.485,-0.43,5369.444444444444
-0.47,-0.4,5372.222222222223
-0.465,-0.4,5375.0
-0.485,-0.41,5377.777777777777
-0.47,-0.41,5380.555555555556
-0.45,-0.4,5383.333333333333
-0.43,-0.37,5386.111111111111
-0.415,-0.365,5388.888888888889
-0.42,-0.355,5391.666666666667
-0.42,-0.37,5394.444444444444
-0.42,-0.37,5397.222222222223
-0.4,-0.365,5400.0
-0.385,-0.34,5402.777777777777
-0.375,-0.31,5405.555555555556
-0.365,-0.315,5408.333333333333
-0.375,-0.325,5411.111111111111
-0.37,-0.325,5413.888888888889
-0.365,-0.32,5416.666666666667
-0.35,-0.295,5419.444444444444
-0.355,-0.275,5422.222222222223
-0.36,-0.28,5425.0
-0.385,-0.29,5427.777777777777
-0.37,-0.28,5430.555555555556
-0.36,-0.29,5433.333333333333
-0.34,-0.255,5436.111111111111
-0.32,-0.24,5438.888888888889
-0.33,-0.235,5441.666666666667
-0.335,-0.25,5444.444444444444
-0.34,-0.25,5447.222222222223
-0.33,-0.23,5450.0
-0.305,-0.225,5452.777777777777
-0.295,-0.19,5455.555555555556
-0.305,-0.185,5458.333333333333
-0.3,-0.19,5461.111111111111
-0.3,-0.2,5463.888888888889
-0.3,-0.18,5466.666666666667
-0.275,-0.17,5469.444444444444
-0.265,-0.14,5472.222222222223
-0.27,-0.135,5475.0
-0.285,-0.145,5477.777777777777
-0.285,-0.14,5480.555555555556
-0.27,-0.135,5483.333333333333
-0.26,-0.12,5486.111111111111
-0.25,-0.11,5488.888888888889
-0.25,-0.095,5491.666666666667
-0.255,-0.1,5494.444444444444
-0.265,-0.105,5497.222222222223
-0.26,-0.105,5500.0
-0.245,-0.075,5502.777777777777
-0.24,-0.07,5505.555555555556
-0.23,-0.07,5508.333333333333
-0.245,-0.08,5511.111111111111
-0.24,-0.075,5513.888888888889
-0.24,-0.085,5516.666666666667
-0.22,-0.075,5519.444444444444
-0.22,-0.06,5522.222222222223
-0.22,-0.065,5525.0
-0.23,-0.07,5527.777777777777
-0.225,-0.075,5530.555555555556
-0.22,-0.055,5533.333333333333
-0.23,-0.075,5536.111111111111
-0.22,-0.055,5538.888888888889
-0.23,-0.06,5541.666666666667
-0.245,-0.07,5544.444444444444
-0.245,-0.06,5547.222222222223
-0.23,-0.065,5550.0
-0.215,-0.055,5552.777777777777
-0.215,-0.07,5555.555555555556
-0.21,-0.065,5558.333333333333
-0.225,-0.06,5561.111111111111
-0.23,-0.08,5563.888888888889
-0.22,-0.07,5566.666666666667
-0.215,-0.07,5569.444444444444
-0.195,-0.065,5572.222222222223
-0.2,-0.065,5575.0
-0.21,-0.085,5577.777777777777
-0.215,-0.085,5580.555555555556
-0.205,-0.075,5583.333333333333
-0.215,-0.07,5586.111111111111
-0.2,-0.07,5588.888888888889
-0.205,-0.06,5591.666666666667
-0.22,-0.08,5594.444444444444
-0.22,-0.095,5597.222222222223
-0.215,-0.09,5600.0
-0.205,-0.08,5602.777777777777
-0.21,-0.065,5605.555555555556
-0.21,-0.075,5608.333333333333
-0.215,-0.085,5611.111111111111
-0.225,-0.09,5613.888888888889
-0.225,-0.09,5616.666666666667
-0.205,-0.09,5619.444444444444
-0.18,-0.065,5622.222222222223
-0.185,-0.065,5625.0
-0.2,-0.09,5627.777777777777
-0.19,-0.095,5630.555555555556
-0.2,-0.095,5633.333333333333
-0.175,-0.09,5636.111111111111
-0.16,-0.075,5638.888888888889
-0.185,-0.08,5641.666666666667
-0.195,-0.095,5644.444444444444
-0.205,-0.11,5647.222222222223
-0.2,-0.105,5650.0
-0.205,-0.09,5652.777777777777
-0.195,-0.09,5655.555555555556
-0.195,-0.09,5658.333333333333
-0.2,-0.11,5661.111111111111
-0.21,-0.12,5663.888888888889
-0.205,-0.105,5666.666666666667
-0.185,-0.09,5669.444444444444
-0.185,-0.085,5672.222222222223
-0.195,-0.1,5675.0
-0.19,-0.12,5677.777777777777
-0.205,-0.125,5680.555555555556
-0.19,-0.12,5683.333333333333
-0.175,-0.105,5686.111111111111
-0.165,-0.085,5688.888888888889
-0.175,-0.105,5691.666666666667
-0.185,-0.125,5694.444444444444
-0.185,-0.125,5697.222222222223
-0.2,-0.11,5700.0
-0.185,-0.1,5702.777777777777
-0.175,-0.1,5705.555555555556
-0.185,-0.115,5708.333333333333
-0.205,-0.145,5711.111111111111
-0.21,-0.145,5713.888888888889
-0.195,-0.125,5716.666666666667
-0.18,-0.1,5719.444444444444
-0.19,-0.095,5722.222222222223
-0.19,-0.135,5725.0
-0.205,-0.16,5727.777777777777
-0.2,-0.15,5730.555555555556
-0.185,-0.135,5733.333333333333
-0.18,-0.1,5736.111111111111
-0.17,-0.12,5738.888888888889
-0.175,-0.14,5741.666666666667
-0.19,-0.165,5744.444444444444
-0.195,-0.16,5747.222222222223
-0.18,-0.13,5750.0
-0.175,-0.115,5752.777777777777
-0.17,-0.12,5755.555555555556
-0.175,-0.145,5758.333333333333
-0.19,-0.165,5761.111111111111
-0.2,-0.165,5763.888888888889
-0.195,-0.145,5766.666666666667
-0.18,-0.125,5769.444444444444
-0.185,-0.13,5772.222222222223
-0.175,-0.17,5775.0
-0.195,-0.18,5777.777777777777
-0.195,-0.16,5780.555555555556
-0.185,-0.135,5783.333333333333
-0.175,-0.125,5786.111111111111
-0.175,-0.145,5788.888888888889
-0.18,-0.16,5791.666666666667
-0.18,-0.18,5794.444444444444
-0.185,-0.17,5797.222222222223
-0.175,-0.15,5800.0
-0.17,-0.135,5802.777777777777
-0.165,-0.155,5805.555555555556
-0.17,-0.175,5808.333333333333
-0.185,-0.195,5811.111111111111
-0.185,-0.175,5813.888888888889
-0.18,-0.145,5816.666666666667
-0.165,-0.145,5819.444444444444
-0.175,-0.16,5822.222222222223
-0.18,-0.185,5825.0
-0.2,-0.195,5827.777777777777
-0.2,-0.175,5830.555555555556
-0.185,-0.165,5833.333333333333
-0.175,-0.155,5836.111111111111
-0.17,-0.17,5838.888888888889
-0.175,-0.195,5841.666666666667
-0.19,-0.205,5844.444444444444
-0.2,-0.19,5847.222222222223
-0.17,-0.16,5850.0
-0.155,-0.17,5852.777777777777
-0.145,-0.18,5855.555555555556
-0.16,-0.19,5858.333333333333
-0.17,-0.215,5861.111111111111
-0.175,-0.19,5863.888888888889
-0.175,-0.165,5866.666666666667
-0.175,-0.17,5869.444444444444
-0.16,-0.185,5872.222222222223
-0.17,-0.205,5875.0
-0.18,-0.195,5877.777777777777
-0.19,-0.19,5880.555555555556
-0.17,-0.175,5883.333333333333
-0.185,-0.185,5886.111111111111
-0.165,-0.2,5888.888888888889
-0.165,-0.215,5891.666666666667
-0.175,-0.215,5894.444444444444
-0.185,-0.195,5897.222222222223
-0.165,-0.185,5900.0
-0.15,-0.185,5902.777777777777
-0.15,-0.21,5905.555555555556
-0.155,-0.22,5908.333333333333
-0.16,-0.21,5911.111111111111
-0.175,-0.205,5913.888888888889
-0.165,-0.185,5916.666666666667
-0.15,-0.2,5919.444444444444
-0.165,-0.205,5922.222222222223
-0.17,-0.23,5925.0
-0.175,-0.215,5927.777777777777
-0.18,-0.205,5930.555555555556
-0.175,-0.195,5933.333333333333
-0.155,-0.195,5936.111111111111
-0.165,-0.22,5938.888888888889
-0.175,-0.22,5941.666666666667
-0.17,-0.225,5944.444444444444
-0.19,-0.215,5947.222222222223
-0.185,-0.205,5950.0
-0.17,-0.205,5952.777777777777
-0.16,-0.23,5955.555555555556
-0.165,-0.225,5958.333333333333
-0.175,-0.22,5961.111111111111
-0.175,-0.205,5963.888888888889
-0.15,-0.21,5966.666666666667
-0.15,-0.205,5969.444444444444
-0.15,-0.225,5972.222222222223
-0.155,-0.235,5975.0
-0.165,-0.22,5977.777777777777
-0.18,-0.21,5980.555555555556
-0.18,-0.21,5983.333333333333
-0.165,-0.21,5986.111111111111
-0.17,-0.23,5988.888888888889
-0.165,-0.23,5991.666666666667
-0.175,-0.23,5994.444444444444
-0.185,-0.215,5997.222222222223
-0.175,-0.225,6000.0
-0.165,-0.215,6002.777777777777
-0.165,-0.245,6005.555555555556
-0.185,-0.23,6008.333333333333
-0.185,-0.245,6011.111111111111
-0.175,-0.22,6013.888888888889
-0.155,-0.23,6016.666666666667
-0.145,-0.225,6019.444444444444
-0.16,-0.23,6022.222222222223
-0.17,-0.245,6025.0
-0.16,-0.245,6027.777777777777
-0.17,-0.23,6030.555555555556
-0.17,-0.215,6033.333333333333
-0.155,-0.23,6036.111111111111
-0.155,-0.23,6038.888888888889
-0.16,-0.255,6041.666666666667
-0.165,-0.255,6044.444444444444
-0.185,-0.245,6047.222222222223
-0.18,-0.21,6050.0
-0.165,-0.225,6052.777777777777
-0.17,-0.24,6055.555555555556
-0.185,-0.24,6058.333333333333
-0.175,-0.24,6061.111111111111
-0.175,-0.245,6063.888888888889
-0.175,-0.22,6066.666666666667
-0.17,-0.225,6069.444444444444
-0.165,-0.235,6072.222222222223
-0.17,-0.24,6075.0
-0.17,-0.265,6077.777777777777
-0.175,-0.24,6080.555555555556
-0.15,-0.22,6083.333333333333
-0.15,-0.225,6086.111111111111
-0.15,-0.24,6088.888888888889
-0.165,-0.265,6091.666666666667
-0.175,-0.26,6094.444444444444
-0.195,-0.235,6097.222222222223
-0.165,-0.22,6100.0
-0.165,-0.215,6102.777777777777
-0.155,-0.24,6105.555555555556
-0.165,-0.255,6108.333333333333
-0.185,-0.255,6111.111111111111
-0.175,-0.245,6113.888888888889
-0.165,-0.225,6116.666666666667
-0.155,-0.225,6119.444444444444
-0.155,-0.235,6122.222222222223
-0.16,-0.255,6125.0
-0.16,-0.26,6127.777777777777
-0.175,-0.255,6130.555555555556
-0.16,-0.23,6133.333333333333
-0.15,-0.23,6136.111111111111
-0.145,-0.225,6138.888888888889
-0.145,-0.25,6141.666666666667
-0.155,-0.27,6144.444444444444
-0.155,-0.26,6147.222222222223
-0.155,-0.235,6150.0
-0.15,-0.215,6152.777777777777
-0.145,-0.235,6155.555555555556
-0.17,-0.26,6158.333333333333
-0.175,-0.275,6161.111111111111
-0.185,-0.25,6163.888888888889
-0.175,-0.235,6166.666666666667
-0.16,-0.225,6169.444444444444
-0.15,-0.235,6172.222222222223
-0.17,-0.26,6175.0
-0.175,-0.27,6177.777777777777
-0.17,-0.26,6180.555555555556
-0.16,-0.245,6183.333333333333
-0.15,-0.21,6186.111111111111
-0.145,-0.23,6188.888888888889
-0.15,-0.255,6191.666666666667
-0.165,-0.28,6194.444444444444
-0.165,-0.255,6197.222222222223
-0.165,-0.24,6200.0
-0.145,-0.225,6202.777777777777
-0.14,-0.23,6205.555555555556
-0.155,-0.26,6208.333333333333
-0.17,-0.27,6211.111111111111
-0.175,-0.265,6213.888888888889
-0.155,-0.24,6216.666666666667
-0.155,-0.22,6219.444444444444
-0.155,-0.235,6222.222222222223
-0.16,-0.25,6225.0
-0.16,-0.275,6227.777777777777
-0.165,-0.255,6230.555555555556
-0.16,-0.25,6233.333333333333
-0.145,-0.23,6236.111111111111
-0.15,-0.225,6238.888888888889
-0.155,-0.255,6241.666666666667
-0.18,-0.27,6244.444444444444
-0.165,-0.265,6247.222222222223
-0.15,-0.245,6250.0
-0.14,-0.225,6252.777777777777
-0.145,-0.24,6255.555555555556
-0.145,-0.25,6258.333333333333
-0.15,-0.275,6261.111111111111
-0.165,-0.26,6263.888888888889
-0.17,-0.25,6266.666666666667
-0.145,-0.225,6269.444444444444
-0.14,-0.23,6272.222222222223
-0.145,-0.245,6275.0
-0.17,-0.27,6277.777777777777
-0.16,-0.27,6280.555555555556
-0.155,-0.255,6283.333333333333
-0.15,-0.24,6286.111111111111
-0.14,-0.225,6288.888888888889
-0.17,-0.235,6291.666666666667
-0.18,-0.265,6294.444444444444
-0.175,-0.27,6297.222222222223
-0.17,-0.255,6300.0
-0.15,-0.235,6302.777777777777
-0.145,-0.23,6305.555555555556
-0.17,-0.245,6308.333333333333
-0.175,-0.255,6311.111111111111
-0.17,-0.26,6313.888888888889
-0.145,-0.255,6316.666666666667
-0.135,-0.235,6319.444444444444
-0.135,-0.225,6322.222222222223
-0.14,-0.225,6325.0
-0.15,-0.245,6327.777777777777
-0.165,-0.26,6330.555555555556
-0.17,-0.25,6333.333333333333
-0.165,-0.245,6336.111111111111
-0.15,-0.225,6338.888888888889
-0.165,-0.23,6341.666666666667
-0.17,-0.245,6344.444444444444
-0.175,-0.25,6347.222222222223
-0.165,-0.25,6350.0
-0.15,-0.24,6352.777777777777
-0.145,-0.235,6355.555555555556
-0.155,-0.235,6358.333333333333
-0.165,-0.245,6361.111111111111
-0.17,-0.25,6363.888888888889
-0.155,-0.245,6366.666666666667
-0.14,-0.235,6369.444444444444
-0.135,-0.225,6372.222222222223
-0.15,-0.23,6375.0
-0.15,-0.245,6377.777777777777
-0.155,-0.26,6380.555555555556
-0.14,-0.245,6383.333333333333
-0.135,-0.23,6386.111111111111
-0.135,-0.22,6388.888888888889
-0.15,-0.22,6391.666666666667
-0.165,-0.235,6394.444444444444
-0.175,-0.245,6397.222222222223
-0.165,-0.225,6400.0
-0.145,-0.22,6402.777777777777
-0.15,-0.205,6405.555555555556
-0.17,-0.21,6408.333333333333
-0.17,-0.215,6411.111111111111
-0.16,-0.21,6413.888888888889
-0.14,-0.22,6416.666666666667
-0.13,-0.205,6419.444444444444
-0.115,-0.185,6422.222222222223
-0.12,-0.19,6425.0
-0.125,-0.2,6427.777777777777
-0.135,-0.205,6430.555555555556
-0.115,-0.23,6433.333333333333
-0.095,-0.21,6436.111111111111
-0.1,-0.225,6438.888888888889
-0.125,-0.225,6441.666666666667
-0.135,-0.235,6444.444444444444
-0.13,-0.255,6447.222222222223
-0.135,-0.255,6450.0
-0.14,-0.255,6452.777777777777
-0.145,-0.275,6455.555555555556
-0.185,-0.3,6458.333333333333
-0.225,-0.34,6461.111111111111
-0.23,-0.395,6463.888888888889
-0.235,-0.43,6466.666666666667
-0.22,-0.46,6469.444444444444
-0.195,-0.5,6472.222222222223
-0.165,-0.51,6475.0
-0.08,-0.535,6477.777777777777
0.035,-0.54,6480.555555555556
0.16,-0.515,6483.333333333333
0.26,-0.505,6486.111111111111
0.32,-0.49,6488.888888888889
0.36,-0.46,6491.666666666667
0.38,-0.405,6494.444444444444
0.455,-0.28,6497.222222222223
0.6,-0.02,6500.0
0.72,0.295,6502.777777777777
0.77,0.575,6505.555555555556
0.735,0.715,6508.333333333333
0.66,0.76,6511.111111111111
0.6,0.79,6513.888888888889
0.545,0.835,6516.666666666667
0.47,0.915,6519.444444444444
0.35,0.95,6522.222222222223
0.155,0.92,6525.0
-0.045,0.85,6527.777777777777
-0.185,0.755,6530.555555555556
-0.245,0.675,6533.333333333333
-0.26,0.62,6536.111111111111
-0.29,0.585,6538.888888888889
-0.305,0.57,6541.666666666667
-0.36,0.55,6544.444444444444
-0.405,0.545,6547.222222222223
-0.415,0.555,6550.0
-0.385,0.6,6552.777777777777
-0.35,0.66,6555.555555555556
-0.32,0.685,6558.333333333333
-0.31,0.69,6561.111111111111
-0.27,0.69,6563.888888888889
-0.215,0.7,6566.666666666667
-0.145,0.705,6569.444444444444
-0.12,0.66,6572.222222222223
-0.12,0.585,6575.0
-0.145,0.46,6577.777777777777
-0.19,0.325,6580.555555555556
-0.205,0.195,6583.333333333333
-0.22,0.085,6586.111111111111
-0.225,-0.015,6588.888888888889
-0.235,-0.085,6591.666666666667
-0.24,-0.145,6594.444444444444
-0.225,-0.2,6597.222222222223
-0.225,-0.215,6600.0
-0.21,-0.22,6602.777777777777
-0.205,-0.215,6605.555555555556
-0.205,-0.24,6608.333333333333
-0.22,-0.26,6611.111111111111
-0.215,-0.28,6613.888888888889
-0.21,-0.28,6616.666666666667
-0.21,-0.26,6619.444444444444
-0.215,-0.26,6622.222222222223
-0.225,-0.265,6625.0
-0.245,-0.295,6627.777777777777
-0.235,-0.3,6630.555555555556
-0.22,-0.295,6633.333333333333
-0.215,-0.275,6636.111111111111
-0.22,-0.275,6638.888888888889
-0.22,-0.275,6641.666666666667
-0.225,-0.3,6644.444444444444
-0.22,-0.315,6647.222222222223
-0.205,-0.305,6650.0
-0.21,-0.285,6652.777777777777
-0.19,-0.28,6655.555555555556
-0.2,-0.28,6658.333333333333
-0.21,-0.31,6661.111111111111
-0.2,-0.32,6663.888888888889
-0.195,-0.3,6666.666666666667
-0.175,-0.275,6669.444444444444
-0.19,-0.265,6672.222222222223
-0.195,-0.28,6675.0
-0.205,-0.305,6677.777777777777
-0.205,-0.315,6680.555555555556
-0.19,-0.3,6683.333333333333
-0.175,-0.275,6686.111111111111
-0.165,-0.27,6688.888888888889
-0.175,-0.285,6691.666666666667
-0.185,-0.305,6694.444444444444
-0.19,-0.31,6697.222222222223
-0.165,-0.285,6700.0
-0.15,-0.26,6702.777777777777
-0.145,-0.255,6705.555555555556
-0.15,-0.27,6708.333333333333
-0.15,-0.285,6711.111111111111
-0.155,-0.295,6713.888888888889
-0.145,-0.285,6716.666666666667
-0.125,-0.26,6719.444444444444
-0.125,-0.25,6722.222222222223
-0.135,-0.255,6725.0
-0.145,-0.26,6727.777777777777
-0.13,-0.275,6730.555555555556
-0.145,-0.26,6733.333333333333
-0.115,-0.23,6736.111111111111
-0.11,-0.235,6738.888888888889
-0.12,-0.235,6741.666666666667
-0.135,-0.25,6744.444444444444
-0.12,-0.255,6747.222222222223
-0.11,-0.24,6750.0
-0.095,-0.205,6752.777777777777
-0.095,-0.195,6755.555555555556
-0.095,-0.205,6758.333333333333
-0.105,-0.215,6761.111111111111
-0.1,-0.22,6763.888888888889
-0.075,-0.215,6766.666666666667
-0.06,-0.18,6769.444444444444
-0.055,-0.175,6772.222222222223
-0.075,-0.17,6775.0
-0.07,-0.205,6777.777777777777
-0.05,-0.2,6780.555555555556
-0.045,-0.175,6783.333333333333
-0.03,-0.15,6786.111111111111
-0.04,-0.135,6788.888888888889
-0.04,-0.14,6791.666666666667
-0.06,-0.165,6794.444444444444
-0.05,-0.165,6797.222222222223
-0.035,-0.135,6800.0
-0.015,-0.115,6802.777777777777
-0.02,-0.105,6805.555555555556
-0.025,-0.115,6808.333333333333
-0.015,-0.13,6811.111111111111
-0.035,-0.12,6813.888888888889
-0.005,-0.115,6816.666666666667
0.01,-0.1,6819.444444444444
0.02,-0.08,6822.222222222223
-0.005,-0.08,6825.0
0.01,-0.09,6827.777777777777
0.0,-0.1,6830.555555555556
0.015,-0.085,6833.333333333333
0.04,-0.065,6836.111111111111
0.045,-0.05,6838.888888888889
0.045,-0.045,6841.666666666667
0.04,-0.05,6844.444444444444
0.05,-0.055,6847.222222222223
0.055,-0.07,6850.0
0.065,-0.055,6852.777777777777
0.055,-0.04,6855.555555555556
0.06,-0.03,6858.333333333333
0.05,-0.04,6861.111111111111
0.04,-0.04,6863.888888888889
0.06,-0.05,6866.666666666667
0.075,-0.035,6869.444444444444
0.075,-0.03,6872.222222222223
0.075,-0.02,6875.0
0.075,-0.015,6877.777777777777
0.065,-0.015,6880.555555555556
0.09,-0.02,6883.333333333333
0.1,-0.005,6886.111111111111
0.1,0.0,6888.888888888889
0.11,0.0,6891.666666666667
0.085,0.0,6894.444444444444
0.085,0.01,6897.222222222223
0.105,0.005,6900.0
0.12,0.015,6902.777777777777
0.125,0.015,6905.555555555556
0.11,0.025,6908.333333333333
0.095,0.035,6911.111111111111
0.1,0.03,6913.888888888889
0.095,0.035,6916.666666666667
0.1,0.03,6919.444444444444
0.1,0.035,6922.222222222223
0.095,0.04,6925.0
0.085,0.05,6927.777777777777
0.08,0.06,6930.555555555556
0.09,0.075,6933.333333333333
0.085,0.07,6936.111111111111
0.09,0.065,6938.888888888889
0.08,0.055,6941.666666666667
0.08,0.08,6944.444444444444
0.08,0.09,6947.222222222223
0.07,0.105,6950.0
0.105,0.09,6952.777777777777
0.1,0.09,6955.555555555556
0.09,0.085,6958.333333333333
0.07,0.095,6961.111111111111
0.075,0.125,6963.888888888889
0.075,0.145,6966.666666666667
0.085,0.145,6969.444444444444
0.09,0.125,6972.222222222223
0.07,0.115,6975.0
0.045,0.135,6977.777777777777
0.035,0.16,6980.555555555556
0.055,0.19,6983.333333333333
0.07,0.185,6986.111111111111
0.07,0.175,6988.888888888889
0.05,0.175,6991.666666666667
0.03,0.17,6994.444444444444
0.035,0.21,6997.222222222223
0.045,0.225,7000.0
0.06,0.215,7002.777777777777
0.06,0.21,7005.555555555556
0.06,0.185,7008.333333333333
0.03,0.2,7011.111111111111
0.05,0.225,7013.888888888889
0.06,0.24,7016.666666666667
0.075,0.24,7019.444444444444
0.075,0.23,7022.222222222223
0.07,0.2,7025.0
0.06,0.205,7027.777777777777
0.065,0.235,7030.555555555556
0.065,0.24,7033.333333333333
0.065,0.245,7036.111111111111
0.08,0.215,7038.888888888889
0.065,0.2,7041.666666666667
0.065,0.195,7044.444444444444
0.065,0.215,7047.222222222223
0.07,0.23,7050.0
0.065,0.235,7052.777777777777
0.085,0.215,7055.555555555556
0.08,0.205,7058.333333333333
0.07,0.195,7061.111111111111
0.08,0.22,7063.888888888889
0.09,0.225,7066.666666666667
0.105,0.235,7069.444444444444
0.11,0.215,7072.222222222223
0.11,0.185,7075.0
0.095,0.18,7077.777777777777
0.105,0.21,7080.555555555556
0.13,0.22,7083.333333333333
0.13,0.24,7086.111111111111
0.145,0.22,7088.888888888889
0.145,0.195,7091.666666666667
0.13,0.185,7094.444444444444
0.13,0.195,7097.222222222223
0.155,0.22,7100.0
0.155,0.23,7102.777777777777
0.185,0.22,7105.555555555556
0.18,0.195,7108.333333333333
0.17,0.185,7111.111111111111
0.175,0.175,7113.888888888889
0.185,0.195,7116.666666666667
0.2,0.2,7119.444444444444
0.185,0.185,7122.222222222223
0.165,0.15,7125.0
0.145,0.12,7127.777777777777
0.155,0.105,7130.555555555556
0.165,0.115,7133.333333333333
0.19,0.085,7136.111111111111
0.19,0.055,7138.888888888889
0.175,0.0,7141.666666666667
0.165,-0.065,7144.444444444444
0.17,-0.08,7147.222222222223
0.175,-0.075,7150.0
0.185,-0.05,7152.777777777777
0.165,-0.035,7155.555555555556
0.135,-0.05,7158.333333333333
0.12,-0.055,7161.111111111111
0.08,-0.045,7163.888888888889
0.05,-0.02,7166.666666666667
0.005,-0.015,7169.444444444444
-0.05,-0.04,7172.222222222223
-0.125,-0.065,7175.0
-0.245,-0.085,7177.777777777777
-0.36,-0.07,7180.555555555556
-0.485,-0.035,7183.333333333333
-0.565,-0.025,7186.111111111111
-0.615,-0.02,7188.888888888889
-0.71,-0.05,7191.666666666667
-0.87,-0.095,7194.444444444444
-1.01,-0.135,7197.222222222223
-1.09,-0.16,7200.0
-1.105,-0.205,7202.777777777777
-1.1,-0.25,7205.555555555556
-1.095,-0.3,7208.333333333333
-1.12,-0.315,7211.111111111111
-1.11,-0.305,7213.888888888889
-1.06,-0.245,7216.666666666667
-0.975,-0.185,7219.444444444444
-0.89,-0.115,7222.222222222223
-0.83,-0.085,7225.0
-0.79,-0.075,7227.777777777777
-0.75,-0.055,7230.555555555556
-0.705,-0.04,7233.333333333333
-0.71,-0.03,7236.111111111111
-0.72,-0.08,7238.888888888889
-0.745,-0.14,7241.666666666667
-0.775,-0.22,7244.444444444444
-0.79,-0.29,7247.222222222223
-0.815,-0.355,7250.0
-0.805,-0.44,7252.777777777777
-0.82,-0.585,7255.555555555556
-0.85,-0.74,7258.333333333333
-0.875,-0.9,7261.111111111111
-0.895,-1.005,7263.888888888889
-0.89,-1.08,7266.666666666667
-0.895,-1.105,7269.444444444444
-0.88,-1.14,7272.222222222223
-0.895,-1.19,7275.0
-0.895,-1.23,7277.777777777777
-0.905,-1.245,7280.555555555556
-0.9,-1.255,7283.333333333333
-0.885,-1.25,7286.111111111111
-0.89,-1.255,7288.888888888889
-0.91,-1.27,7291.666666666667
-0.91,-1.3,7294.444444444444
-0.91,-1.31,7297.222222222223
-0.9,-1.315,7300.0
-0.88,-1.295,7302.777777777777
-0.89,-1.285,7305.555555555556
-0.9,-1.31,7308.333333333333
-0.91,-1.32,7311.111111111111
-0.91,-1.34,7313.888888888889
-0.905,-1.325,7316.666666666667
-0.89,-1.32,7319.444444444444
-0.895,-1.32,7322.222222222223
-0.885,-1.33,7325.0
-0.9,-1.35,7327.777777777777
-0.895,-1.355,7330.555555555556
-0.885,-1.35,7333.333333333333
-0.865,-1.335,7336.111111111111
-0.865,-1.335,7338.888888888889
-0.865,-1.345,7341.666666666667
-0.87,-1.36,7344.444444444444
-0.87,-1.365,7347.222222222223
-0.86,-1.36,7350.0
-0.85,-1.355,7352.777777777777
-0.84,-1.325,7355.555555555556
-0.84,-1.335,7358.333333333333
-0.84,-1.34,7361.111111111111
-0.845,-1.345,7363.888888888889
-0.825,-1.335,7366.666666666667
-0.81,-1.31,7369.444444444444
-0.79,-1.305,7372.222222222223
-0.79,-1.305,7375.0
-0.805,-1.31,7377.777777777777
-0.805,-1.31,7380.555555555556
-0.79,-1.3,7383.333333333333
-0.77,-1.275,7386.111111111111
-0.765,-1.265,7388.888888888889
-0.765,-1.265,7391.666666666667
-0.77,-1.26,7394.444444444444
-0.77,-1.265,7397.222222222223
-0.755,-1.245,7400.0
-0.725,-1.22,7402.777777777777
-0.72,-1.2,7405.555555555556
-0.715,-1.2,7408.333333333333
-0.735,-1.195,7411.111111111111
-0.725,-1.2,7413.888888888889
-0.705,-1.18,7416.666666666667
-0.695,-1.15,7419.444444444444
-0.67,-1.135,7422.222222222223
-0.655,-1.125,7425.0
-0.655,-1.135,7427.777777777777
-0.655,-1.125,7430.555555555556
-0.64,-1.11,7433.333333333333
-0.635,-1.085,7436.111111111111
-0.625,-1.065,7438.888888888889
-0.62,-1.055,7441.666666666667
-0.635,-1.06,7444.444444444444
-0.635,-1.05,7447.222222222223
-0.615,-1.045,7450.0
-0.6,-1.005,7452.777777777777
-0.585,-0.995,7455.555555555556
-0.58,-0.99,7458.333333333333
-0.585,-0.98,7461.111111111111
-0.585,-0.975,7463.888888888889
-0.55,-0.96,7466.666666666667
-0.535,-0.935,7469.444444444444
-0.535,-0.91,7472.222222222223
-0.525,-0.895,7475.0
-0.525,-0.895,7477.777777777777
-0.515,-0.895,7480.555555555556
-0.505,-0.875,7483.333333333333
-0.48,-0.86,7486.111111111111
-0.47,-0.83,7488.888888888889
-0.47,-0.83,7491.666666666667
-0.47,-0.82,7494.444444444444
-0.465,-0.825,7497.222222222223
-0.45,-0.795,7500.0
-0.43,-0.77,7502.777777777777
-0.415,-0.75,7505.555555555556
-0.42,-0.73,7508.333333333333
-0.41,-0.74,7511.111111111111
-0.405,-0.725,7513.888888888889
-0.385,-0.715,7516.666666666667
-0.35,-0.67,7519.444444444444
-0.33,-0.655,7522.222222222223
-0.335,-0.66,7525.0
-0.35,-0.665,7527.777777777777
-0.34,-0.645,7530.555555555556
-0.33,-0.635,7533.333333333333
-0.3,-0.6,7536.111111111111
-0.305,-0.585,7538.888888888889
-0.295,-0.595,7541.666666666667
-0.285,-0.6,7544.444444444444
-0.275,-0.6,7547.222222222223
-0.255,-0.6,7550.0
-0.255,-0.565,7552.777777777777
-0.245,-0.565,7555.555555555556
-0.26,-0.565,7558.333333333333
-0.275,-0.57,7561.111111111111
-0.275,-0.57,7563.888888888889
-0.265,-0.56,7566.666666666667
-0.255,-0.52,7569.444444444444
-0.255,-0.51,7572.222222222223
-0.25,-0.535,7575.0
-0.245,-0.54,7577.777777777777
-0.255,-0.535,7580.555555555556
-0.245,-0.505,7583.333333333333
-0.21,-0.485,7586.111111111111
-0.225,-0.475,7588.888888888889
-0.24,-0.49,7591.666666666667
-0.245,-0.51,7594.444444444444
-0.245,-0.495,7597.222222222223
-0.235,-0.47,7600.0
-0.235,-0.44,7602.777777777777
-0.23,-0.43,7605.555555555556
-0.22,-0.44,7608.333333333333
-0.24,-0.455,7611.111111111111
-0.25,-0.42,7613.888888888889
-0.25,-0.38,7616.666666666667
-0.235,-0.365,7619.444444444444
-0.23,-0.35,7622.222222222223
-0.24,-0.375,7625.0
-0.24,-0.385,7627.777777777777
-0.24,-0.365,7630.555555555556
-0.23,-0.325,7633.333333333333
-0.22,-0.3,7636.111111111111
-0.22,-0.29,7638.888888888889
-0.22,-0.305,7641.666666666667
-0.23,-0.325,7644.444444444444
-0.23,-0.305,7647.222222222223
-0.24,-0.275,7650.0
-0.205,-0.245,7652.777777777777
-0.195,-0.265,7655.555555555556
-0.215,-0.275,7658.333333333333
-0.225,-0.29,7661.111111111111
-0.225,-0.27,7663.888888888889
-0.215,-0.245,7666.666666666667
-0.205,-0.225,7669.444444444444
-0.21,-0.225,7672.222222222223
-0.23,-0.245,7675.0
-0.235,-0.255,7677.777777777777
-0.24,-0.25,7680.555555555556
-0.21,-0.225,7683.333333333333
-0.21,-0.2,7686.111111111111
-0.2,-0.21,7688.888888888889
-0.225,-0.235,7691.666666666667
-0.225,-0.245,7694.444444444444
-0.225,-0.235,7697.222222222223
-0.21,-0.19,7700.0
-0.195,-0.185,7702.777777777777
-0.185,-0.205,7705.555555555556
-0.195,-0.225,7708.333333333333
-0.21,-0.23,7711.111111111111
-0.21,-0.205,7713.888888888889
-0.205,-0.185,7716.666666666667
-0.195,-0.185,7719.444444444444
-0.195,-0.205,7722.222222222223
-0.2,-0.23,7725.0
-0.21,-0.22,7727.777777777777
-0.215,-0.19,7730.555555555556
-0.21,-0.185,7733.333333333333
-0.215,-0.18,7736.111111111111
-0.19,-0.195,7738.888888888889
-0.2,-0.215,7741.666666666667
-0.205,-0.215,7744.444444444444
-0.215,-0.19,7747.222222222223
-0.205,-0.17,7750.0
-0.195,-0.19,7752.777777777777
-0.195,-0.195,7755.555555555556
-0.205,-0.205,7758.333333333333
-0.2,-0.21,7761.111111111111
-0.2,-0.19,7763.888888888889
-0.195,-0.175,7766.666666666667
-0.19,-0.165,7769.444444444444
-0.18,-0.195,7772.222222222223
-0.195,-0.205,7775.0
-0.19,-0.21,7777.777777777777
-0.205,-0.185,7780.555555555556
-0.21,-0.165,7783.333333333333
-0.195,-0.175,7786.111111111111
-0.19,-0.19,7788.888888888889
-0.195,-0.21,7791.666666666667
-0.21,-0.2,7794.444444444444
-0.21,-0.185,7797.222222222223
-0.19,-0.17,7800.0
-0.19,-0.17,7802.777777777777
-0.18,-0.185,7805.555555555556
-0.19,-0.195,7808.333333333333
-0.2,-0.19,7811.111111111111
-0.195,-0.175,7813.888888888889
-0.19,-0.165,7816.666666666667
-0.165,-0.185,7819.444444444444
-0.155,-0.185,7822.222222222223
-0.175,-0.19,7825.0
-0.195,-0.18,7827.777777777777
-0.205,-0.175,7830.555555555556
-0.185,-0.165,7833.333333333333
-0.19,-0.165,7836.111111111111
-0.19,-0.18,7838.888888888889
-0.19,-0.185,7841.666666666667
-0.21,-0.18,7844.444444444444
-0.21,-0.165,7847.222222222223
-0.19,-0.16,7850.0
-0.185,-0.17,7852.777777777777
-0.175,-0.18,7855.555555555556
-0.19,-0.175,7858.333333333333
-0.2,-0.16,7861.111111111111
-0.2,-0.16,7863.888888888889
-0.195,-0.155,7866.666666666667
-0.175,-0.175,7869.444444444444
-0.17,-0.175,7872.222222222223
-0.18,-0.19,7875.0
-0.18,-0.185,7877.777777777777
-0.19,-0.165,7880.555555555556
-0.175,-0.16,7883.333333333333
-0.17,-0.17,7886.111111111111
-0.165,-0.18,7888.888888888889
-0.19,-0.185,7891.666666666667
-0.185,-0.185,7894.444444444444
-0.195,-0.165,7897.222222222223
-0.185,-0.155,7900.0
-0.17,-0.17,7902.777777777777
-0.165,-0.185,7905.555555555556
-0.175,-0.19,7908.333333333333
-0.19,-0.18,7911.111111111111
-0.2,-0.165,7913.888888888889
-0.19,-0.16,7916.666666666667
-0.17,-0.175,7919.444444444444
-0.165,-0.165,7922.222222222223
-0.175,-0.18,7925.0
-0.17,-0.18,7927.777777777777
-0.18,-0.155,7930.555555555556
-0.18,-0.155,7933.333333333333
-0.155,-0.155,7936.111111111111
-0.16,-0.17,7938.888888888889
-0.17,-0.18,7941.666666666667
-0.19,-0.175,7944.444444444444
-0.18,-0.16,7947.222222222223
-0.175,-0.16,7950.0
-0.17,-0.17,7952.777777777777
-0.16,-0.185,7955.555555555556
-0.175,-0.18,7958.333333333333
-0.175,-0.175,7961.111111111111
-0.2,-0.165,7963.888888888889
-0.18,-0.15,7966.666666666667
-0.16,-0.16,7969.444444444444
-0.175,-0.175,7972.222222222223
-0.175,-0.19,7975.0
-0.19,-0.16,7977.777777777777
-0.19,-0.16,7980.555555555556
-0.175,-0.165,7983.333333333333
-0.155,-0.165,7986.111111111111
-0.15,-0.185,7988.888888888889
-0.17,-0.175,7991.666666666667
-0.175,-0.17,7994.444444444444
-0.19,-0.165,7997.222222222223
-0.175,-0.17,8000.0
-0.18,-0.18,8002.777777777777
-0.175,-0.18,8005.555555555556
-0.185,-0.185,8008.333333333333
-0.195,-0.175,8011.111111111111
-0.2,-0.17,8013.888888888889
-0.195,-0.165,8016.666666666667
-0.175,-0.17,8019.444444444444
-0.19,-0.18,8022.222222222223
-0.19,-0.175,8025.0
-0.205,-0.175,8027.777777777777
-0.2,-0.17,8030.555555555556
-0.18,-0.17,8033.333333333333
-0.17,-0.17,8036.111111111111
-0.175,-0.175,8038.888888888889
-0.175,-0.185,8041.666666666667
-0.185,-0.185,8044.444444444444
-0.205,-0.17,8047.222222222223
-0.19,-0.175,8050.0
-0.17,-0.195,8052.777777777777
-0.165,-0.185,8055.555555555556
-0.175,-0.2,8058.333333333333
-0.185,-0.18,8061.111111111111
-0.2,-0.18,8063.888888888889
-0.18,-0.175,8066.666666666667
-0.175,-0.185,8069.444444444444
-0.175,-0.2,8072.222222222223
-0.185,-0.19,8075.0
-0.195,-0.175,8077.777777777777
-0.19,-0.17,8080.555555555556
-0.185,-0.17,8083.333333333333
-0.18,-0.185,8086.111111111111
-0.185,-0.19,8088.888888888889
-0.19,-0.195,8091.666666666667
-0.195,-0.175,8094.444444444444
-0.195,-0.17,8097.222222222223
-0.19,-0.17,8100.0
-0.17,-0.18,8102.777777777777
-0.175,-0.185,8105.555555555556
-0.17,-0.205,8108.333333333333
-0.185,-0.185,8111.111111111111
-0.2,-0.175,8113.888888888889
-0.17,-0.175,8116.666666666667
-0.17,-0.185,8119.444444444444
-0.16,-0.2,8122.222222222223
-0.195,-0.195,8125.0
-0.185,-0.205,8127.777777777777
-0.19,-0.18,8130.555555555556
-0.185,-0.17,8133.333333333333
-0.175,-0.185,8136.111111111111
-0.17,-0.195,8138.888888888889
-0.185,-0.19,8141.666666666667
-0.18,-0.19,8144.444444444444
-0.185,-0.17,8147.222222222223
-0.18,-0.17,8150.0
-0.17,-0.18,8152.777777777777
-0.155,-0.185,8155.555555555556
-0.17,-0.205,8158.333333333333
-0.18,-0.195,8161.111111111111
-0.18,-0.175,8163.888888888889
-0.165,-0.165,8166.666666666667
-0.175,-0.18,8169.444444444444
-0.165,-0.185,8172.222222222223
-0.165,-0.205,8175.0
-0.18,-0.19,8177.777777777777
-0.185,-0.18,8180.555555555556
-0.19,-0.175,8183.333333333333
-0.175,-0.185,8186.111111111111
-0.175,-0.2,8188.888888888889
-0.185,-0.205,8191.666666666667
-0.18,-0.19,8194.444444444445
-0.19,-0.18,8197.222222222223
-0.175,-0.165,8200.0
-0.18,-0.185,8202.777777777777
-0.18,-0.185,8205.555555555555
-0.17,-0.205,8208.333333333334
-0.185,-0.19,8211.111111111111
-0.18,-0.185,8213.888888888889
-0.17,-0.18,8216.666666666666
-0.155,-0.185,8219.444444444445
-0.155,-0.19,8222.222222222223
-0.165,-0.195,8225.0
-0.165,-0.19,8227.777777777777
-0.17,-0.18,8230.555555555555
-0.165,-0.17,8233.333333333334
-0.155,-0.185,8236.111111111111
-0.155,-0.195,8238.888888888889
-0.175,-0.195,8241.666666666666
-0.19,-0.2,8244.444444444445
-0.185,-0.18,8247.222222222223
-0.175,-0.18,8250.0
-0.17,-0.195,8252.777777777777
-0.17,-0.21,8255.555555555555
-0.175,-0.205,8258.333333333334
-0.18,-0.195,8261.111111111111
-0.175,-0.18,8263.888888888889
-0.17,-0.175,8266.666666666666
-0.16,-0.175,8269.444444444445
-0.165,-0.195,8272.222222222223
-0.17,-0.195,8275.0
-0.175,-0.205,8277.777777777777
-0.17,-0.18,8280.555555555555
-0.16,-0.18,8283.333333333334
-0.155,-0.185,8286.111111111111
-0.165,-0.195,8288.888888888889
-0.18,-0.205,8291.666666666666
-0.19,-0.2,8294.444444444445
-0.19,-0.185,8297.222222222223
-0.185,-0.18,8300.0
-0.18,-0.19,8302.777777777777
-0.17,-0.21,8305.555555555555
-0.17,-0.215,8308.333333333334
-0.195,-0.205,8311.111111111111
-0.19,-0.19,8313.888888888889
-0.17,-0.18,8316.666666666666
-0.17,-0.19,8319.444444444445
-0.165,-0.2,8322.222222222223
-0.18,-0.205,8325.0
-0.195,-0.21,8327.777777777777
-0.18,-0.195,8330.555555555555
-0.17,-0.18,8333.333333333334
-0.155,-0.19,8336.111111111111
-0.16,-0.2,8338.888888888889
-0.17,-0.215,8341.666666666666
-0.17,-0.205,8344.444444444445
-0.18,-0.195,8347.222222222223
-0.16,-0.18,8350.0
-0.16,-0.18,8352.777777777777
-0.175,-0.21,8355.555555555555
-0.175,-0.21,8358.333333333334
-0.19,-0.2,8361.111111111111
-0.19,-0.18,8363.888888888889
-0.19,-0.175,8366.666666666666
-0.175,-0.19,8369.444444444445
-0.175,-0.2,8372.222222222223
-0.185,-0.21,8375.0
-0.185,-0.205,8377.777777777777
-0.18,-0.18,8380.555555555555
-0.17,-0.19,8383.333333333334
-0.165,-0.185,8386.111111111111
-0.165,-0.215,8388.888888888889
-0.17,-0.22,8391.666666666666
-0.17,-0.205,8394.444444444445
-0.165,-0.195,8397.222222222223
-0.165,-0.185,8400.0
-0.155,-0.205,8402.777777777777
-0.145,-0.21,8405.555555555555
-0.16,-0.205,8408.333333333334
-0.195,-0.21,8411.111111111111
-0.19,-0.195,8413.888888888889
-0.175,-0.18,8416.666666666666
-0.16,-0.205,8419.444444444445
-0.165,-0.21,8422.222222222223
-0.17,-0.215,8425.0
-0.175,-0.21,8427.777777777777
-0.175,-0.195,8430.555555555555
-0.17,-0.195,8433.333333333334
-0.155,-0.215,8436.111111111111
-0.165,-0.215,8438.888888888889
-0.17,-0.22,8441.666666666666
-0.165,-0.205,8444.444444444445
-0.18,-0.2,8447.222222222223
-0.16,-0.2,8450.0
-0.145,-0.21,8452.777777777777
-0.145,-0.21,8455.555555555555
-0.16,-0.215,8458.333333333334
-0.165,-0.195,8461.111111111111
-0.185,-0.195,8463.888888888889
-0.18,-0.195,8466.666666666666
-0.175,-0.205,8469.444444444445
-0.165,-0.2,8472.222222222223
-0.155,-0.2,8475.0
-0.185,-0.2,8477.777777777777
-0.185,-0.19,8480.555555555555
-0.175,-0.205,8483.333333333334
-0.155,-0.21,8486.111111111111
-0.16,-0.21,8488.888888888889
-0.185,-0.205,8491.666666666666
-0.195,-0.205,8494.444444444445
-0.185,-0.195,8497.222222222223
-0.165,-0.195,8500.0
-0.155,-0.205,8502.777777777777
-0.15,-0.205,8505.555555555555
-0.16,-0.195,8508.333333333334
-0.185,-0.185,8511.111111111111
-0.17,-0.185,8513.888888888889
-0.155,-0.2,8516.666666666666
-0.155,-0.195,8519.444444444445
-0.17,-0.18,8522.222222222223
-0.175,-0.185,8525.0
-0.18,-0.195,8527.777777777777
-0.18,-0.2,8530.555555555555
-0.17,-0.2,8533.333333333334
-0.16,-0.195,8536.111111111111
-0.16,-0.18,8538.888888888889
-0.165,-0.18,8541.666666666666
-0.175,-0.2,8544.444444444445
-0.2,-0.195,8547.222222222223
-0.16,-0.19,8550.0
-0.155,-0.19,8552.777777777777
-0.15,-0.175,8555.555555555555
-0.155,-0.175,8558.333333333334
-0.16,-0.195,8561.111111111111
-0.15,-0.21,8563.888888888889
-0.13,-0.18,8566.666666666666
-0.125,-0.18,8569.444444444445
-0.12,-0.17,8572.222222222223
-0.13,-0.185,8575.0
-0.135,-0.185,8577.777777777777
-0.14,-0.195,8580.555555555555
-0.13,-0.185,8583.333333333334
-0.105,-0.16,8586.111111111111
-0.105,-0.16,8588.888888888889
-0.13,-0.18,8591.666666666666
-0.165,-0.22,8594.444444444445
-0.195,-0.24,8597.222222222223
-0.2,-0.275,8600.0
-0.18,-0.29,8602.777777777777
-0.16,-0.32,8605.555555555555
-0.17,-0.375,8608.333333333334
-0.135,-0.425,8611.111111111111
-0.055,-0.455,8613.888888888889
0.075,-0.435,8616.666666666666
0.2,-0.415,8619.444444444445
0.3,-0.395,8622.222222222223
0.34,-0.41,8625.0
0.35,-0.41,8627.777777777777
0.375,-0.355,8630.555555555555
0.46,-0.215,8633.333333333334
0.59,0.035,8636.111111111111
0.715,0.355,8638.888888888889
0.75,0.605,8641.666666666666
0.725,0.725,8644.444444444445
0.66,0.795,8647.222222222223
0.61,0.86,8650.0
0.565,0.93,8652.777777777777
0.48,0.965,8655.555555555555
0.33,0.955,8658.333333333334
0.145,0.915,8661.111111111111
-0.05,0.86,8663.888888888889
-0.175,0.79,8666.666666666666
-0.22,0.71,8669.444444444445
-0.24,0.62,8672.222222222223
-0.265,0.56,8675.0
-0.305,0.56,8677.777777777777
-0.335,0.565,8680.555555555555
-0.365,0.58,8683.333333333334
-0.38,0.59,8686.111111111111
-0.38,0.625,8688.888888888889
-0.37,0.645,8691.666666666666
-0.34,0.675,8694.444444444445
-0.31,0.715,8697.222222222223
-0.26,0.75,8700.0
-0.195,0.76,8702.777777777777
-0.155,0.735,8705.555555555555
-0.135,0.66,8708.333333333334
-0.155,0.585,8711.111111111111
-0.185,0.48,8713.888888888889
-0.2,0.39,8716.666666666666
-0.225,0.245,8719.444444444445
-0.235,0.105,8722.222222222223
-0.245,-0.01,8725.0
-0.255,-0.08,8727.777777777777
-0.245,-0.105,8730.555555555555
-0.235,-0.12,8733.333333333334
-0.225,-0.125,8736.111111111111
-0.225,-0.175,8738.888888888889
-0.245,-0.19,8741.666666666666
-0.26,-0.215,8744.444444444445
-0.26,-0.2,8747.222222222223
-0.25,-0.185,8750.0
-0.245,-0.185,8752.777777777777
-0.235,-0.205,8755.555555555555
-0.25,-0.235,8758.333333333334
-0.265,-0.255,8761.111111111111
-0.265,-0.23,8763.888888888889
-0.26,-0.2,8766.666666666666
-0.235,-0.21,8769.444444444445
-0.24,-0.22,8772.222222222223
-0.255,-0.24,8775.0
-0.245,-0.265,8777.777777777777
-0.245,-0.25,8780.555555555555
-0.225,-0.21,8783.333333333334
-0.215,-0.21,8786.111111111111
-0.22,-0.225,8788.888888888889
-0.225,-0.25,8791.666666666666
-0.235,-0.255,8794.444444444445
-0.25,-0.25,8797.222222222223
-0.25,-0.225,8800.0
-0.235,-0.21,8802.777777777777
-0.22,-0.235,8805.555555555555
-0.23,-0.265,8808.333333333334
-0.245,-0.265,8811.111111111111
-0.24,-0.245,8813.888888888889
-0.225,-0.22,8816.666666666666
-0.205,-0.22,8819.444444444445
-0.215,-0.23,8822.222222222223
-0.225,-0.25,8825.0
-0.22,-0.255,8827.777777777777
-0.215,-0.245,8830.555555555555
-0.2,-0.215,8833.333333333334
-0.195,-0.225,8836.111111111111
-0.18,-0.23,8838.888888888889
-0.18,-0.245,8841.666666666666
-0.185,-0.245,8844.444444444445
-0.18,-0.225,8847.222222222223
-0.175,-0.2,8850.0
-0.16,-0.2,8852.777777777777
-0.16,-0.205,8855.555555555555
-0.17,-0.225,8858.333333333334
-0.185,-0.24,8861.111111111111
-0.175,-0.22,8863.888888888889
-0.16,-0.19,8866.666666666666
-0.145,-0.185,8869.444444444445
-0.145,-0.2,8872.222222222223
-0.155,-0.2,8875.0
-0.155,-0.21,8877.777777777777
-0.16,-0.205,8880.555555555555
-0.135,-0.16,8883.333333333334
-0.115,-0.16,8886.111111111111
-0.115,-0.165,8888.888888888889
-0.13,-0.18,8891.666666666666
-0.13,-0.195,8894.444444444445
-0.135,-0.175,8897.222222222223
-0.12,-0.135,8900.0
-0.09,-0.125,8902.777777777777
-0.085,-0.135,8905.555555555555
-0.105,-0.145,8908.333333333334
-0.095,-0.155,8911.111111111111
-0.1,-0.145,8913.888888888889
-0.07,-0.12,8916.666666666666
-0.06,-0.1,8919.444444444445
-0.07,-0.09,8922.222222222223
-0.07,-0.12,8925.0
-0.085,-0.115,8927.777777777777
-0.085,-0.1,8930.555555555555
-0.055,-0.07,8933.333333333334
-0.035,-0.06,8936.111111111111
-0.04,-0.065,8938.888888888889
-0.045,-0.075,8941.666666666666
-0.05,-0.08,8944.444444444445
-0.04,-0.07,8947.222222222223
-0.03,-0.04,8950.0
-0.01,-0.025,8952.777777777777
-0.01,-0.03,8955.555555555555
0.0,-0.05,8958.333333333334
-0.01,-0.055,8961.111111111111
-0.02,-0.04,8963.888888888889
-0.005,-0.015,8966.666666666666
0.02,0.005,8969.444444444445
0.02,0.01,8972.222222222223
0.005,-0.01,8975.0
0.005,-0.02,8977.777777777777
0.0,-0.005,8980.555555555555
0.01,0.01,8983.333333333334
0.035,0.035,8986.111111111111
0.04,0.04,8988.888888888889
0.035,0.01,8991.666666666666
0.035,0.01,8994.444444444445
0.03,0.015,8997.222222222223
0.05,0.04,9000.0
0.055,0.06,9002.777777777777
0.065,0.05,9005.555555555555
0.06,0.045,9008.333333333334
0.05,0.025,9011.111111111111
0.065,0.04,9013.888888888889
0.075,0.07,9016.666666666666
0.1,0.09,9019.444444444445
0.075,0.08,9022.222222222223
0.085,0.055,9025.0
0.085,0.045,9027.777777777777
0.08,0.06,9030.555555555555
0.09,0.095,9033.333333333334
0.1,0.105,9036.111111111111
0.095,0.11,9038.888888888889
0.08,0.1,9041.666666666666
0.075,0.085,9044.444444444445
0.07,0.09,9047.222222222223
0.09,0.12,9050.0
0.105,0.13,9052.777777777777
0.095,0.14,9055.555555555555
0.075,0.115,9058.333333333334
0.08,0.115,9061.111111111111
0.07,0.125,9063.888888888889
0.09,0.165,9066.666666666666
0.11,0.18,9069.444444444445
0.1,0.165,9072.222222222223
0.09,0.135,9075.0
0.08,0.15,9077.777777777777
0.075,0.17,9080.555555555555
0.08,0.185,9083.333333333334
0.09,0.225,9086.111111111111
0.075,0.195,9088.888888888889
0.06,0.185,9091.666666666666
0.05,0.195,9094.444444444445
0.05,0.215,9097.222222222223
0.055,0.245,9100.0
0.06,0.265,9102.777777777777
0.07,0.245,9105.555555555555
0.06,0.245,9108.333333333334
0.05,0.23,9111.111111111111
0.055,0.25,9113.888888888889
0.06,0.29,9116.666666666666
0.06,0.3,9119.444444444445
0.075,0.295,9122.222222222223
0.06,0.275,9125.0
0.06,0.26,9127.777777777777
0.055,0.28,9130.555555555555
0.06,0.31,9133.333333333334
0.09,0.315,9136.111111111111
0.09,0.31,9138.888888888889
0.07,0.285,9141.666666666666
0.035,0.285,9144.444444444445
0.055,0.31,9147.222222222223
0.07,0.32,9150.0
0.085,0.33,9152.777777777777
0.09,0.315,9155.555555555555
0.075,0.29,9158.333333333334
0.06,0.29,9161.111111111111
0.075,0.3,9163.888888888889
0.085,0.33,9166.666666666666
0.105,0.345,9169.444444444445
0.105,0.315,9172.222222222223
0.1,0.295,9175.0
0.09,0.285,9177.777777777777
0.1,0.285,9180.555555555555
0.105,0.32,9183.333333333334
0.13,0.33,9186.111111111111
0.13,0.31,9188.888888888889
0.13,0.29,9191.666666666666
0.12,0.275,9194.444444444445
0.12,0.295,9197.222222222223
0.145,0.325,9200.0
0.155,0.325,9202.777777777777
0.16,0.305,9205.555555555555
0.145,0.28,9208.333333333334
0.15,0.295,9211.111111111111
0.155,0.31,9213.888888888889
0.17,0.33,9216.666666666666
0.19,0.32,9219.444444444445
0.195,0.3,9222.222222222223
0.195,0.28,9225.0
0.185,0.295,9227.777777777777
0.19,0.315,9230.555555555555
0.22,0.335,9233.333333333334
0.225,0.32,9236.111111111111
0.245,0.3,9238.888888888889
0.215,0.265,9241.666666666666
0.205,0.255,9244.444444444445
0.2,0.26,9247.222222222223
0.19,0.265,9250.0
0.185,0.25,9252.777777777777
0.175,0.21,9255.555555555555
0.15,0.16,9258.333333333334
0.145,0.14,9261.111111111111
0.135,0.13,9263.888888888889
0.155,0.105,9266.666666666666
0.16,0.085,9269.444444444445
0.15,0.055,9272.222222222223
0.13,0.055,9275.0
0.085,0.07,9277.777777777777
0.05,0.09,9280.555555555555
0.02,0.1,9283.333333333334
0.005,0.065,9286.111111111111
-0.04,0.04,9288.888888888889
-0.08,0.01,9291.666666666666
-0.115,0.005,9294.444444444445
-0.15,0.015,9297.222222222223
-0.21,0.04,9300.0
-0.31,0.065,9302.777777777777
-0.435,0.085,9305.555555555555
-0.555,0.085,9308.333333333334
-0.625,0.135,9311.111111111111
-0.675,0.17,9313.888888888889
-0.76,0.155,9316.666666666666
-0.88,0.09,9319.444444444445
-0.975,0.015,9322.222222222223
-1.03,-0.05,9325.0
-1.05,-0.07,9327.777777777777
-1.04,-0.05,9330.555555555555
-1.025,-0.025,9333.333333333334
-0.995,-0.01,9336.111111111111
-0.94,-0.02,9338.888888888889
-0.87,-0.005,9341.666666666666
-0.795,0.04,9344.444444444445
-0.75,0.11,9347.222222222223
-0.73,0.135,9350.0
-0.72,0.115,9352.777777777777
-0.72,0.06,9355.555555555555
-0.725,0.02,9358.333333333334
-0.745,-0.005,9361.111111111111
-0.765,-0.025,9363.888888888889
-0.795,-0.09,9366.666666666666
-0.805,-0.2,9369.444444444445
-0.83,-0.315,9372.222222222223
-0.855,-0.455,9375.0
-0.86,-0.58,9377.777777777777
-0.865,-0.695,9380.555555555555
-0.87,-0.8,9383.333333333334
-0.855,-0.915,9386.111111111111
-0.85,-1.01,9388.888888888889
-0.865,-1.09,9391.666666666666
-0.875,-1.1,9394.444444444445
-0.87,-1.105,9397.222222222223
-0.865,-1.095,9400.0
-0.855,-1.12,9402.777777777777
-0.855,-1.155,9405.555555555555
-0.865,-1.17,9408.333333333334
-0.865,-1.155,9411.111111111111
-0.875,-1.15,9413.888888888889
-0.86,-1.15,9416.666666666666
-0.85,-1.165,9419.444444444445
-0.85,-1.195,9422.222222222223
-0.875,-1.2,9425.0
-0.89,-1.21,9427.777777777777
-0.885,-1.175,9430.555555555555
-0.875,-1.185,9433.333333333334
-0.85,-1.215,9436.111111111111
-0.845,-1.22,9438.888888888889
-0.88,-1.235,9441.666666666666
-0.875,-1.215,9444.444444444445
-0.86,-1.195,9447.222222222223
-0.85,-1.195,9450.0
-0.84,-1.21,9452.777777777777
-0.82,-1.235,9455.555555555555
-0.83,-1.23,9458.333333333334
-0.83,-1.21,9461.111111111111
-0.82,-1.19,9463.888888888889
-0.805,-1.195,9466.666666666666
-0.8,-1.215,9469.444444444445
-0.8,-1.22,9472.222222222223
-0.795,-1.225,9475.0
-0.805,-1.205,9477.777777777777
-0.81,-1.19,9480.555555555555
-0.805,-1.185,9483.333333333334
-0.785,-1.19,9486.111111111111
-0.77,-1.2,9488.888888888889
-0.78,-1.2,9491.666666666666
-0.79,-1.17,9494.444444444445
-0.775,-1.14,9497.222222222223
-0.755,-1.15,9500.0
-0.725,-1.135,9502.777777777777
-0.715,-1.145,9505.555555555555
-0.735,-1.14,9508.333333333334
-0.73,-1.125,9511.111111111111
-0.715,-1.095,9513.888888888889
-0.7,-1.1,9516.666666666666
-0.68,-1.09,9519.444444444445
-0.665,-1.085,9522.222222222223
-0.66,-1.07,9525.0
-0.67,-1.045,9527.777777777777
-0.665,-1.04,9530.555555555555
-0.645,-1.035,9533.333333333334
-0.62,-1.025,9536.111111111111
-0.62,-0.995,9538.888888888889
-0.615,-1.0,9541.666666666666
-0.62,-0.975,9544.444444444445
-0.605,-0.96,9547.222222222223
-0.6,-0.97,9550.0
-0.57,-0.945,9552.777777777777
-0.575,-0.93,9555.555555555555
-0.565,-0.91,9558.333333333334
-0.565,-0.9,9561.111111111111
-0.555,-0.895,9563.888888888889
-0.54,-0.88,9566.666666666666
-0.52,-0.86,9569.444444444445
-0.51,-0.84,9572.222222222223
-0.5,-0.835,9575.0
-0.5,-0.81,9577.777777777777
-0.485,-0.8,9580.555555555555
-0.475,-0.79,9583.333333333334
-0.455,-0.78,9586.111111111111
-0.455,-0.76,9588.888888888889
-0.45,-0.755,9591.666666666666
-0.46,-0.74,9594.444444444445
-0.46,-0.73,9597.222222222223
-0.435,-0.72,9600.0
-0.415,-0.695,9602.777777777777
-0.41,-0.69,9605.555555555555
-0.405,-0.675,9608.333333333334
-0.4,-0.67,9611.111111111111
-0.39,-0.66,9613.888888888889
-0.37,-0.64,9616.666666666666
-0.35,-0.625,9619.444444444445
-0.34,-0.595,9622.222222222223
-0.34,-0.595,9625.0
-0.33,-0.58,9627.777777777777
-0.32,-0.575,9630.555555555555
-0.295,-0.555,9633.333333333334
-0.27,-0.535,9636.111111111111
-0.26,-0.515,9638.888888888889
-0.275,-0.515,9641.666666666666
-0.28,-0.535,9644.444444444445
-0.27,-0.525,9647.222222222223
-0.26,-0.495,9650.0
-0.245,-0.46,9652.777777777777
-0.225,-0.46,9655.555555555555
-0.225,-0.46,9658.333333333334
-0.225,-0.48,9661.111111111111
-0.215,-0.465,9663.888888888889
-0.205,-0.435,9666.666666666666
-0.18,-0.43,9669.444444444445
-0.185,-0.43,9672.222222222223
-0.195,-0.435,9675.0
-0.2,-0.46,9677.777777777777
-0.185,-0.445,9680.555555555555
-0.175,-0.405,9683.333333333334
-0.15,-0.385,9686.111111111111
-0.16,-0.385,9688.888888888889
-0.155,-0.405,9691.666666666666
-0.165,-0.395,9694.444444444445
-0.165,-0.38,9697.222222222223
-0.15,-0.34,9700.0
-0.14,-0.33,9702.777777777777
-0.13,-0.335,9705.555555555555
-0.15,-0.36,9708.333333333334
-0.16,-0.355,9711.111111111111
-0.175,-0.33,9713.888888888889
-0.165,-0.29,9716.666666666666
-0.145,-0.28,9719.444444444445
-0.15,-0.28,9722.222222222223
-0.165,-0.305,9725.0
-0.17,-0.275,9727.777777777777
-0.15,-0.24,9730.555555555555
-0.145,-0.195,9733.333333333334
-0.115,-0.195,9736.111111111111
-0.115,-0.205,9738.888888888889
-0.14,-0.215,9741.666666666666
-0.15,-0.21,9744.444444444445
-0.14,-0.165,9747.222222222223
-0.135,-0.15,9750.0
-0.13,-0.145,9752.777777777777
-0.135,-0.15,9755.555555555555
-0.16,-0.175,9758.333333333334
-0.16,-0.165,9761.111111111111
-0.155,-0.12,9763.888888888889
-0.13,-0.105,9766.666666666666
-0.135,-0.1,9769.444444444445
-0.14,-0.125,9772.222222222223
-0.14,-0.14,9775.0
-0.145,-0.13,9777.777777777777
-0.15,-0.1,9780.555555555555
-0.135,-0.08,9783.333333333334
-0.12,-0.09,9786.111111111111
-0.125,-0.11,9788.888888888889
-0.135,-0.12,9791.666666666666
-0.135,-0.11,9794.444444444445
-0.13,-0.085,9797.222222222223
-0.12,-0.075,9800.0
-0.11,-0.09,9802.777777777777
-0.11,-0.11,9805.555555555555
-0.12,-0.115,9808.333333333334
-0.14,-0.105,9811.111111111111
-0.145,-0.075,9813.888888888889
-0.14,-0.07,9816.666666666666
-0.135,-0.075,9819.444444444445
-0.12,-0.095,9822.222222222223
-0.14,-0.105,9825.0
-0.155,-0.085,9827.777777777777
-0.145,-0.07,9830.555555555555
-0.145,-0.065,9833.333333333334
-0.105,-0.075,9836.111111111111
-0.115,-0.09,9838.888888888889
-0.13,-0.09,9841.666666666666
-0.135,-0.075,9844.444444444445
-0.13,-0.065,9847.222222222223
-0.11,-0.055,9850.0
-0.105,-0.065,9852.777777777777
-0.11,-0.08,9855.555555555555
-0.12,-0.08,9858.333333333334
-0.13,-0.08,9861.111111111111
-0.125,-0.06,9863.888888888889
-0.13,-0.07,9866.666666666666
-0.12,-0.08,9869.444444444445
-0.13,-0.085,9872.222222222223
-0.125,-0.08,9875.0
-0.14,-0.07,9877.777777777777
-0.13,-0.065,9880.555555555555
-0.14,-0.065,9883.333333333334
-0.115,-0.085,9886.111111111111
-0.11,-0.07,9888.888888888889
-0.125,-0.065,9891.666666666666
-0.145,-0.05,9894.444444444445
-0.13,-0.065,9897.222222222223
-0.115,-0.065,9900.0
-0.1,-0.07,9902.777777777777
-0.1,-0.065,9905.555555555555
-0.11,-0.065,9908.333333333334
-0.115,-0.07,9911.111111111111
-0.12,-0.05,9913.888888888889
-0.11,-0.05,9916.666666666666
-0.1,-0.06,9919.444444444445
-0.12,-0.07,9922.222222222223
-0.12,-0.065,9925.0
-0.13,-0.055,9927.777777777777
-0.125,-0.065,9930.555555555555
-0.11,-0.07,9933.333333333334
-0.1,-0.06,9936.111111111111
-0.095,-0.06,9938.888888888889
-0.11,-0.06,9941.666666666666
-0.135,-0.055,9944.444444444445
-0.13,-0.06,9947.222222222223
-0.115,-0.06,9950.0
-0.11,-0.06,9952.777777777777
-0.1,-0.055,9955.555555555555
-0.11,-0.05,9958.333333333334
-0.11,-0.055,9961.111111111111
-0.105,-0.075,9963.888888888889
-0.1,-0.06,9966.666666666666
-0.08,-0.055,9969.444444444445
-0.085,-0.035,9972.222222222223
-0.105,-0.05,9975.0
-0.12,-0.055,9977.777777777777
-0.135,-0.05,9980.555555555555
-0.105,-0.055,9983.333333333334
-0.1,-0.055,9986.111111111111
-0.115,-0.05,9988.888888888889
-0.1,-0.045,9991.666666666666
-0.125,-0.05,9994.444444444445
-0.12,-0.055,9997.222222222223
-0.105,-0.065,10000.0
-0.095,-0.055,10002.777777777777
-0.095,-0.05,10005.555555555555
-0.105,-0.04,10008.333333333334
-0.11,-0.06,10011.111111111111
-0.1,-0.065,10013.888888888889
-0.09,-0.055,10016.666666666666
-0.075,-0.055,10019.444444444445
-0.08,-0.04,10022.222222222223
-0.095,-0.05,10025.0
-0.105,-0.065,10027.777777777777
-0.105,-0.065,10030.555555555555
-0.095,-0.06,10033.333333333334
-0.085,-0.05,10036.111111111111
-0.095,-0.04,10038.888888888889
-0.1,-0.05,10041.666666666666
-0.12,-0.075,10044.444444444445
-0.115,-0.075,10047.222222222223
-0.095,-0.06,10050.0
-0.095,-0.045,10052.777777777777
-0.105,-0.03,10055.555555555555
-0.11,-0.055,10058.333333333334
-0.125,-0.07,10061.111111111111
-0.115,-0.07,10063.888888888889
-0.095,-0.055,10066.666666666666
-0.075,-0.04,10069.444444444445
-0.075,-0.035,10072.222222222223
-0.1,-0.05,10075.0
-0.095,-0.075,10077.777777777777
-0.095,-0.08,10080.555555555555
-0.085,-0.065,10083.333333333334
-0.075,-0.05,10086.111111111111
-0.09,-0.045,10088.888888888889
-0.105,-0.065,10091.666666666666
-0.11,-0.07,10094.444444444445
-0.11,-0.08,10097.222222222223
-0.095,-0.055,10100.0
-0.085,-0.055,10102.777777777777
-0.09,-0.05,10105.555555555555
-0.105,-0.06,10108.333333333334
-0.115,-0.08,10111.111111111111
-0.11,-0.07,10113.888888888889
-0.085,-0.07,10116.666666666666
-0.1,-0.055,10119.444444444445
-0.095,-0.045,10122.222222222223
-0.085,-0.055,10125.0
-0.095,-0.075,10127.777777777777
-0.09,-0.075,10130.555555555555
-0.075,-0.065,10133.333333333334
-0.07,-0.05,10136.111111111111
-0.075,-0.045,10138.888888888889
-0.095,-0.065,10141.666666666666
-0.1,-0.08,10144.444444444445
-0.095,-0.075,10147.222222222223
-0.095,-0.055,10150.0
-0.09,-0.045,10152.777777777777
-0.09,-0.045,10155.555555555555
-0.1,-0.075,10158.333333333334
-0.11,-0.09,10161.111111111111
-0.105,-0.08,10163.888888888889
-0.1,-0.06,10166.666666666666
-0.08,-0.05,10169.444444444445
-0.09,-0.045,10172.222222222223
-0.085,-0.075,10175.0
-0.1,-0.1,10177.777777777777
-0.095,-0.08,10180.555555555555
-0.08,-0.06,10183.333333333334
-0.075,-0.04,10186.111111111111
-0.08,-0.05,10188.888888888889
-0.085,-0.095,10191.666666666666
-0.1,-0.09,10194.444444444445
-0.09,-0.085,10197.222222222223
-0.09,-0.065,10200.0
-0.08,-0.055,10202.777777777777
-0.085,-0.06,10205.555555555555
-0.1,-0.08,10208.333333333334
-0.105,-0.1,10211.111111111111
-0.11,-0.08,10213.888888888889
-0.095,-0.07,10216.666666666666
-0.09,-0.05,10219.444444444445
-0.095,-0.06,10222.222222222223
-0.11,-0.09,10225.0
-0.115,-0.1,10227.777777777777
-0.12,-0.09,10230.555555555555
-0.11,-0.06,10233.333333333334
-0.09,-0.05,10236.111111111111
-0.08,-0.06,10238.888888888889
-0.095,-0.09,10241.666666666666
-0.105,-0.1,10244.444444444445
-0.105,-0.085,10247.222222222223
-0.095,-0.07,10250.0
-0.09,-0.05,10252.777777777777
-0.1,-0.07,10255.555555555555
-0.105,-0.105,10258.333333333334
-0.12,-0.105,10261.111111111111
-0.125,-0.085,10263.888888888889
-0.1,-0.05,10266.666666666666
-0.095,-0.055,10269.444444444445
-0.12,-0.075,10272.222222222223
-0.11,-0.1,10275.0
-0.12,-0.11,10277.777777777777
-0.115,-0.075,10280.555555555555
-0.11,-0.055,10283.333333333334
-0.095,-0.055,10286.111111111111
-0.1,-0.075,10288.888888888889
-0.11,-0.1,10291.666666666666
-0.11,-0.105,10294.444444444445
-0.11,-0.07,10297.222222222223
-0.095,-0.06,10300.0
-0.085,-0.05,10302.777777777777
-0.095,-0.075,10305.555555555555
-0.105,-0.1,10308.333333333334
-0.11,-0.105,10311.111111111111
-0.12,-0.08,10313.888888888889
-0.11,-0.05,10316.666666666666
-0.09,-0.065,10319.444444444445
-0.09,-0.075,10322.222222222223
-0.11,-0.1,10325.0
-0.115,-0.105,10327.777777777777
-0.105,-0.065,10330.555555555555
-0.115,-0.05,10333.333333333334
-0.095,-0.06,10336.111111111111
-0.1,-0.095,10338.888888888889
-0.115,-0.1,10341.666666666666
-0.115,-0.09,10344.444444444445
-0.11,-0.07,10347.222222222223
-0.09,-0.065,10350.0
-0.09,-0.065,10352.777777777777
-0.09,-0.085,10355.555555555555
-0.105,-0.095,10358.333333333334
-0.11,-0.085,10361.111111111111
-0.115,-0.055,10363.888888888889
-0.095,-0.05,10366.666666666666
-0.1,-0.07,10369.444444444445
-0.1,-0.105,10372.222222222223
-0.11,-0.09,10375.0
-0.11,-0.075,10377.777777777777
-0.115,-0.075,10380.555555555555
-0.115,-0.06,10383.333333333334
-0.105,-0.07,10386.111111111111
-0.095,-0.085,10388.888888888889
-0.105,-0.095,10391.666666666666
-0.105,-0.075,10394.444444444445
-0.105,-0.065,10397.222222222223
-0.095,-0.065,10400.0
-0.085,-0.075,10402.777777777777
-0.085,-0.095,10405.555555555555
-0.1,-0.085,10408.333333333334
-0.11,-0.085,10411.111111111111
-0.105,-0.07,10413.888888888889
-0.105,-0.065,10416.666666666666
-0.1,-0.08,10419.444444444445
-0.095,-0.085,10422.222222222223
-0.125,-0.08,10425.0
-0.13,-0.085,10427.777777777777
-0.12,-0.07,10430.555555555555
-0.125,-0.08,10433.333333333334
-0.11,-0.075,10436.111111111111
-0.105,-0.08,10438.888888888889
-0.115,-0.075,10441.666666666666
-0.125,-0.085,10444.444444444445
-0.115,-0.09,10447.222222222223
-0.115,-0.08,10450.0
-0.095,-0.075,10452.777777777777
-0.095,-0.075,10455.555555555555
-0.105,-0.07,10458.333333333334
-0.125,-0.08,10461.111111111111
-0.11,-0.085,10463.888888888889
-0.11,-0.08,10466.666666666666
-0.1,-0.06,10469.444444444445
-0.11,-0.065,10472.222222222223
-0.12,-0.07,10475.0
-0.125,-0.085,10477.777777777777
-0.135,-0.09,10480.555555555555
-0.12,-0.075,10483.333333333334
-0.09,-0.06,10486.111111111111
-0.105,-0.06,10488.888888888889
-0.115,-0.08,10491.666666666666
-0.125,-0.085,10494.444444444445
-0.12,-0.085,10497.222222222223
-0.1,-0.07,10500.0
-0.1,-0.045,10502.777777777777
-0.1,-0.065,10505.555555555555
-0.11,-0.075,10508.333333333334
-0.115,-0.095,10511.111111111111
-0.115,-0.075,10513.888888888889
-0.095,-0.065,10516.666666666666
-0.09,-0.05,10519.444444444445
-0.105,-0.06,10522.222222222223
-0.125,-0.07,10525.0
-0.13,-0.095,10527.777777777777
-0.125,-0.08,10530.555555555555
-0.095,-0.055,10533.333333333334
-0.1,-0.05,10536.111111111111
-0.105,-0.05,10538.888888888889
-0.12,-0.085,10541.666666666666
-0.12,-0.09,10544.444444444445
-0.11,-0.06,10547.222222222223
-0.1,-0.045,10550.0
-0.105,-0.05,10552.777777777777
-0.115,-0.06,10555.555555555555
-0.11,-0.095,10558.333333333334
-0.11,-0.08,10561.111111111111
-0.105,-0.065,10563.888888888889
-0.085,-0.035,10566.666666666666
-0.08,-0.06,10569.444444444445
-0.095,-0.07,10572.222222222223
-0.11,-0.09,10575.0
-0.115,-0.065,10577.777777777777
-0.105,-0.04,10580.555555555555
-0.105,-0.04,10583.333333333334
-0.1,-0.045,10586.111111111111
-0.105,-0.07,10588.888888888889
-0.11,-0.08,10591.666666666666
-0.125,-0.08,10594.444444444445
-0.115,-0.045,10597.222222222223
-0.1,-0.045,10600.0
-0.095,-0.05,10602.777777777777
-0.1,-0.075,10605.555555555555
-0.11,-0.08,10608.333333333334
-0.13,-0.065,10611.111111111111
-0.11,-0.05,10613.888888888889
-0.1,-0.045,10616.666666666666
-0.08,-0.065,10619.444444444445
-0.09,-0.065,10622.222222222223
-0.1,-0.075,10625.0
-0.11,-0.055,10627.777777777777
-0.115,-0.04,10630.555555555555
-0.1,-0.05,10633.333333333334
-0.095,-0.065,10636.111111111111
-0.1,-0.065,10638.888888888889
-0.1,-0.06,10641.666666666666
-0.115,-0.065,10644.444444444445
-0.12,-0.055,10647.222222222223
-0.11,-0.055,10650.0
-0.09,-0.055,10652.777777777777
-0.1,-0.055,10655.555555555555
-0.115,-0.045,10658.333333333334
-0.12,-0.055,10661.111111111111
-0.105,-0.065,10663.888888888889
-0.095,-0.06,10666.666666666666
-0.095,-0.07,10669.444444444445
-0.125,-0.1,10672.222222222223
-0.15,-0.13,10675.0
-0.16,-0.17,10677.777777777777
-0.15,-0.2,10680.555555555555
-0.14,-0.235,10683.333333333334
-0.105,-0.25,10686.111111111111
-0.05,-0.255,10688.888888888889
0.05,-0.275,10691.666666666666
0.17,-0.285,10694.444444444445
0.285,-0.255,10697.222222222223
0.365,-0.24,10700.0
0.39,-0.22,10702.777777777777
0.425,-0.17,10705.555555555555
0.52,-0.04,10708.333333333334
0.66,0.245,10711.111111111111
0.765,0.645,10713.888888888889
0.785,0.895,10716.666666666666
0.75,0.985,10719.444444444445
0.66,0.99,10722.222222222223
0.585,1.025,10725.0
0.46,1.07,10727.777777777777
0.3,1.11,10730.555555555555
0.09,1.05,10733.333333333334
-0.08,0.905,10736.111111111111
-0.155,0.755,10738.888888888889
-0.2,0.675,10741.666666666666
-0.225,0.67,10744.444444444445
-0.27,0.65,10747.222222222223
-0.31,0.675,10750.0
-0.29,0.71,10752.777777777777
-0.23,0.79,10755.555555555555
-0.2,0.82,10758.333333333334
-0.155,0.825,10761.111111111111
-0.095,0.83,10763.888888888889
-0.055,0.83,10766.666666666666
-0.045,0.785,10769.444444444445
-0.075,0.66,10772.222222222223
-0.13,0.51,10775.0
-0.175,0.345,10777.777777777777
-0.195,0.23,10780.555555555555
-0.195,0.16,10783.333333333334
-0.18,0.095,10786.111111111111
-0.17,0.035,10788.888888888889
-0.19,-0.015,10791.666666666666
-0.19,-0.04,10794.444444444445
-0.195,-0.045,10797.222222222223
-0.175,-0.025,10800.0
-0.165,-0.035,10802.777777777777
-0.175,-0.06,10805.555555555555
-0.175,-0.095,10808.333333333334
-0.185,-0.095,10811.111111111111
-0.17,-0.075,10813.888888888889
-0.17,-0.05,10816.666666666666
-0.16,-0.07,10819.444444444445
-0.165,-0.08,10822.222222222223
-0.18,-0.105,10825.0
-0.175,-0.1,10827.777777777777
-0.175,-0.07,10830.555555555555
-0.185,-0.05,10833.333333333334
-0.16,-0.07,10836.111111111111
-0.17,-0.095,10838.888888888889
-0.17,-0.11,10841.666666666666
-0.18,-0.095,10844.444444444445
-0.18,-0.085,10847.222222222223
-0.17,-0.07,10850.0
-0.16,-0.095,10852.777777777777
-0.16,-0.1,10855.555555555555
-0.17,-0.11,10858.333333333334
-0.18,-0.095,10861.111111111111
-0.165,-0.08,10863.888888888889
-0.15,-0.07,10866.666666666666
-0.145,-0.09,10869.444444444445
-0.145,-0.095,10872.222222222223
-0.15,-0.095,10875.0
-0.16,-0.08,10877.777777777777
-0.165,-0.075,10880.555555555555
-0.15,-0.08,10883.333333333334
-0.145,-0.085,10886.111111111111
-0.145,-0.09,10888.888888888889
-0.145,-0.08,10891.666666666666
-0.15,-0.07,10894.444444444445
-0.15,-0.06,10897.222222222223
-0.12,-0.06,10900.0
-0.12,-0.07,10902.777777777777
-0.12,-0.07,10905.555555555555
-0.13,-0.065,10908.333333333334
-0.135,-0.065,10911.111111111111
-0.12,-0.05,10913.888888888889
-0.1,-0.06,10916.666666666666
-0.085,-0.06,10919.444444444445
-0.085,-0.04,10922.222222222223
-0.09,-0.04,10925.0
-0.09,-0.045,10927.777777777777
-0.08,-0.02,10930.555555555555
-0.085,-0.03,10933.333333333334
-0.06,-0.015,10936.111111111111
-0.07,-0.005,10938.888888888889
-0.09,0.0,10941.666666666666
-0.09,-0.015,10944.444444444445
-0.08,-0.005,10947.222222222223
-0.06,0.015,10950.0
-0.05,0.015,10952.777777777777
-0.045,0.025,10955.555555555555
-0.055,0.025,10958.333333333334
-0.055,0.02,10961.111111111111
-0.05,0.025,10963.888888888889
-0.025,0.05,10966.666666666666
-0.025,0.06,10969.444444444445
-0.02,0.065,10972.222222222223
-0.005,0.065,10975.0
-0.025,0.065,10977.777777777777
-0.02,0.06,10980.555555555555
0.005,0.075,10983.333333333334
0.02,0.11,10986.111111111111
0.02,0.105,10988.888888888889
-0.005,0.105,10991.666666666666
-0.015,0.09,10994.444444444445
0.005,0.095,10997.222222222223
0.015,0.12,11000.0
0.03,0.125,11002.777777777777
0.025,0.14,11005.555555555555
0.015,0.125,11008.333333333334
0.01,0.125,11011.111111111111
0.025,0.125,11013.888888888889
0.04,0.155,11016.666666666666
0.045,0.16,11019.444444444445
0.06,0.165,11022.222222222223
0.06,0.155,11025.0
0.045,0.14,11027.777777777777
0.06,0.16,11030.555555555555
0.065,0.175,11033.333333333334
0.08,0.2,11036.111111111111
0.08,0.185,11038.888888888889
0.07,0.17,11041.666666666666
0.06,0.165,11044.444444444445
0.065,0.18,11047.222222222223
0.08,0.21,11050.0
0.085,0.23,11052.777777777777
0.095,0.21,11055.555555555555
0.075,0.19,11058.333333333334
0.07,0.195,11061.111111111111
0.09,0.22,11063.888888888889
0.085,0.245,11066.666666666666
0.105,0.25,11069.444444444445
0.1,0.235,11072.222222222223
0.09,0.215,11075.0
0.095,0.21,11077.777777777777
0.095,0.24,11080.555555555555
0.1,0.265,11083.333333333334
0.12,0.265,11086.111111111111
0.115,0.245,11088.888888888889
0.1,0.24,11091.666666666666
0.105,0.24,11094.444444444445
0.1,0.265,11097.222222222223
0.105,0.3,11100.0
0.115,0.305,11102.777777777777
0.105,0.28,11105.555555555555
0.09,0.26,11108.333333333334
0.085,0.275,11111.111111111111
0.09,0.29,11113.888888888889
0.105,0.325,11116.666666666666
0.105,0.325,11119.444444444445
0.11,0.315,11122.222222222223
0.09,0.29,11125.0
0.08,0.3,11127.777777777777
0.085,0.33,11130.555555555555
0.095,0.37,11133.333333333334
0.1,0.36,11136.111111111111
0.11,0.355,11138.888888888889
0.1,0.335,11141.666666666666
0.09,0.36,11144.444444444445
0.085,0.38,11147.222222222223
0.085,0.415,11150.0
0.1,0.395,11152.777777777777
0.085,0.38,11155.555555555555
0.075,0.37,11158.333333333334
0.07,0.375,11161.111111111111
0.07,0.415,11163.888888888889
0.09,0.43,11166.666666666666
0.09,0.42,11169.444444444445
0.08,0.39,11172.222222222223
0.065,0.395,11175.0
0.075,0.4,11177.777777777777
0.08,0.42,11180.555555555555
0.095,0.435,11183.333333333334
0.105,0.42,11186.111111111111
0.105,0.395,11188.888888888889
0.1,0.4,11191.666666666666
0.1,0.42,11194.444444444445
0.11,0.43,11197.222222222223
0.12,0.445,11200.0
0.125,0.43,11202.777777777777
0.115,0.42,11205.555555555555
0.11,0.4,11208.333333333334
0.11,0.41,11211.111111111111
0.105,0.44,11213.888888888889
0.12,0.455,11216.666666666666
0.135,0.435,11219.444444444445
0.14,0.41,11222.222222222223
0.135,0.415,11225.0
0.12,0.415,11227.777777777777
0.13,0.445,11230.555555555555
0.155,0.465,11233.333333333334
0.165,0.44,11236.111111111111
0.165,0.43,11238.888888888889
0.17,0.425,11241.666666666666
0.165,0.435,11244.444444444445
0.17,0.45,11247.222222222223
0.205,0.47,11250.0
0.205,0.46,11252.777777777777
0.2,0.435,11255.555555555555
0.19,0.435,11258.333333333334
0.195,0.46,11261.111111111111
0.22,0.465,11263.888888888889
0.24,0.475,11266.666666666666
0.24,0.475,11269.444444444445
0.235,0.445,11272.222222222223
0.245,0.435,11275.0
0.235,0.45,11277.777777777777
0.24,0.45,11280.555555555555
0.22,0.445,11283.333333333334
0.21,0.415,11286.111111111111
0.185,0.38,11288.888888888889
0.16,0.365,11291.666666666666
0.155,0.365,11294.444444444445
0.16,0.375,11297.222222222223
0.14,0.35,11300.0
0.155,0.315,11302.777777777777
0.135,0.27,11305.555555555555
0.115,0.275,11308.333333333334
0.105,0.275,11311.111111111111
0.1,0.285,11313.888888888889
0.095,0.28,11316.666666666666
0.065,0.255,11319.444444444445
0.035,0.235,11322.222222222223
0.015,0.23,11325.0
0.0,0.245,11327.777777777777
-0.02,0.245,11330.555555555555
-0.035,0.25,11333.333333333334
-0.105,0.23,11336.111111111111
-0.225,0.215,11338.888888888889
-0.32,0.24,11341.666666666666
-0.385,0.305,11344.444444444445
-0.455,0.38,11347.222222222223
-0.545,0.41,11350.0
-0.655,0.4,11352.777777777777
-0.77,0.315,11355.555555555555
-0.865,0.26,11358.333333333334
-0.925,0.205,11361.111111111111
-0.98,0.17,11363.888888888889
