MLII,V1,time_ms
-0.105,0.19,0.0
-0.105,0.19,2.7777777777777777
-0.105,0.19,5.555555555555555
-0.105,0.19,8.333333333333334
-0.105,0.19,11.11111111111111
-0.105,0.19,13.88888888888889
-0.105,0.19,16.666666666666668
-0.105,0.19,19.444444444444443
-0.125,0.19,22.22222222222222
-0.145,0.22,25.0
-0.15,0.225,27.77777777777778
-0.175,0.25,30.555555555555557
-0.195,0.225,33.333333333333336
-0.205,0.21,36.111111111111114
-0.2,0.21,38.888888888888886
-0.2,0.22,41.666666666666664
-0.195,0.23,44.44444444444444
-0.2,0.23,47.22222222222222
-0.2,0.215,50.0
-0.21,0.21,52.77777777777778
-0.21,0.215,55.55555555555556
-0.19,0.225,58.333333333333336
-0.19,0.23,61.111111111111114
-0.2,0.24,63.888888888888886
-0.215,0.23,66.66666666666667
-0.225,0.22,69.44444444444444
-0.225,0.225,72.22222222222223
-0.21,0.23,75.0
-0.21,0.255,77.77777777777777
-0.23,0.27,80.55555555555556
-0.245,0.27,83.33333333333333
-0.26,0.265,86.11111111111111
-0.255,0.26,88.88888888888889
-0.245,0.285,91.66666666666667
-0.23,0.295,94.44444444444444
-0.245,0.295,97.22222222222223
-0.28,0.295,100.0
-0.255,0.28,102.77777777777777
-0.165,0.275,105.55555555555556
-0.015,0.225,108.33333333333333
0.16,0.11,111.11111111111111
0.375,-0.04,113.88888888888889
0.645,-0.175,116.66666666666667
0.985,-0.27,119.44444444444444
1.37,-0.35,122.22222222222223
1.725,-0.395,125.0
1.935,-0.395,127.77777777777777
1.895,-0.33,130.55555555555554
1.625,-0.225,133.33333333333334
1.28,-0.12,136.11111111111111
0.915,-0.015,138.88888888888889
0.55,0.09,141.66666666666666
0.26,0.12,144.44444444444446
0.045,0.11,147.22222222222223
-0.11,0.105,150.0
-0.21,0.115,152.77777777777777
-0.255,0.14,155.55555555555554
-0.26,0.19,158.33333333333334
-0.235,0.22,161.11111111111111
-0.235,0.225,163.88888888888889
-0.27,0.205,166.66666666666666
-0.29,0.205,169.44444444444446
-0.305,0.23,172.22222222222223
-0.295,0.24,175.0
-0.295,0.265,177.77777777777777
-0.3,0.255,180.55555555555554
-0.33,0.24,183.33333333333334
-0.335,0.225,186.11111111111111
-0.325,0.24,188.88888888888889
-0.325,0.25,191.66666666666666
-0.315,0.26,194.44444444444446
-0.32,0.26,197.22222222222223
-0.33,0.26,200.0
-0.33,0.24,202.77777777777777
-0.325,0.24,205.55555555555554
-0.315,0.265,208.33333333333334
-0.32,0.26,211.11111111111111
-0.325,0.26,213.88888888888889
-0.325,0.245,216.66666666666666
-0.34,0.245,219.44444444444446
-0.325,0.24,222.22222222222223
-0.3,0.255,225.0
-0.3,0.265,227.77777777777777
-0.315,0.26,230.55555555555554
-0.32,0.235,233.33333333333334
-0.335,0.235,236.11111111111111
-0.33,0.24,238.88888888888889
-0.305,0.26,241.66666666666666
-0.3,0.26,244.44444444444446
-0.31,0.27,247.22222222222223
-0.325,0.25,250.0
-0.335,0.235,252.77777777777777
-0.315,0.24,255.55555555555554
-0.295,0.24,258.3333333333333
-0.31,0.255,261.1111111111111
-0.31,0.25,263.8888888888889
-0.325,0.215,266.6666666666667
-0.315,0.2,269.44444444444446
-0.3,0.215,272.22222222222223
-0.29,0.225,275.0
-0.275,0.23,277.77777777777777
-0.275,0.215,280.55555555555554
-0.285,0.195,283.3333333333333
-0.29,0.185,286.1111111111111
-0.275,0.185,288.8888888888889
-0.26,0.19,291.6666666666667
-0.245,0.2,294.44444444444446
-0.255,0.185,297.22222222222223
-0.255,0.165,300.0
-0.255,0.15,302.77777777777777
-0.23,0.14,305.55555555555554
-0.21,0.145,308.3333333333333
-0.18,0.15,311.1111111111111
-0.17,0.14,313.8888888888889
-0.17,0.11,316.6666666666667
-0.17,0.09,319.44444444444446
-0.165,0.095,322.22222222222223
-0.13,0.09,325.0
-0.11,0.085,327.77777777777777
-0.11,0.075,330.55555555555554
-0.11,0.065,333.3333333333333
-0.105,0.035,336.1111111111111
-0.095,0.04,338.8888888888889
-0.08,0.06,341.6666666666667
-0.05,0.05,344.44444444444446
-0.05,0.055,347.22222222222223
-0.05,0.04,350.0
-0.05,0.03,352.77777777777777
-0.04,0.025,355.55555555555554
-0.02,0.045,358.3333333333333
-0.015,0.07,361.1111111111111
-0.02,0.08,363.8888888888889
-0.045,0.07,366.6666666666667
-0.05,0.085,369.44444444444446
-0.05,0.095,372.22222222222223
-0.035,0.12,375.0
-0.045,0.15,377.77777777777777
-0.065,0.165,380.55555555555554
-0.105,0.18,383.3333333333333
-0.115,0.16,386.1111111111111
-0.12,0.185,388.8888888888889
-0.11,0.215,391.6666666666667
-0.115,0.245,394.44444444444446
-0.15,0.23,397.22222222222223
-0.18,0.24,400.0
-0.195,0.235,402.77777777777777
-0.195,0.245,405.55555555555554
-0.195,0.26,408.3333333333333
-0.195,0.275,411.1111111111111
-0.215,0.28,413.8888888888889
-0.245,0.275,416.6666666666667
-0.25,0.255,419.44444444444446
-0.245,0.265,422.22222222222223
-0.235,0.28,425.0
-0.235,0.295,427.77777777777777
-0.235,0.29,430.55555555555554
-0.26,0.27,433.3333333333333
-0.27,0.26,436.1111111111111
-0.255,0.27,438.8888888888889
-0.24,0.29,441.6666666666667
-0.245,0.295,444.44444444444446
-0.26,0.285,447.22222222222223
-0.285,0.27,450.0
-0.29,0.265,452.77777777777777
-0.265,0.275,455.55555555555554
-0.25,0.295,458.3333333333333
-0.255,0.3,461.1111111111111
-0.255,0.3,463.8888888888889
-0.27,0.28,466.6666666666667
-0.28,0.27,469.44444444444446
-0.26,0.28,472.22222222222223
-0.245,0.305,475.0
-0.245,0.3,477.77777777777777
-0.245,0.29,480.55555555555554
-0.27,0.275,483.3333333333333
-0.26,0.265,486.1111111111111
-0.24,0.265,488.8888888888889
-0.235,0.28,491.6666666666667
-0.24,0.305,494.44444444444446
-0.25,0.305,497.22222222222223
-0.255,0.285,500.0
-0.25,0.26,502.77777777777777
-0.225,0.28,505.55555555555554
-0.19,0.28,508.3333333333333
-0.19,0.27,511.1111111111111
-0.195,0.25,513.8888888888889
-0.195,0.225,516.6666666666666
-0.165,0.195,519.4444444444445
-0.13,0.18,522.2222222222222
-0.065,0.165,525.0
-0.02,0.115,527.7777777777778
-0.005,0.08,530.5555555555555
0.04,0.015,533.3333333333334
0.115,-0.04,536.1111111111111
0.225,-0.1,538.8888888888889
0.33,-0.16,541.6666666666666
0.415,-0.245,544.4444444444445
0.47,-0.32,547.2222222222222
0.53,-0.41,550.0
0.625,-0.465,552.7777777777778
0.77,-0.55,555.5555555555555
0.89,-0.6,558.3333333333334
1.0,-0.66,561.1111111111111
1.07,-0.725,563.8888888888889
1.155,-0.785,566.6666666666666
1.265,-0.825,569.4444444444445
1.4,-0.855,572.2222222222222
1.535,-0.87,575.0
1.66,-0.875,577.7777777777778
1.705,-0.885,580.5555555555555
1.675,-0.86,583.3333333333334
1.6,-0.8,586.1111111111111
1.525,-0.725,588.8888888888889
1.47,-0.625,591.6666666666666
1.405,-0.535,594.4444444444445
1.31,-0.45,597.2222222222222
1.225,-0.345,600.0
1.195,-0.25,602.7777777777778
1.15,-0.165,605.5555555555555
1.085,-0.1,608.3333333333334
1.01,-0.065,611.1111111111111
0.935,-0.055,613.8888888888889
0.875,-0.045,616.6666666666666
0.885,-0.055,619.4444444444445
0.9,-0.04,622.2222222222222
0.875,-0.045,625.0
0.76,-0.065,627.7777777777778
0.605,-0.06,630.5555555555555
0.455,-0.045,633.3333333333334
0.28,-0.005,636.1111111111111
0.125,0.07,638.8888888888889
-0.07,0.165,641.6666666666666
-0.245,0.255,644.4444444444445
-0.4,0.335,647.2222222222222
-0.49,0.365,650.0
-0.51,0.41,652.7777777777778
-0.545,0.42,655.5555555555555
-0.595,0.46,658.3333333333334
-0.635,0.465,661.1111111111111
-0.655,0.48,663.8888888888889
-0.675,0.485,666.6666666666666
-0.685,0.495,669.4444444444445
-0.705,0.505,672.2222222222222
-0.72,0.525,675.0
-0.72,0.525,677.7777777777778
-0.735,0.535,680.5555555555555
-0.75,0.535,683.3333333333334
-0.765,0.55,686.1111111111111
-0.75,0.545,688.8888888888889
-0.77,0.57,691.6666666666666
-0.795,0.595,694.4444444444445
-0.795,0.6,697.2222222222222
-0.82,0.6,700.0
-0.82,0.6,702.7777777777778
-0.825,0.615,705.5555555555555
-0.855,0.63,708.3333333333334
-0.86,0.65,711.1111111111111
-0.88,0.665,713.8888888888889
-0.885,0.66,716.6666666666666
-0.905,0.665,719.4444444444445
-0.905,0.68,722.2222222222222
-0.905,0.695,725.0
-0.925,0.725,727.7777777777778
-0.94,0.735,730.5555555555555
-0.975,0.735,733.3333333333334
-0.98,0.75,736.1111111111111
-0.98,0.755,738.8888888888889
-0.965,0.785,741.6666666666666
-0.965,0.8,744.4444444444445
-0.995,0.795,747.2222222222222
-1.015,0.79,750.0
-1.02,0.79,752.7777777777778
-1.025,0.815,755.5555555555555
-1.03,0.825,758.3333333333334
-1.035,0.825,761.1111111111111
-1.035,0.825,763.8888888888889
-1.04,0.81,766.6666666666666
-1.035,0.79,769.4444444444445
-1.04,0.79,772.2222222222222
-0.995,0.78,775.0
-0.99,0.775,777.7777777777778
-1.0,0.77,780.5555555555555
-1.01,0.72,783.3333333333334
-0.995,0.7,786.1111111111111
-0.965,0.675,788.8888888888889
-0.91,0.67,791.6666666666666
-0.905,0.64,794.4444444444445
-0.905,0.62,797.2222222222222
-0.885,0.585,800.0
-0.85,0.535,802.7777777777778
-0.79,0.515,805.5555555555555
-0.745,0.515,808.3333333333334
-0.72,0.49,811.1111111111111
-0.715,0.475,813.8888888888889
-0.695,0.425,816.6666666666666
-0.665,0.405,819.4444444444445
-0.605,0.4,822.2222222222222
-0.565,0.385,825.0
-0.54,0.395,827.7777777777778
-0.53,0.365,830.5555555555555
-0.515,0.33,833.3333333333334
-0.475,0.32,836.1111111111111
-0.445,0.32,838.8888888888889
-0.415,0.33,841.6666666666666
-0.41,0.315,844.4444444444445
-0.41,0.31,847.2222222222222
-0.41,0.29,850.0
-0.395,0.275,852.7777777777778
-0.38,0.295,855.5555555555555
-0.355,0.29,858.3333333333334
-0.355,0.295,861.1111111111111
-0.385,0.295,863.8888888888889
-0.39,0.285,866.6666666666666
-0.39,0.275,869.4444444444445
-0.36,0.28,872.2222222222222
-0.34,0.295,875.0
-0.35,0.31,877.7777777777778
-0.365,0.295,880.5555555555555
-0.385,0.285,883.3333333333334
-0.385,0.28,886.1111111111111
-0.36,0.295,888.8888888888889
-0.345,0.295,891.6666666666666
-0.365,0.29,894.4444444444445
-0.36,0.29,897.2222222222222
-0.37,0.295,900.0
-0.36,0.275,902.7777777777778
-0.345,0.29,905.5555555555555
-0.34,0.29,908.3333333333334
-0.36,0.29,911.1111111111111
-0.37,0.29,913.8888888888889
-0.37,0.265,916.6666666666666
-0.355,0.275,919.4444444444445
-0.335,0.28,922.2222222222222
-0.33,0.27,925.0
-0.345,0.28,927.7777777777778
-0.35,0.275,930.5555555555555
-0.355,0.27,933.3333333333334
-0.335,0.255,936.1111111111111
-0.33,0.255,938.8888888888889
-0.32,0.265,941.6666666666666
-0.32,0.275,944.4444444444445
-0.325,0.275,947.2222222222222
-0.34,0.255,950.0
-0.32,0.245,952.7777777777778
-0.305,0.245,955.5555555555555
-0.305,0.255,958.3333333333334
-0.295,0.265,961.1111111111111
-0.29,0.265,963.8888888888889
-0.3,0.255,966.6666666666666
-0.3,0.255,969.4444444444445
-0.295,0.255,972.2222222222222
-0.29,0.26,975.0
-0.28,0.26,977.7777777777778
-0.295,0.265,980.5555555555555
-0.305,0.26,983.3333333333334
-0.3,0.245,986.1111111111111
-0.29,0.25,988.8888888888889
-0.28,0.245,991.6666666666666
-0.285,0.255,994.4444444444445
-0.28,0.26,997.2222222222222
-0.315,0.23,1000.0
-0.285,0.23,1002.7777777777778
-0.275,0.23,1005.5555555555555
-0.265,0.255,1008.3333333333334
-0.26,0.255,1011.1111111111111
-0.275,0.265,1013.8888888888889
-0.29,0.245,1016.6666666666666
-0.28,0.225,1019.4444444444445
-0.275,0.235,1022.2222222222222
-0.265,0.245,1025.0
-0.26,0.26,1027.7777777777778
-0.27,0.245,1030.5555555555557
-0.285,0.235,1033.3333333333333
-0.28,0.23,1036.111111111111
-0.265,0.23,1038.888888888889
-0.255,0.23,1041.6666666666667
-0.26,0.245,1044.4444444444443
-0.27,0.245,1047.2222222222222
-0.28,0.23,1050.0
-0.28,0.215,1052.7777777777778
-0.27,0.215,1055.5555555555557
-0.26,0.245,1058.3333333333333
-0.26,0.245,1061.111111111111
-0.255,0.235,1063.888888888889
-0.275,0.21,1066.6666666666667
-0.29,0.205,1069.4444444444443
-0.275,0.22,1072.2222222222222
-0.25,0.24,1075.0
-0.255,0.25,1077.7777777777778
-0.26,0.24,1080.5555555555557
-0.285,0.22,1083.3333333333333
-0.29,0.22,1086.111111111111
-0.28,0.225,1088.888888888889
-0.26,0.235,1091.6666666666667
-0.25,0.25,1094.4444444444443
-0.285,0.24,1097.2222222222222
-0.28,0.215,1100.0
-0.28,0.205,1102.7777777777778
-0.265,0.22,1105.5555555555557
-0.245,0.23,1108.3333333333333
-0.235,0.245,1111.111111111111
-0.265,0.235,1113.888888888889
-0.28,0.215,1116.6666666666667
-0.28,0.215,1119.4444444444443
-0.255,0.215,1122.2222222222222
-0.235,0.23,1125.0
-0.23,0.24,1127.7777777777778
-0.25,0.22,1130.5555555555557
-0.26,0.22,1133.3333333333333
-0.26,0.205,1136.111111111111
-0.235,0.21,1138.888888888889
-0.235,0.225,1141.6666666666667
-0.23,0.22,1144.4444444444443
-0.25,0.22,1147.2222222222222
-0.255,0.2,1150.0
-0.255,0.2,1152.7777777777778
-0.235,0.22,1155.5555555555557
-0.22,0.22,1158.3333333333333
-0.235,0.225,1161.111111111111
-0.245,0.215,1163.888888888889
-0.26,0.21,1166.6666666666667
-0.255,0.2,1169.4444444444443
-0.23,0.215,1172.2222222222222
-0.21,0.225,1175.0
-0.21,0.23,1177.7777777777778
-0.23,0.23,1180.5555555555557
-0.23,0.225,1183.3333333333333
-0.21,0.22,1186.111111111111
-0.18,0.24,1188.888888888889
-0.15,0.255,1191.6666666666667
-0.16,0.255,1194.4444444444443
-0.17,0.255,1197.2222222222222
-0.175,0.25,1200.0
-0.135,0.24,1202.7777777777778
-0.09,0.245,1205.5555555555557
-0.065,0.255,1208.3333333333333
-0.065,0.24,1211.111111111111
-0.095,0.23,1213.888888888889
-0.105,0.195,1216.6666666666667
-0.095,0.175,1219.4444444444443
-0.09,0.185,1222.2222222222222
-0.07,0.19,1225.0
-0.085,0.18,1227.7777777777778
-0.125,0.17,1230.5555555555557
-0.145,0.17,1233.3333333333333
-0.15,0.165,1236.111111111111
-0.145,0.17,1238.888888888889
-0.165,0.18,1241.6666666666667
-0.205,0.185,1244.4444444444443
-0.245,0.19,1247.2222222222222
-0.25,0.195,1250.0
-0.235,0.19,1252.7777777777778
-0.21,0.19,1255.5555555555557
-0.22,0.21,1258.3333333333333
-0.24,0.215,1261.111111111111
-0.255,0.205,1263.888888888889
-0.265,0.195,1266.6666666666667
-0.255,0.2,1269.4444444444443
-0.235,0.19,1272.2222222222222
-0.25,0.2,1275.0
-0.27,0.215,1277.7777777777778
-0.29,0.2,1280.5555555555557
-0.28,0.195,1283.3333333333333
-0.245,0.2,1286.111111111111
-0.22,0.2,1288.888888888889
-0.235,0.21,1291.6666666666667
-0.245,0.21,1294.4444444444443
-0.26,0.205,1297.2222222222222
-0.26,0.19,1300.0
-0.25,0.185,1302.7777777777778
-0.225,0.19,1305.5555555555557
-0.225,0.19,1308.3333333333333
-0.25,0.17,1311.111111111111
-0.27,0.18,1313.888888888889
-0.26,0.17,1316.6666666666667
-0.2,0.165,1319.4444444444443
-0.085,0.13,1322.2222222222222
0.06,0.085,1325.0
0.215,0.02,1327.7777777777778
0.42,-0.04,1330.5555555555557
0.68,-0.045,1333.3333333333333
0.98,-0.035,1336.111111111111
1.265,-0.045,1338.888888888889
1.465,-0.04,1341.6666666666667
1.485,0.01,1344.4444444444443
1.26,0.085,1347.2222222222222
0.935,0.13,1350.0
0.59,0.135,1352.7777777777778
0.24,0.15,1355.5555555555557
-0.03,0.13,1358.3333333333333
-0.18,0.105,1361.111111111111
-0.255,0.09,1363.888888888889
-0.255,0.095,1366.6666666666667
-0.27,0.11,1369.4444444444443
-0.27,0.155,1372.2222222222222
-0.275,0.18,1375.0
-0.265,0.21,1377.7777777777778
-0.27,0.215,1380.5555555555557
-0.275,0.21,1383.3333333333333
-0.285,0.21,1386.111111111111
-0.295,0.215,1388.888888888889
-0.305,0.235,1391.6666666666667
-0.31,0.23,1394.4444444444443
-0.31,0.23,1397.2222222222222
-0.31,0.225,1400.0
-0.315,0.22,1402.7777777777778
-0.315,0.215,1405.5555555555557
-0.32,0.22,1408.3333333333333
-0.305,0.23,1411.111111111111
-0.295,0.23,1413.888888888889
-0.29,0.225,1416.6666666666667
-0.3,0.215,1419.4444444444443
-0.32,0.22,1422.2222222222222
-0.295,0.225,1425.0
-0.295,0.225,1427.7777777777778
-0.295,0.24,1430.5555555555557
-0.295,0.22,1433.3333333333333
-0.295,0.21,1436.111111111111
-0.285,0.22,1438.888888888889
-0.28,0.23,1441.6666666666667
-0.28,0.245,1444.4444444444443
-0.26,0.24,1447.2222222222222
-0.29,0.225,1450.0
-0.27,0.205,1452.7777777777778
-0.265,0.2,1455.5555555555557
-0.25,0.21,1458.3333333333333
-0.245,0.215,1461.111111111111
-0.245,0.215,1463.888888888889
-0.27,0.195,1466.6666666666667
-0.255,0.18,1469.4444444444443
-0.245,0.165,1472.2222222222222
-0.225,0.185,1475.0
-0.215,0.195,1477.7777777777778
-0.215,0.18,1480.5555555555557
-0.23,0.16,1483.3333333333333
-0.225,0.155,1486.111111111111
-0.195,0.16,1488.888888888889
-0.195,0.16,1491.6666666666667
-0.185,0.175,1494.4444444444443
-0.195,0.15,1497.2222222222222
-0.185,0.135,1500.0
-0.17,0.12,1502.7777777777778
-0.15,0.12,1505.5555555555557
-0.13,0.13,1508.3333333333333
-0.12,0.12,1511.111111111111
-0.125,0.115,1513.888888888889
-0.12,0.085,1516.6666666666667
-0.11,0.065,1519.4444444444443
-0.08,0.055,1522.2222222222222
-0.06,0.055,1525.0
-0.035,0.05,1527.7777777777778
-0.03,0.04,1530.5555555555557
-0.03,0.005,1533.3333333333333
-0.015,-0.01,1536.111111111111
0.005,-0.015,1538.888888888889
0.04,-0.015,1541.6666666666667
0.06,-0.015,1544.4444444444443
0.07,-0.02,1547.2222222222222
0.06,-0.055,1550.0
0.065,-0.075,1552.7777777777778
0.09,-0.065,1555.5555555555557
0.125,-0.075,1558.3333333333333
0.15,-0.06,1561.111111111111
0.12,-0.06,1563.888888888889
0.125,-0.085,1566.6666666666667
0.12,-0.09,1569.4444444444443
0.14,-0.09,1572.2222222222222
0.17,-0.06,1575.0
0.175,-0.045,1577.7777777777778
0.16,-0.05,1580.5555555555557
0.145,-0.055,1583.3333333333333
0.125,-0.05,1586.111111111111
0.14,-0.02,1588.888888888889
0.145,0.0,1591.6666666666667
0.14,0.03,1594.4444444444443
0.11,0.045,1597.2222222222222
0.07,0.045,1600.0
0.04,0.055,1602.7777777777778
0.03,0.085,1605.5555555555557
0.04,0.125,1608.3333333333333
0.02,0.15,1611.111111111111
-0.02,0.155,1613.888888888889
-0.06,0.155,1616.6666666666667
-0.07,0.17,1619.4444444444443
-0.08,0.195,1622.2222222222222
-0.075,0.215,1625.0
-0.085,0.245,1627.7777777777778
-0.115,0.24,1630.5555555555557
-0.16,0.24,1633.3333333333333
-0.18,0.24,1636.111111111111
-0.165,0.26,1638.888888888889
-0.165,0.27,1641.6666666666667
-0.165,0.29,1644.4444444444443
-0.205,0.28,1647.2222222222222
-0.235,0.27,1650.0
-0.23,0.26,1652.7777777777778
-0.22,0.28,1655.5555555555557
-0.2,0.29,1658.3333333333333
-0.21,0.305,1661.111111111111
-0.225,0.305,1663.888888888889
-0.255,0.29,1666.6666666666667
-0.25,0.28,1669.4444444444443
-0.225,0.295,1672.2222222222222
-0.22,0.3,1675.0
-0.21,0.315,1677.7777777777778
-0.235,0.305,1680.5555555555557
-0.25,0.285,1683.3333333333333
-0.255,0.28,1686.111111111111
-0.23,0.285,1688.888888888889
-0.225,0.305,1691.6666666666667
-0.225,0.315,1694.4444444444443
-0.225,0.305,1697.2222222222222
-0.255,0.29,1700.0
-0.245,0.275,1702.7777777777778
-0.23,0.285,1705.5555555555557
-0.21,0.285,1708.3333333333333
-0.2,0.29,1711.111111111111
-0.215,0.28,1713.888888888889
-0.235,0.275,1716.6666666666667
-0.23,0.26,1719.4444444444443
-0.22,0.255,1722.2222222222222
-0.205,0.275,1725.0
-0.2,0.285,1727.7777777777778
-0.23,0.27,1730.5555555555557
-0.245,0.25,1733.3333333333333
-0.235,0.24,1736.111111111111
-0.215,0.245,1738.888888888889
-0.2,0.275,1741.6666666666667
-0.195,0.27,1744.4444444444443
-0.22,0.265,1747.2222222222222
-0.25,0.245,1750.0
-0.26,0.25,1752.7777777777778
-0.23,0.26,1755.5555555555557
-0.22,0.275,1758.3333333333333
-0.21,0.275,1761.111111111111
-0.225,0.265,1763.888888888889
-0.245,0.26,1766.6666666666667
-0.22,0.265,1769.4444444444443
-0.2,0.275,1772.2222222222222
-0.175,0.3,1775.0
-0.16,0.305,1777.7777777777778
-0.18,0.3,1780.5555555555557
-0.18,0.285,1783.3333333333333
-0.155,0.275,1786.111111111111
-0.115,0.27,1788.888888888889
-0.08,0.29,1791.6666666666667
-0.06,0.295,1794.4444444444443
-0.07,0.27,1797.2222222222222
-0.08,0.235,1800.0
-0.085,0.225,1802.7777777777778
-0.065,0.22,1805.5555555555557
-0.055,0.21,1808.3333333333333
-0.06,0.215,1811.111111111111
-0.085,0.225,1813.888888888889
-0.115,0.195,1816.6666666666667
-0.125,0.19,1819.4444444444443
-0.135,0.21,1822.2222222222222
-0.13,0.215,1825.0
-0.14,0.225,1827.7777777777778
-0.18,0.225,1830.5555555555557
-0.22,0.21,1833.3333333333333
-0.24,0.22,1836.111111111111
-0.245,0.245,1838.888888888889
-0.24,0.28,1841.6666666666667
-0.235,0.305,1844.4444444444443
-0.255,0.285,1847.2222222222222
-0.26,0.275,1850.0
-0.235,0.26,1852.7777777777778
-0.195,0.23,1855.5555555555557
-0.15,0.215,1858.3333333333333
-0.1,0.17,1861.111111111111
-0.06,0.125,1863.888888888889
-0.035,0.06,1866.6666666666667
0.035,0.0,1869.4444444444443
0.115,-0.06,1872.2222222222222
0.2,-0.12,1875.0
0.29,-0.22,1877.7777777777778
0.35,-0.335,1880.5555555555557
0.415,-0.445,1883.3333333333333
0.49,-0.54,1886.111111111111
0.57,-0.6,1888.888888888889
0.63,-0.65,1891.6666666666667
0.67,-0.705,1894.4444444444443
0.69,-0.79,1897.2222222222222
0.745,-0.87,1900.0
0.83,-0.94,1902.7777777777778
0.94,-0.98,1905.5555555555557
1.025,-0.995,1908.3333333333333
1.06,-1.01,1911.111111111111
1.085,-1.045,1913.888888888889
1.19,-1.1,1916.6666666666667
1.37,-1.13,1919.4444444444443
1.51,-1.155,1922.2222222222222
1.605,-1.165,1925.0
1.66,-1.18,1927.7777777777778
1.69,-1.16,1930.5555555555557
1.765,-1.115,1933.3333333333333
1.855,-1.05,1936.111111111111
1.935,-0.925,1938.888888888889
1.945,-0.765,1941.6666666666667
1.735,-0.585,1944.4444444444443
1.335,-0.36,1947.2222222222222
0.93,-0.18,1950.0
0.61,-0.035,1952.7777777777778
0.33,0.085,1955.5555555555557
0.1,0.17,1958.3333333333333
-0.1,0.21,1961.111111111111
-0.265,0.255,1963.888888888889
-0.375,0.29,1966.6666666666667
-0.41,0.31,1969.4444444444443
-0.405,0.345,1972.2222222222222
-0.415,0.385,1975.0
-0.46,0.405,1977.7777777777778
-0.495,0.405,1980.5555555555557
-0.545,0.415,1983.3333333333333
-0.545,0.42,1986.111111111111
-0.545,0.435,1988.888888888889
-0.545,0.465,1991.6666666666667
-0.56,0.465,1994.4444444444443
-0.59,0.465,1997.2222222222222
-0.615,0.465,2000.0
-0.61,0.46,2002.7777777777778
-0.61,0.475,2005.5555555555557
-0.605,0.49,2008.3333333333333
-0.6,0.505,2011.111111111111
-0.63,0.495,2013.888888888889
-0.645,0.495,2016.6666666666667
-0.63,0.49,2019.4444444444443
-0.615,0.515,2022.2222222222222
-0.615,0.525,2025.0
-0.615,0.545,2027.7777777777778
-0.66,0.54,2030.5555555555557
-0.685,0.54,2033.3333333333333
-0.675,0.535,2036.111111111111
-0.66,0.565,2038.888888888889
-0.65,0.59,2041.6666666666667
-0.655,0.6,2044.4444444444443
-0.69,0.62,2047.2222222222222
-0.72,0.605,2050.0
-0.725,0.615,2052.777777777778
-0.7,0.64,2055.5555555555557
-0.7,0.665,2058.3333333333335
-0.715,0.685,2061.1111111111113
-0.745,0.685,2063.8888888888887
-0.76,0.685,2066.6666666666665
-0.765,0.695,2069.4444444444443
-0.755,0.715,2072.222222222222
-0.755,0.745,2075.0
-0.755,0.76,2077.777777777778
-0.79,0.76,2080.5555555555557
-0.805,0.76,2083.3333333333335
-0.795,0.755,2086.1111111111113
-0.785,0.775,2088.8888888888887
-0.77,0.8,2091.6666666666665
-0.78,0.815,2094.4444444444443
-0.8,0.815,2097.222222222222
-0.825,0.815,2100.0
-0.83,0.805,2102.777777777778
-0.82,0.83,2105.5555555555557
-0.8,0.845,2108.3333333333335
-0.79,0.855,2111.1111111111113
-0.805,0.84,2113.8888888888887
-0.84,0.82,2116.6666666666665
-0.83,0.815,2119.4444444444443
-0.805,0.805,2122.222222222222
-0.785,0.81,2125.0
-0.765,0.805,2127.777777777778
-0.765,0.78,2130.5555555555557
-0.78,0.745,2133.3333333333335
-0.76,0.735,2136.1111111111113
-0.715,0.72,2138.8888888888887
-0.67,0.71,2141.6666666666665
-0.67,0.69,2144.4444444444443
-0.675,0.66,2147.222222222222
-0.675,0.61,2150.0
-0.635,0.575,2152.777777777778
-0.59,0.56,2155.5555555555557
-0.555,0.555,2158.3333333333335
-0.535,0.545,2161.1111111111113
-0.545,0.495,2163.8888888888887
-0.52,0.47,2166.6666666666665
-0.495,0.44,2169.4444444444443
-0.445,0.41,2172.222222222222
-0.415,0.41,2175.0
-0.395,0.4,2177.777777777778
-0.415,0.375,2180.5555555555557
-0.42,0.36,2183.3333333333335
-0.38,0.34,2186.1111111111113
-0.36,0.33,2188.8888888888887
-0.35,0.35,2191.6666666666665
-0.34,0.325,2194.4444444444443
-0.35,0.315,2197.222222222222
-0.365,0.305,2200.0
-0.37,0.29,2202.777777777778
-0.34,0.3,2205.5555555555557
-0.31,0.315,2208.3333333333335
-0.325,0.315,2211.1111111111113
-0.355,0.305,2213.8888888888887
-0.37,0.285,2216.6666666666665
-0.355,0.285,2219.4444444444443
-0.34,0.295,2222.222222222222
-0.33,0.305,2225.0
-0.33,0.3,2227.777777777778
-0.37,0.3,2230.5555555555557
-0.385,0.285,2233.3333333333335
-0.36,0.28,2236.1111111111113
-0.35,0.285,2238.8888888888887
-0.34,0.305,2241.6666666666665
-0.325,0.3,2244.4444444444443
-0.355,0.285,2247.222222222222
-0.375,0.265,2250.0
-0.35,0.255,2252.777777777778
-0.345,0.285,2255.5555555555557
-0.33,0.29,2258.3333333333335
-0.325,0.295,2261.1111111111113
-0.36,0.295,2263.8888888888887
-0.365,0.28,2266.6666666666665
-0.35,0.275,2269.4444444444443
-0.34,0.285,2272.222222222222
-0.32,0.3,2275.0
-0.33,0.29,2277.777777777778
-0.35,0.285,2280.5555555555557
-0.355,0.265,2283.3333333333335
-0.355,0.275,2286.1111111111113
-0.335,0.275,2288.8888888888887
-0.325,0.3,2291.6666666666665
-0.33,0.3,2294.4444444444443
-0.345,0.31,2297.222222222222
-0.355,0.295,2300.0
-0.355,0.285,2302.777777777778
-0.325,0.29,2305.5555555555557
-0.305,0.315,2308.3333333333335
-0.285,0.295,2311.1111111111113
-0.295,0.265,2313.8888888888887
-0.275,0.245,2316.6666666666665
-0.245,0.225,2319.4444444444443
-0.19,0.21,2322.222222222222
-0.15,0.185,2325.0
-0.135,0.155,2327.777777777778
-0.11,0.09,2330.5555555555557
-0.055,0.025,2333.3333333333335
0.045,-0.055,2336.1111111111113
0.17,-0.145,2338.8888888888887
0.27,-0.245,2341.6666666666665
0.39,-0.335,2344.4444444444443
0.49,-0.425,2347.222222222222
0.595,-0.535,2350.0
0.71,-0.635,2352.777777777778
0.805,-0.74,2355.5555555555557
0.91,-0.8,2358.3333333333335
0.975,-0.84,2361.1111111111113
1.035,-0.865,2363.8888888888887
1.105,-0.885,2366.6666666666665
1.185,-0.9,2369.4444444444443
1.23,-0.875,2372.222222222222
1.23,-0.82,2375.0
1.175,-0.75,2377.777777777778
1.1,-0.69,2380.5555555555557
1.025,-0.625,2383.3333333333335
0.995,-0.525,2386.1111111111113
0.98,-0.405,2388.8888888888887
0.97,-0.27,2391.6666666666665
0.93,-0.195,2394.4444444444443
0.885,-0.145,2397.222222222222
0.855,-0.115,2400.0
0.865,-0.085,2402.777777777778
0.88,-0.025,2405.5555555555557
0.88,0.005,2408.3333333333335
0.895,0.025,2411.1111111111113
0.88,0.025,2413.8888888888887
0.885,0.02,2416.6666666666665
0.845,-0.005,2419.4444444444443
0.785,0.0,2422.222222222222
0.655,0.025,2425.0
0.52,0.07,2427.777777777778
0.3,0.12,2430.5555555555557
0.095,0.19,2433.3333333333335
-0.075,0.24,2436.1111111111113
-0.205,0.3,2438.8888888888887
-0.305,0.33,2441.6666666666665
-0.375,0.365,2444.4444444444443
-0.43,0.38,2447.222222222222
-0.475,0.385,2450.0
-0.49,0.4,2452.777777777778
-0.53,0.415,2455.5555555555557
-0.575,0.425,2458.3333333333335
-0.62,0.445,2461.1111111111113
-0.665,0.45,2463.8888888888887
-0.69,0.475,2466.6666666666665
-0.71,0.495,2469.4444444444443
-0.715,0.48,2472.222222222222
-0.725,0.505,2475.0
-0.765,0.52,2477.777777777778
-0.805,0.52,2480.5555555555557
-0.82,0.51,2483.3333333333335
-0.81,0.525,2486.1111111111113
-0.8,0.535,2488.8888888888887
-0.81,0.545,2491.6666666666665
-0.83,0.55,2494.4444444444443
-0.845,0.55,2497.222222222222
-0.865,0.545,2500.0
-0.88,0.555,2502.777777777778
-0.87,0.56,2505.5555555555557
-0.88,0.58,2508.3333333333335
-0.895,0.595,2511.1111111111113
-0.92,0.61,2513.8888888888887
-0.94,0.605,2516.6666666666665
-0.945,0.6,2519.4444444444443
-0.96,0.61,2522.222222222222
-0.97,0.635,2525.0
-0.97,0.635,2527.777777777778
-1.01,0.665,2530.5555555555557
-1.015,0.64,2533.3333333333335
-1.015,0.65,2536.1111111111113
-1.015,0.665,2538.8888888888887
-1.02,0.68,2541.6666666666665
-1.06,0.695,2544.4444444444443
-1.08,0.7,2547.222222222222
-1.105,0.685,2550.0
-1.095,0.69,2552.777777777778
-1.09,0.695,2555.5555555555557
-1.11,0.695,2558.3333333333335
-1.12,0.695,2561.1111111111113
-1.14,0.695,2563.8888888888887
-1.14,0.67,2566.6666666666665
-1.14,0.65,2569.4444444444443
-1.14,0.64,2572.222222222222
-1.125,0.64,2575.0
-1.11,0.625,2577.777777777778
-1.11,0.62,2580.5555555555557
-1.105,0.6,2583.3333333333335
-1.1,0.59,2586.1111111111113
-1.08,0.57,2588.8888888888887
-1.05,0.565,2591.6666666666665
-1.01,0.555,2594.4444444444443
-0.985,0.525,2597.222222222222
-0.97,0.49,2600.0
-0.96,0.485,2602.777777777778
-0.905,0.465,2605.5555555555557
-0.865,0.46,2608.3333333333335
-0.83,0.43,2611.1111111111113
-0.81,0.41,2613.8888888888887
-0.775,0.385,2616.6666666666665
-0.735,0.36,2619.4444444444443
-0.69,0.36,2622.222222222222
-0.655,0.36,2625.0
-0.615,0.35,2627.777777777778
-0.6,0.34,2630.5555555555557
-0.58,0.31,2633.3333333333335
-0.575,0.3,2636.1111111111113
-0.54,0.29,2638.8888888888887
-0.51,0.3,2641.6666666666665
-0.485,0.305,2644.4444444444443
-0.485,0.285,2647.222222222222
-0.49,0.275,2650.0
-0.48,0.27,2652.777777777778
-0.455,0.27,2655.5555555555557
-0.455,0.28,2658.3333333333335
-0.445,0.29,2661.1111111111113
-0.445,0.29,2663.8888888888887
-0.455,0.28,2666.6666666666665
-0.465,0.265,2669.4444444444443
-0.43,0.26,2672.222222222222
-0.42,0.285,2675.0
-0.415,0.29,2677.777777777778
-0.44,0.29,2680.5555555555557
-0.465,0.29,2683.3333333333335
-0.44,0.28,2686.1111111111113
-0.42,0.28,2688.8888888888887
-0.4,0.3,2691.6666666666665
-0.41,0.3,2694.4444444444443
-0.41,0.29,2697.222222222222
-0.445,0.265,2700.0
-0.435,0.26,2702.777777777778
-0.42,0.27,2705.5555555555557
-0.39,0.285,2708.3333333333335
-0.395,0.295,2711.1111111111113
-0.395,0.285,2713.8888888888887
-0.42,0.275,2716.6666666666665
-0.425,0.265,2719.4444444444443
-0.405,0.275,2722.222222222222
-0.395,0.27,2725.0
-0.385,0.29,2727.777777777778
-0.385,0.28,2730.5555555555557
-0.41,0.255,2733.3333333333335
-0.395,0.245,2736.1111111111113
-0.385,0.25,2738.8888888888887
-0.365,0.265,2741.6666666666665
-0.355,0.275,2744.4444444444443
-0.375,0.265,2747.222222222222
-0.395,0.25,2750.0
-0.39,0.24,2752.777777777778
-0.38,0.25,2755.5555555555557
-0.35,0.265,2758.3333333333335
-0.35,0.265,2761.1111111111113
-0.365,0.26,2763.8888888888887
-0.385,0.255,2766.6666666666665
-0.39,0.24,2769.4444444444443
-0.345,0.25,2772.222222222222
-0.34,0.265,2775.0
-0.36,0.25,2777.777777777778
-0.38,0.235,2780.5555555555557
-0.375,0.23,2783.3333333333335
-0.34,0.24,2786.1111111111113
-0.325,0.245,2788.8888888888887
-0.335,0.245,2791.6666666666665
-0.35,0.235,2794.4444444444443
-0.355,0.225,2797.222222222222
-0.34,0.21,2800.0
-0.32,0.22,2802.777777777778
-0.315,0.245,2805.5555555555557
-0.315,0.235,2808.3333333333335
-0.335,0.235,2811.1111111111113
-0.34,0.215,2813.8888888888887
-0.335,0.22,2816.6666666666665
-0.31,0.225,2819.4444444444443
-0.305,0.235,2822.222222222222
-0.32,0.23,2825.0
-0.365,0.225,2827.777777777778
-0.38,0.205,2830.5555555555557
-0.345,0.205,2833.3333333333335
-0.34,0.22,2836.1111111111113
-0.32,0.215,2838.8888888888887
-0.33,0.225,2841.6666666666665
-0.33,0.225,2844.4444444444443
-0.345,0.205,2847.222222222222
-0.335,0.195,2850.0
-0.32,0.215,2852.777777777778
-0.305,0.21,2855.5555555555557
-0.305,0.21,2858.3333333333335
-0.325,0.21,2861.1111111111113
-0.325,0.2,2863.8888888888887
-0.33,0.185,2866.6666666666665
-0.29,0.2,2869.4444444444443
-0.29,0.22,2872.222222222222
-0.295,0.215,2875.0
-0.32,0.205,2877.777777777778
-0.33,0.2,2880.5555555555557
-0.33,0.19,2883.3333333333335
-0.295,0.2,2886.1111111111113
-0.285,0.215,2888.8888888888887
-0.305,0.205,2891.6666666666665
-0.34,0.2,2894.4444444444443
-0.335,0.19,2897.222222222222
-0.325,0.19,2900.0
-0.325,0.19,2902.777777777778
-0.305,0.205,2905.5555555555557
-0.315,0.21,2908.3333333333335
-0.325,0.21,2911.1111111111113
-0.335,0.2,2913.8888888888887
-0.325,0.19,2916.6666666666665
-0.3,0.2,2919.4444444444443
-0.295,0.2,2922.222222222222
-0.31,0.19,2925.0
-0.32,0.19,2927.777777777778
-0.33,0.17,2930.5555555555557
-0.32,0.165,2933.3333333333335
-0.31,0.185,2936.1111111111113
-0.28,0.2,2938.8888888888887
-0.295,0.2,2941.6666666666665
-0.32,0.185,2944.4444444444443
-0.335,0.17,2947.222222222222
-0.33,0.175,2950.0
-0.32,0.175,2952.777777777778
-0.295,0.18,2955.5555555555557
-0.285,0.185,2958.3333333333335
-0.32,0.195,2961.1111111111113
-0.32,0.165,2963.8888888888887
-0.31,0.175,2966.6666666666665
-0.3,0.18,2969.4444444444443
-0.27,0.195,2972.222222222222
-0.275,0.185,2975.0
-0.3,0.175,2977.777777777778
-0.31,0.175,2980.5555555555557
-0.305,0.155,2983.3333333333335
-0.285,0.18,2986.1111111111113
-0.275,0.195,2988.8888888888887
-0.275,0.195,2991.6666666666665
-0.3,0.185,2994.4444444444443
-0.315,0.165,2997.222222222222
-0.32,0.165,3000.0
-0.285,0.165,3002.777777777778
-0.26,0.185,3005.5555555555557
-0.28,0.19,3008.3333333333335
-0.295,0.175,3011.1111111111113
-0.295,0.155,3013.8888888888887
-0.285,0.165,3016.6666666666665
-0.28,0.155,3019.4444444444443
-0.275,0.175,3022.222222222222
-0.285,0.17,3025.0
-0.29,0.165,3027.777777777778
-0.3,0.16,3030.5555555555557
-0.305,0.16,3033.3333333333335
-0.29,0.155,3036.1111111111113
-0.265,0.18,3038.8888888888887
-0.29,0.19,3041.6666666666665
-0.285,0.165,3044.4444444444443
-0.295,0.15,3047.222222222222
-0.295,0.145,3050.0
-0.28,0.165,3052.777777777778
-0.26,0.17,3055.5555555555557
-0.265,0.18,3058.3333333333335
-0.29,0.175,3061.1111111111113
-0.315,0.16,3063.8888888888887
-0.305,0.155,3066.6666666666665
-0.285,0.165,3069.4444444444443
-0.26,0.165,3072.222222222222
-0.285,0.175,3075.0
-0.28,0.17,3077.777777777778
-0.3,0.15,3080.5555555555557
-0.295,0.145,3083.3333333333335
-0.27,0.16,3086.1111111111113
-0.26,0.17,3088.8888888888887
-0.26,0.17,3091.6666666666665
-0.28,0.17,3094.4444444444443
-0.29,0.155,3097.222222222222
-0.29,0.14,3100.0
-0.285,0.16,3102.777777777778
-0.255,0.185,3105.5555555555557
-0.25,0.18,3108.3333333333335
-0.255,0.17,3111.1111111111113
-0.265,0.16,3113.8888888888887
-0.245,0.165,3116.6666666666665
-0.225,0.17,3119.4444444444443
-0.2,0.195,3122.222222222222
-0.185,0.2,3125.0
-0.19,0.195,3127.777777777778
-0.19,0.175,3130.5555555555557
-0.185,0.17,3133.3333333333335
-0.155,0.17,3136.1111111111113
-0.11,0.155,3138.8888888888887
-0.1,0.155,3141.6666666666665
-0.095,0.125,3144.4444444444443
-0.105,0.1,3147.222222222222
-0.1,0.09,3150.0
-0.095,0.095,3152.777777777778
-0.085,0.105,3155.5555555555557
-0.08,0.12,3158.3333333333335
-0.12,0.105,3161.1111111111113
-0.15,0.105,3163.8888888888887
-0.17,0.085,3166.6666666666665
-0.145,0.08,3169.4444444444443
-0.15,0.1,3172.222222222222
-0.155,0.095,3175.0
-0.19,0.09,3177.777777777778
-0.2,0.065,3180.5555555555557
-0.205,0.075,3183.3333333333335
-0.235,0.09,3186.1111111111113
-0.21,0.12,3188.8888888888887
-0.21,0.135,3191.6666666666665
-0.23,0.135,3194.4444444444443
-0.245,0.105,3197.222222222222
-0.265,0.105,3200.0
-0.245,0.1,3202.777777777778
-0.225,0.12,3205.5555555555557
-0.225,0.125,3208.3333333333335
-0.23,0.125,3211.1111111111113
-0.26,0.105,3213.8888888888887
-0.245,0.095,3216.6666666666665
-0.23,0.105,3219.4444444444443
-0.22,0.12,3222.222222222222
-0.225,0.11,3225.0
-0.24,0.11,3227.777777777778
-0.245,0.105,3230.5555555555557
-0.255,0.1,3233.3333333333335
-0.235,0.105,3236.1111111111113
-0.23,0.11,3238.8888888888887
-0.22,0.12,3241.6666666666665
-0.24,0.1,3244.4444444444443
-0.25,0.07,3247.222222222222
-0.27,0.065,3250.0
-0.275,0.065,3252.777777777778
-0.255,0.075,3255.5555555555557
-0.205,0.085,3258.3333333333335
-0.115,0.045,3261.1111111111113
0.025,-0.03,3263.8888888888887
0.21,-0.11,3266.6666666666665
0.485,-0.145,3269.4444444444443
0.795,-0.13,3272.222222222222
1.08,-0.12,3275.0
1.33,-0.115,3277.777777777778
1.52,-0.13,3280.5555555555557
1.56,-0.095,3283.3333333333335
1.355,-0.025,3286.1111111111113
0.995,0.04,3288.8888888888887
0.57,0.095,3291.6666666666665
0.175,0.085,3294.4444444444443
-0.095,0.04,3297.222222222222
-0.2,0.01,3300.0
-0.22,-0.01,3302.777777777778
-0.225,0.0,3305.5555555555557
-0.22,0.025,3308.3333333333335
-0.25,0.06,3311.1111111111113
-0.255,0.08,3313.8888888888887
-0.25,0.085,3316.6666666666665
-0.22,0.095,3319.4444444444443
-0.225,0.11,3322.222222222222
-0.24,0.125,3325.0
-0.25,0.11,3327.777777777778
-0.265,0.11,3330.5555555555557
-0.275,0.11,3333.3333333333335
-0.25,0.105,3336.1111111111113
-0.26,0.12,3338.8888888888887
-0.285,0.12,3341.6666666666665
-0.3,0.125,3344.4444444444443
-0.29,0.115,3347.222222222222
-0.29,0.11,3350.0
-0.265,0.095,3352.777777777778
-0.26,0.11,3355.5555555555557
-0.265,0.115,3358.3333333333335
-0.275,0.11,3361.1111111111113
-0.28,0.1,3363.8888888888887
-0.285,0.075,3366.6666666666665
-0.255,0.095,3369.4444444444443
-0.235,0.115,3372.222222222222
-0.265,0.115,3375.0
-0.27,0.105,3377.777777777778
-0.275,0.085,3380.5555555555557
-0.27,0.08,3383.3333333333335
-0.25,0.09,3386.1111111111113
-0.225,0.095,3388.8888888888887
-0.22,0.105,3391.6666666666665
-0.235,0.105,3394.4444444444443
-0.24,0.09,3397.222222222222
-0.24,0.065,3400.0
-0.23,0.075,3402.777777777778
-0.21,0.085,3405.5555555555557
-0.205,0.085,3408.3333333333335
-0.22,0.07,3411.1111111111113
-0.21,0.06,3413.8888888888887
-0.195,0.045,3416.6666666666665
-0.19,0.05,3419.4444444444443
-0.175,0.06,3422.222222222222
-0.16,0.06,3425.0
-0.16,0.045,3427.777777777778
-0.165,0.035,3430.5555555555557
-0.155,0.01,3433.3333333333335
-0.13,0.02,3436.1111111111113
-0.135,0.035,3438.8888888888887
-0.125,0.035,3441.6666666666665
-0.115,0.015,3444.4444444444443
-0.11,-0.005,3447.222222222222
-0.11,-0.015,3450.0
-0.08,-0.025,3452.777777777778
-0.065,-0.03,3455.5555555555557
-0.05,-0.02,3458.3333333333335
-0.06,-0.04,3461.1111111111113
-0.05,-0.065,3463.8888888888887
-0.045,-0.075,3466.6666666666665
-0.005,-0.085,3469.4444444444443
0.015,-0.08,3472.222222222222
0.02,-0.09,3475.0
0.025,-0.105,3477.777777777778
0.015,-0.135,3480.5555555555557
0.035,-0.145,3483.3333333333335
0.065,-0.145,3486.1111111111113
0.105,-0.15,3488.8888888888887
0.115,-0.155,3491.6666666666665
0.105,-0.165,3494.4444444444443
0.095,-0.19,3497.222222222222
0.125,-0.18,3500.0
0.14,-0.2,3502.777777777778
0.17,-0.185,3505.5555555555557
0.165,-0.18,3508.3333333333335
0.155,-0.19,3511.1111111111113
0.15,-0.205,3513.8888888888887
0.155,-0.215,3516.6666666666665
0.18,-0.21,3519.4444444444443
0.195,-0.205,3522.222222222222
0.215,-0.18,3525.0
0.2,-0.19,3527.777777777778
0.205,-0.185,3530.5555555555557
0.205,-0.19,3533.3333333333335
0.21,-0.175,3536.1111111111113
0.215,-0.155,3538.8888888888887
0.22,-0.135,3541.6666666666665
0.185,-0.13,3544.4444444444443
0.175,-0.125,3547.222222222222
0.17,-0.12,3550.0
0.17,-0.09,3552.777777777778
0.18,-0.06,3555.5555555555557
0.16,-0.04,3558.3333333333335
0.13,-0.025,3561.1111111111113
0.1,-0.025,3563.8888888888887
0.07,-0.015,3566.6666666666665
0.05,0.01,3569.4444444444443
0.035,0.025,3572.222222222222
0.025,0.04,3575.0
0.01,0.06,3577.777777777778
-0.015,0.05,3580.5555555555557
-0.035,0.05,3583.3333333333335
-0.045,0.085,3586.1111111111113
-0.06,0.095,3588.8888888888887
-0.065,0.1,3591.6666666666665
-0.08,0.1,3594.4444444444443
-0.09,0.1,3597.222222222222
-0.09,0.09,3600.0
-0.095,0.1,3602.777777777778
-0.085,0.115,3605.5555555555557
-0.09,0.12,3608.3333333333335
-0.095,0.125,3611.1111111111113
-0.11,0.115,3613.8888888888887
-0.11,0.115,3616.6666666666665
-0.105,0.12,3619.4444444444443
-0.09,0.13,3622.222222222222
-0.095,0.13,3625.0
-0.12,0.13,3627.777777777778
-0.12,0.125,3630.5555555555557
-0.125,0.115,3633.3333333333335
-0.105,0.115,3636.1111111111113
-0.1,0.125,3638.8888888888887
-0.105,0.125,3641.6666666666665
-0.105,0.12,3644.4444444444443
-0.1,0.11,3647.222222222222
-0.11,0.095,3650.0
-0.1,0.095,3652.777777777778
-0.1,0.105,3655.5555555555557
-0.11,0.115,3658.3333333333335
-0.115,0.105,3661.1111111111113
-0.12,0.08,3663.8888888888887
-0.12,0.075,3666.6666666666665
-0.11,0.085,3669.4444444444443
-0.09,0.105,3672.222222222222
-0.1,0.1,3675.0
-0.115,0.1,3677.777777777778
-0.115,0.085,3680.5555555555557
-0.105,0.07,3683.3333333333335
-0.095,0.075,3686.1111111111113
-0.09,0.085,3688.8888888888887
-0.09,0.095,3691.6666666666665
-0.1,0.09,3694.4444444444443
-0.105,0.09,3697.222222222222
-0.09,0.075,3700.0
-0.1,0.08,3702.777777777778
-0.07,0.095,3705.5555555555557
-0.075,0.095,3708.3333333333335
-0.09,0.105,3711.1111111111113
-0.09,0.09,3713.8888888888887
-0.08,0.09,3716.6666666666665
-0.045,0.105,3719.4444444444443
-0.05,0.13,3722.222222222222
-0.035,0.12,3725.0
-0.03,0.12,3727.777777777778
-0.03,0.105,3730.5555555555557
-0.025,0.105,3733.3333333333335
0.025,0.11,3736.1111111111113
0.035,0.13,3738.8888888888887
0.06,0.125,3741.6666666666665
0.05,0.13,3744.4444444444443
0.045,0.1,3747.222222222222
0.065,0.09,3750.0
0.08,0.08,3752.777777777778
0.09,0.08,3755.5555555555557
0.1,0.075,3758.3333333333335
0.095,0.055,3761.1111111111113
0.11,0.01,3763.8888888888887
0.15,-0.02,3766.6666666666665
0.195,-0.06,3769.4444444444443
0.225,-0.09,3772.222222222222
0.275,-0.16,3775.0
0.315,-0.24,3777.777777777778
0.36,-0.345,3780.5555555555557
0.45,-0.45,3783.3333333333335
0.555,-0.54,3786.1111111111113
0.625,-0.6,3788.8888888888887
0.675,-0.655,3791.6666666666665
0.71,-0.715,3794.4444444444443
0.78,-0.775,3797.222222222222
0.85,-0.835,3800.0
0.935,-0.865,3802.777777777778
1.045,-0.89,3805.5555555555557
1.13,-0.92,3808.3333333333335
1.195,-0.955,3811.1111111111113
1.245,-0.985,3813.8888888888887
1.305,-1.035,3816.6666666666665
1.415,-1.065,3819.4444444444443
1.535,-1.055,3822.222222222222
1.635,-1.045,3825.0
1.645,-1.005,3827.777777777778
1.61,-0.97,3830.5555555555557
1.56,-0.91,3833.3333333333335
1.53,-0.83,3836.1111111111113
1.5,-0.755,3838.8888888888887
1.45,-0.665,3841.6666666666665
1.37,-0.575,3844.4444444444443
1.305,-0.51,3847.222222222222
1.255,-0.435,3850.0
1.235,-0.355,3852.777777777778
1.185,-0.295,3855.5555555555557
1.145,-0.27,3858.3333333333335
1.085,-0.255,3861.1111111111113
1.04,-0.26,3863.8888888888887
1.01,-0.26,3866.6666666666665
1.005,-0.25,3869.4444444444443
0.995,-0.235,3872.222222222222
0.96,-0.23,3875.0
0.89,-0.23,3877.777777777778
0.785,-0.24,3880.5555555555557
0.68,-0.235,3883.3333333333335
0.56,-0.19,3886.1111111111113
0.395,-0.13,3888.8888888888887
0.19,-0.05,3891.6666666666665
-0.025,0.03,3894.4444444444443
-0.185,0.095,3897.222222222222
-0.29,0.15,3900.0
-0.36,0.2,3902.777777777778
-0.38,0.25,3905.5555555555557
-0.43,0.27,3908.3333333333335
-0.48,0.28,3911.1111111111113
-0.5,0.275,3913.8888888888887
-0.51,0.29,3916.6666666666665
-0.515,0.3,3919.4444444444443
-0.53,0.32,3922.222222222222
-0.55,0.335,3925.0
-0.58,0.345,3927.777777777778
-0.59,0.345,3930.5555555555557
-0.595,0.34,3933.3333333333335
-0.585,0.365,3936.1111111111113
-0.595,0.385,3938.8888888888887
-0.605,0.395,3941.6666666666665
-0.615,0.385,3944.4444444444443
-0.63,0.39,3947.222222222222
-0.63,0.4,3950.0
-0.63,0.405,3952.777777777778
-0.63,0.44,3955.5555555555557
-0.645,0.455,3958.3333333333335
-0.675,0.475,3961.1111111111113
-0.695,0.48,3963.8888888888887
-0.7,0.48,3966.6666666666665
-0.695,0.515,3969.4444444444443
-0.71,0.53,3972.222222222222
-0.735,0.56,3975.0
-0.75,0.56,3977.777777777778
-0.76,0.555,3980.5555555555557
-0.77,0.565,3983.3333333333335
-0.76,0.605,3986.1111111111113
-0.765,0.62,3988.8888888888887
-0.77,0.655,3991.6666666666665
-0.805,0.66,3994.4444444444443
-0.825,0.65,3997.222222222222
-0.825,0.655,4000.0
-0.815,0.675,4002.777777777778
-0.82,0.69,4005.5555555555557
-0.83,0.715,4008.3333333333335
-0.865,0.705,4011.1111111111113
-0.87,0.71,4013.8888888888887
-0.885,0.715,4016.6666666666665
-0.88,0.715,4019.4444444444443
-0.88,0.725,4022.222222222222
-0.875,0.735,4025.0
-0.885,0.72,4027.777777777778
-0.9,0.7,4030.5555555555557
-0.885,0.705,4033.3333333333335
-0.89,0.695,4036.1111111111113
-0.885,0.705,4038.8888888888887
-0.895,0.7,4041.6666666666665
-0.89,0.67,4044.4444444444443
-0.89,0.65,4047.222222222222
-0.88,0.625,4050.0
-0.85,0.63,4052.777777777778
-0.835,0.61,4055.5555555555557
-0.815,0.61,4058.3333333333335
-0.825,0.58,4061.1111111111113
-0.81,0.545,4063.8888888888887
-0.785,0.505,4066.6666666666665
-0.745,0.495,4069.4444444444443
-0.705,0.465,4072.222222222222
-0.69,0.44,4075.0
-0.68,0.415,4077.777777777778
-0.67,0.375,4080.5555555555557
-0.615,0.335,4083.3333333333335
-0.57,0.325,4086.1111111111113
-0.52,0.315,4088.8888888888887
-0.49,0.285,4091.6666666666665
-0.47,0.255,4094.4444444444443
-0.45,0.24,4097.222222222223
-0.41,0.205,4100.0
-0.38,0.2,4102.777777777777
-0.345,0.205,4105.555555555556
-0.32,0.195,4108.333333333333
-0.32,0.19,4111.111111111111
-0.305,0.145,4113.888888888889
-0.28,0.14,4116.666666666667
-0.24,0.135,4119.444444444444
-0.225,0.14,4122.222222222223
-0.215,0.14,4125.0
-0.23,0.14,4127.777777777777
-0.225,0.11,4130.555555555556
-0.225,0.115,4133.333333333333
-0.22,0.11,4136.111111111111
-0.2,0.13,4138.888888888889
-0.19,0.115,4141.666666666667
-0.215,0.105,4144.444444444444
-0.225,0.1,4147.222222222223
-0.225,0.1,4150.0
-0.2,0.11,4152.777777777777
-0.205,0.115,4155.555555555556
-0.2,0.13,4158.333333333333
-0.215,0.11,4161.111111111111
-0.235,0.11,4163.888888888889
-0.22,0.095,4166.666666666667
-0.2,0.105,4169.444444444444
-0.19,0.12,4172.222222222223
-0.195,0.125,4175.0
-0.225,0.13,4177.777777777777
-0.22,0.105,4180.555555555556
-0.215,0.11,4183.333333333333
-0.21,0.11,4186.111111111111
-0.205,0.125,4188.888888888889
-0.205,0.125,4191.666666666667
-0.225,0.115,4194.444444444444
-0.24,0.12,4197.222222222223
-0.225,0.11,4200.0
-0.215,0.12,4202.777777777777
-0.21,0.125,4205.555555555556
-0.215,0.135,4208.333333333333
-0.23,0.13,4211.111111111111
-0.25,0.115,4213.888888888889
-0.24,0.11,4216.666666666667
-0.205,0.125,4219.444444444444
-0.2,0.14,4222.222222222223
-0.2,0.14,4225.0
-0.21,0.13,4227.777777777777
-0.22,0.12,4230.555555555556
-0.22,0.105,4233.333333333333
-0.2,0.125,4236.111111111111
-0.2,0.135,4238.888888888889
-0.195,0.13,4241.666666666667
-0.2,0.13,4244.444444444444
-0.215,0.12,4247.222222222223
-0.215,0.115,4250.0
-0.185,0.115,4252.777777777777
-0.185,0.125,4255.555555555556
-0.18,0.125,4258.333333333333
-0.19,0.12,4261.111111111111
-0.2,0.105,4263.888888888889
-0.19,0.09,4266.666666666667
-0.17,0.1,4269.444444444444
-0.16,0.125,4272.222222222223
-0.17,0.12,4275.0
-0.175,0.115,4277.777777777777
-0.185,0.1,4280.555555555556
-0.18,0.1,4283.333333333333
-0.16,0.105,4286.111111111111
-0.15,0.12,4288.888888888889
-0.145,0.125,4291.666666666667
-0.165,0.125,4294.444444444444
-0.17,0.11,4297.222222222223
-0.165,0.115,4300.0
-0.15,0.13,4302.777777777777
-0.14,0.15,4305.555555555556
-0.14,0.14,4308.333333333333
-0.13,0.13,4311.111111111111
-0.125,0.12,4313.888888888889
-0.11,0.095,4316.666666666667
-0.075,0.09,4319.444444444444
-0.035,0.1,4322.222222222223
0.005,0.065,4325.0
0.035,0.025,4327.777777777777
0.07,-0.015,4330.555555555556
0.135,-0.045,4333.333333333333
0.205,-0.07,4336.111111111111
0.265,-0.1,4338.888888888889
0.33,-0.14,4341.666666666667
0.39,-0.235,4344.444444444444
0.465,-0.355,4347.222222222223
0.545,-0.44,4350.0
0.645,-0.52,4352.777777777777
0.755,-0.585,4355.555555555556
0.845,-0.65,4358.333333333333
0.905,-0.725,4361.111111111111
0.97,-0.795,4363.888888888889
1.05,-0.865,4366.666666666667
1.145,-0.935,4369.444444444444
1.26,-0.96,4372.222222222223
1.34,-0.99,4375.0
1.4,-1.015,4377.777777777777
1.455,-1.055,4380.555555555556
1.535,-1.09,4383.333333333333
1.645,-1.085,4386.111111111111
1.69,-1.07,4388.888888888889
1.645,-1.04,4391.666666666667
1.58,-1.0,4394.444444444444
1.49,-0.955,4397.222222222223
1.435,-0.885,4400.0
1.395,-0.805,4402.777777777777
1.355,-0.72,4405.555555555556
1.32,-0.64,4408.333333333333
1.27,-0.535,4411.111111111111
1.225,-0.445,4413.888888888889
1.18,-0.39,4416.666666666667
1.175,-0.315,4419.444444444444
1.165,-0.285,4422.222222222223
1.145,-0.255,4425.0
1.115,-0.235,4427.777777777777
1.08,-0.235,4430.555555555556
1.085,-0.215,4433.333333333333
1.105,-0.175,4436.111111111111
1.1,-0.155,4438.888888888889
1.045,-0.15,4441.666666666667
0.92,-0.15,4444.444444444444
0.79,-0.145,4447.222222222223
0.625,-0.12,4450.0
0.43,-0.055,4452.777777777777
0.225,0.025,4455.555555555556
0.015,0.09,4458.333333333333
-0.135,0.16,4461.111111111111
-0.25,0.205,4463.888888888889
-0.34,0.225,4466.666666666667
-0.38,0.26,4469.444444444444
-0.405,0.295,4472.222222222223
-0.44,0.315,4475.0
-0.48,0.325,4477.777777777777
-0.505,0.315,4480.555555555556
-0.52,0.33,4483.333333333333
-0.525,0.345,4486.111111111111
-0.53,0.37,4488.888888888889
-0.545,0.38,4491.666666666667
-0.575,0.365,4494.444444444444
-0.6,0.375,4497.222222222223
-0.615,0.375,4500.0
-0.605,0.4,4502.777777777777
-0.6,0.42,4505.555555555556
-0.62,0.435,4508.333333333333
-0.65,0.435,4511.111111111111
-0.67,0.445,4513.888888888889
-0.67,0.44,4516.666666666667
-0.67,0.47,4519.444444444444
-0.675,0.485,4522.222222222223
-0.67,0.5,4525.0
-0.705,0.51,4527.777777777777
-0.71,0.5,4530.555555555556
-0.73,0.505,4533.333333333333
-0.73,0.53,4536.111111111111
-0.725,0.555,4538.888888888889
-0.75,0.575,4541.666666666667
-0.775,0.585,4544.444444444444
-0.79,0.595,4547.222222222223
-0.805,0.585,4550.0
-0.79,0.615,4552.777777777777
-0.8,0.64,4555.555555555556
-0.805,0.66,4558.333333333333
-0.825,0.655,4561.111111111111
-0.835,0.66,4563.888888888889
-0.845,0.66,4566.666666666667
-0.85,0.68,4569.444444444444
-0.845,0.705,4572.222222222223
-0.865,0.72,4575.0
-0.88,0.715,4577.777777777777
-0.885,0.715,4580.555555555556
-0.89,0.72,4583.333333333333
-0.88,0.725,4586.111111111111
-0.895,0.725,4588.888888888889
-0.905,0.73,4591.666666666667
-0.92,0.735,4594.444444444444
-0.935,0.7,4597.222222222223
-0.92,0.69,4600.0
-0.9,0.69,4602.777777777777
-0.9,0.705,4605.555555555556
-0.89,0.7,4608.333333333333
-0.905,0.68,4611.111111111111
-0.905,0.655,4613.888888888889
-0.9,0.64,4616.666666666667
-0.875,0.625,4619.444444444444
-0.85,0.6,4622.222222222223
-0.815,0.6,4625.0
-0.81,0.565,4627.777777777777
-0.79,0.53,4630.555555555556
-0.76,0.49,4633.333333333333
-0.74,0.46,4636.111111111111
-0.685,0.435,4638.888888888889
-0.645,0.415,4641.666666666667
-0.63,0.38,4644.444444444444
-0.6,0.345,4647.222222222223
-0.56,0.32,4650.0
-0.505,0.305,4652.777777777777
-0.465,0.29,4655.555555555556
-0.46,0.27,4658.333333333333
-0.42,0.245,4661.111111111111
-0.415,0.215,4663.888888888889
-0.365,0.195,4666.666666666667
-0.305,0.18,4669.444444444444
-0.285,0.185,4672.222222222223
-0.275,0.185,4675.0
-0.27,0.16,4677.777777777777
-0.255,0.14,4680.555555555556
-0.24,0.125,4683.333333333333
-0.2,0.125,4686.111111111111
-0.185,0.13,4688.888888888889
-0.17,0.12,4691.666666666667
-0.18,0.125,4694.444444444444
-0.185,0.105,4697.222222222223
-0.175,0.095,4700.0
-0.16,0.1,4702.777777777777
-0.155,0.115,4705.555555555556
-0.15,0.115,4708.333333333333
-0.18,0.105,4711.111111111111
-0.185,0.095,4713.888888888889
-0.175,0.09,4716.666666666667
-0.165,0.105,4719.444444444444
-0.16,0.105,4722.222222222223
-0.16,0.12,4725.0
-0.18,0.105,4727.777777777777
-0.19,0.09,4730.555555555556
-0.185,0.09,4733.333333333333
-0.165,0.1,4736.111111111111
-0.155,0.11,4738.888888888889
-0.165,0.105,4741.666666666667
-0.2,0.115,4744.444444444444
-0.195,0.1,4747.222222222223
-0.19,0.1,4750.0
-0.16,0.1,4752.777777777777
-0.145,0.125,4755.555555555556
-0.16,0.12,4758.333333333333
-0.175,0.125,4761.111111111111
-0.175,0.105,4763.888888888889
-0.18,0.1,4766.666666666667
-0.15,0.115,4769.444444444444
-0.155,0.125,4772.222222222223
-0.15,0.12,4775.0
-0.16,0.12,4777.777777777777
-0.17,0.095,4780.555555555556
-0.165,0.105,4783.333333333333
-0.145,0.105,4786.111111111111
-0.135,0.12,4788.888888888889
-0.15,0.135,4791.666666666667
-0.16,0.12,4794.444444444444
-0.165,0.1,4797.222222222223
-0.145,0.1,4800.0
-0.135,0.11,4802.777777777777
-0.12,0.12,4805.555555555556
-0.125,0.11,4808.333333333333
-0.13,0.1,4811.111111111111
-0.15,0.085,4813.888888888889
-0.135,0.09,4816.666666666667
-0.115,0.1,4819.444444444444
-0.11,0.115,4822.222222222223
-0.115,0.12,4825.0
-0.14,0.09,4827.777777777777
-0.15,0.08,4830.555555555556
-0.13,0.075,4833.333333333333
-0.12,0.07,4836.111111111111
-0.12,0.095,4838.888888888889
-0.115,0.1,4841.666666666667
-0.14,0.1,4844.444444444444
-0.15,0.08,4847.222222222223
-0.135,0.075,4850.0
-0.115,0.07,4852.777777777777
-0.105,0.09,4855.555555555556
-0.105,0.09,4858.333333333333
-0.135,0.075,4861.111111111111
-0.125,0.075,4863.888888888889
-0.13,0.065,4866.666666666667
-0.12,0.065,4869.444444444444
-0.095,0.085,4872.222222222223
-0.105,0.09,4875.0
-0.12,0.075,4877.777777777777
-0.13,0.06,4880.555555555556
-0.12,0.05,4883.333333333333
-0.105,0.06,4886.111111111111
-0.09,0.075,4888.888888888889
-0.105,0.08,4891.666666666667
-0.115,0.07,4894.444444444444
-0.115,0.065,4897.222222222223
-0.11,0.04,4900.0
-0.1,0.065,4902.777777777777
-0.09,0.075,4905.555555555556
-0.105,0.07,4908.333333333333
-0.11,0.06,4911.111111111111
-0.125,0.065,4913.888888888889
-0.115,0.055,4916.666666666667
-0.095,0.07,4919.444444444444
-0.085,0.07,4922.222222222223
-0.085,0.07,4925.0
-0.095,0.07,4927.777777777777
-0.12,0.045,4930.555555555556
-0.11,0.045,4933.333333333333
-0.1,0.045,4936.111111111111
-0.085,0.06,4938.888888888889
-0.08,0.065,4941.666666666667
-0.105,0.065,4944.444444444444
-0.105,0.055,4947.222222222223
-0.115,0.055,4950.0
-0.095,0.06,4952.777777777777
-0.085,0.065,4955.555555555556
-0.09,0.06,4958.333333333333
-0.11,0.07,4961.111111111111
-0.115,0.05,4963.888888888889
-0.105,0.05,4966.666666666667
-0.085,0.06,4969.444444444444
-0.085,0.06,4972.222222222223
-0.09,0.065,4975.0
-0.115,0.06,4977.777777777777
-0.12,0.05,4980.555555555556
-0.105,0.04,4983.333333333333
-0.09,0.045,4986.111111111111
-0.075,0.065,4988.888888888889
-0.075,0.075,4991.666666666667
-0.075,0.07,4994.444444444444
-0.075,0.06,4997.222222222223
-0.065,0.07,5000.0
-0.03,0.095,5002.777777777777
-0.03,0.105,5005.555555555556
-0.015,0.12,5008.333333333333
-0.02,0.11,5011.111111111111
-0.025,0.11,5013.888888888889
-0.005,0.095,5016.666666666667
0.03,0.1,5019.444444444444
0.065,0.095,5022.222222222223
0.08,0.095,5025.0
0.065,0.065,5027.777777777777
0.055,0.035,5030.555555555556
0.065,0.01,5033.333333333333
0.08,0.0,5036.111111111111
0.08,0.015,5038.888888888889
0.055,0.025,5041.666666666667
0.025,0.015,5044.444444444444
0.0,0.0,5047.222222222223
0.0,-0.005,5050.0
0.005,0.0,5052.777777777777
-0.005,0.015,5055.555555555556
-0.02,0.015,5058.333333333333
-0.055,-0.005,5061.111111111111
-0.07,-0.01,5063.888888888889
-0.075,-0.005,5066.666666666667
-0.07,0.015,5069.444444444444
-0.075,0.035,5072.222222222223
-0.09,0.035,5075.0
-0.11,0.02,5077.777777777777
-0.12,0.015,5080.555555555556
-0.12,0.005,5083.333333333333
-0.12,0.025,5086.111111111111
-0.11,0.03,5088.888888888889
-0.12,0.035,5091.666666666667
-0.125,0.02,5094.444444444444
-0.12,0.015,5097.222222222223
-0.11,0.0,5100.0
-0.11,0.01,5102.777777777777
-0.105,0.03,5105.555555555556
-0.115,0.025,5108.333333333333
-0.12,0.015,5111.111111111111
-0.115,0.015,5113.888888888889
-0.1,-0.005,5116.666666666667
-0.085,0.005,5119.444444444444
-0.085,0.02,5122.222222222223
-0.105,0.015,5125.0
-0.105,0.015,5127.777777777777
-0.1,-0.005,5130.555555555556
-0.09,-0.03,5133.333333333333
-0.1,-0.03,5136.111111111111
-0.095,-0.015,5138.888888888889
-0.06,-0.01,5141.666666666667
-0.005,-0.01,5144.444444444444
0.11,-0.045,5147.222222222223
0.285,-0.115,5150.0
0.49,-0.175,5152.777777777777
0.725,-0.2,5155.555555555556
0.97,-0.195,5158.333333333333
1.21,-0.205,5161.111111111111
1.43,-0.245,5163.888888888889
1.63,-0.27,5166.666666666667
1.71,-0.235,5169.444444444444
1.57,-0.15,5172.222222222223
1.235,-0.09,5175.0
0.84,-0.07,5177.777777777777
0.495,-0.075,5180.555555555556
0.23,-0.07,5183.333333333333
0.09,-0.08,5186.111111111111
0.015,-0.085,5188.888888888889
-0.055,-0.085,5191.666666666667
-0.12,-0.055,5194.444444444444
-0.16,-0.035,5197.222222222223
-0.14,-0.01,5200.0
-0.1,0.0,5202.777777777777
-0.09,0.04,5205.555555555556
-0.11,0.04,5208.333333333333
-0.135,0.035,5211.111111111111
-0.15,0.03,5213.888888888889
-0.145,0.035,5216.666666666667
-0.14,0.035,5219.444444444444
-0.135,0.055,5222.222222222223
-0.155,0.05,5225.0
-0.18,0.04,5227.777777777777
-0.165,0.05,5230.555555555556
-0.16,0.035,5233.333333333333
-0.155,0.055,5236.111111111111
-0.145,0.06,5238.888888888889
-0.155,0.07,5241.666666666667
-0.18,0.07,5244.444444444444
-0.175,0.05,5247.222222222223
-0.155,0.045,5250.0
-0.15,0.035,5252.777777777777
-0.145,0.06,5255.555555555556
-0.145,0.06,5258.333333333333
-0.17,0.055,5261.111111111111
-0.155,0.055,5263.888888888889
-0.14,0.04,5266.666666666667
-0.135,0.05,5269.444444444444
-0.115,0.045,5272.222222222223
-0.125,0.055,5275.0
-0.135,0.055,5277.777777777777
-0.13,0.035,5280.555555555556
-0.125,0.02,5283.333333333333
-0.105,0.025,5286.111111111111
-0.09,0.04,5288.888888888889
-0.09,0.03,5291.666666666667
-0.09,0.03,5294.444444444444
-0.095,0.01,5297.222222222223
-0.09,0.01,5300.0
-0.07,0.005,5302.777777777777
-0.03,0.005,5305.555555555556
-0.05,0.01,5308.333333333333
-0.04,-0.005,5311.111111111111
-0.045,-0.015,5313.888888888889
-0.03,-0.025,5316.666666666667
0.0,-0.025,5319.444444444444
0.02,-0.025,5322.222222222223
0.02,-0.035,5325.0
0.015,-0.055,5327.777777777777
0.01,-0.065,5330.555555555556
0.035,-0.085,5333.333333333333
0.08,-0.085,5336.111111111111
0.11,-0.09,5338.888888888889
0.115,-0.09,5341.666666666667
0.105,-0.12,5344.444444444444
0.09,-0.15,5347.222222222223
0.115,-0.165,5350.0
0.165,-0.16,5352.777777777777
0.18,-0.16,5355.555555555556
0.2,-0.165,5358.333333333333
0.205,-0.19,5361.111111111111
0.195,-0.21,5363.888888888889
0.205,-0.23,5366.666666666667
0.245,-0.23,5369.444444444444
0.27,-0.22,5372.222222222223
0.285,-0.22,5375.0
0.29,-0.25,5377.777777777777
0.29,-0.255,5380.555555555556
0.31,-0.255,5383.333333333333
0.325,-0.25,5386.111111111111
0.34,-0.245,5388.888888888889
0.335,-0.235,5391.666666666667
0.315,-0.23,5394.444444444444
0.33,-0.25,5397.222222222223
0.325,-0.25,5400.0
0.345,-0.22,5402.777777777777
0.345,-0.19,5405.555555555556
0.32,-0.17,5408.333333333333
0.265,-0.155,5411.111111111111
0.25,-0.14,5413.888888888889
0.235,-0.125,5416.666666666667
0.235,-0.095,5419.444444444444
0.21,-0.065,5422.222222222223
0.18,-0.045,5425.0
0.155,-0.04,5427.777777777777
0.12,-0.03,5430.555555555556
0.11,-0.005,5433.333333333333
0.105,0.01,5436.111111111111
0.08,0.035,5438.888888888889
0.04,0.05,5441.666666666667
0.005,0.055,5444.444444444444
-0.01,0.05,5447.222222222223
-0.015,0.06,5450.0
-0.01,0.075,5452.777777777777
-0.02,0.09,5455.555555555556
-0.035,0.105,5458.333333333333
-0.06,0.085,5461.111111111111
-0.09,0.075,5463.888888888889
-0.075,0.08,5466.666666666667
-0.055,0.09,5469.444444444444
-0.045,0.11,5472.222222222223
-0.065,0.105,5475.0
-0.085,0.095,5477.777777777777
-0.095,0.085,5480.555555555556
-0.08,0.085,5483.333333333333
-0.07,0.08,5486.111111111111
-0.07,0.1,5488.888888888889
-0.07,0.11,5491.666666666667
-0.09,0.1,5494.444444444444
-0.095,0.1,5497.222222222223
-0.095,0.1,5500.0
-0.085,0.105,5502.777777777777
-0.075,0.12,5505.555555555556
-0.08,0.11,5508.333333333333
-0.09,0.11,5511.111111111111
-0.095,0.1,5513.888888888889
-0.09,0.09,5516.666666666667
-0.085,0.095,5519.444444444444
-0.07,0.1,5522.222222222223
-0.095,0.1,5525.0
-0.095,0.09,5527.777777777777
-0.095,0.09,5530.555555555556
-0.075,0.075,5533.333333333333
-0.07,0.08,5536.111111111111
-0.055,0.08,5538.888888888889
-0.065,0.11,5541.666666666667
-0.075,0.085,5544.444444444444
-0.08,0.065,5547.222222222223
-0.065,0.065,5550.0
-0.045,0.075,5552.777777777777
-0.05,0.085,5555.555555555556
-0.06,0.08,5558.333333333333
-0.07,0.075,5561.111111111111
-0.07,0.06,5563.888888888889
-0.075,0.07,5566.666666666667
-0.065,0.07,5569.444444444444
-0.055,0.09,5572.222222222223
-0.065,0.105,5575.0
-0.075,0.085,5577.777777777777
-0.07,0.08,5580.555555555556
-0.065,0.07,5583.333333333333
-0.055,0.08,5586.111111111111
-0.09,0.095,5588.888888888889
-0.07,0.1,5591.666666666667
-0.06,0.105,5594.444444444444
-0.055,0.1,5597.222222222223
-0.03,0.1,5600.0
-0.01,0.115,5602.777777777777
0.005,0.125,5605.555555555556
0.0,0.135,5608.333333333333
0.0,0.125,5611.111111111111
0.015,0.115,5613.888888888889
0.03,0.105,5616.666666666667
0.07,0.11,5619.444444444444
0.09,0.115,5622.222222222223
0.095,0.105,5625.0
0.08,0.095,5627.777777777777
0.08,0.065,5630.555555555556
0.075,0.035,5633.333333333333
0.08,0.05,5636.111111111111
0.075,0.08,5638.888888888889
0.07,0.08,5641.666666666667
0.05,0.075,5644.444444444444
0.045,0.06,5647.222222222223
0.05,0.05,5650.0
0.06,0.045,5652.777777777777
0.07,0.04,5655.555555555556
0.08,0.02,5658.333333333333
0.09,-0.025,5661.111111111111
0.105,-0.075,5663.888888888889
0.155,-0.1,5666.666666666667
0.205,-0.125,5669.444444444444
0.26,-0.15,5672.222222222223
0.31,-0.21,5675.0
0.35,-0.295,5677.777777777777
0.41,-0.395,5680.555555555556
0.49,-0.51,5683.333333333333
0.58,-0.61,5686.111111111111
0.645,-0.69,5688.888888888889
0.71,-0.765,5691.666666666667
0.755,-0.825,5694.444444444444
0.815,-0.905,5697.222222222223
0.88,-0.98,5700.0
0.965,-1.045,5702.777777777777
1.055,-1.1,5705.555555555556
1.125,-1.14,5708.333333333333
1.175,-1.165,5711.111111111111
1.24,-1.195,5713.888888888889
1.35,-1.255,5716.666666666667
1.465,-1.275,5719.444444444444
1.545,-1.275,5722.222222222223
1.57,-1.255,5725.0
1.53,-1.225,5727.777777777777
1.48,-1.175,5730.555555555556
1.43,-1.11,5733.333333333333
1.385,-1.025,5736.111111111111
1.35,-0.925,5738.888888888889
1.325,-0.815,5741.666666666667
1.315,-0.73,5744.444444444444
1.33,-0.665,5747.222222222223
1.34,-0.625,5750.0
1.37,-0.585,5752.777777777777
1.37,-0.55,5755.555555555556
1.365,-0.51,5758.333333333333
1.37,-0.47,5761.111111111111
1.375,-0.415,5763.888888888889
1.385,-0.365,5766.666666666667
1.38,-0.31,5769.444444444444
1.315,-0.27,5772.222222222223
1.2,-0.235,5775.0
1.02,-0.2,5777.777777777777
0.795,-0.14,5780.555555555556
0.56,-0.055,5783.333333333333
0.315,0.04,5786.111111111111
0.09,0.125,5788.888888888889
-0.09,0.17,5791.666666666667
-0.235,0.21,5794.444444444444
-0.335,0.23,5797.222222222223
-0.38,0.25,5800.0
-0.4,0.27,5802.777777777777
-0.415,0.3,5805.555555555556
-0.455,0.315,5808.333333333333
-0.485,0.32,5811.111111111111
-0.51,0.33,5813.888888888889
-0.52,0.32,5816.666666666667
-0.52,0.335,5819.444444444444
-0.52,0.36,5822.222222222223
-0.535,0.37,5825.0
-0.57,0.37,5827.777777777777
-0.585,0.355,5830.555555555556
-0.58,0.36,5833.333333333333
-0.57,0.395,5836.111111111111
-0.565,0.405,5838.888888888889
-0.595,0.415,5841.666666666667
-0.61,0.42,5844.444444444444
-0.625,0.435,5847.222222222223
-0.615,0.425,5850.0
-0.62,0.46,5852.777777777777
-0.63,0.47,5855.555555555556
-0.65,0.48,5858.333333333333
-0.675,0.48,5861.111111111111
-0.685,0.485,5863.888888888889
-0.67,0.495,5866.666666666667
-0.665,0.515,5869.444444444444
-0.68,0.54,5872.222222222223
-0.72,0.555,5875.0
-0.75,0.545,5877.777777777777
-0.75,0.555,5880.555555555556
-0.745,0.57,5883.333333333333
-0.735,0.585,5886.111111111111
-0.74,0.615,5888.888888888889
-0.765,0.63,5891.666666666667
-0.78,0.64,5894.444444444444
-0.795,0.63,5897.222222222223
-0.8,0.64,5900.0
-0.785,0.665,5902.777777777777
-0.795,0.68,5905.555555555556
-0.805,0.685,5908.333333333333
-0.84,0.685,5911.111111111111
-0.865,0.685,5913.888888888889
-0.86,0.685,5916.666666666667
-0.84,0.695,5919.444444444444
-0.83,0.715,5922.222222222223
-0.845,0.72,5925.0
-0.865,0.715,5927.777777777777
-0.88,0.685,5930.555555555556
-0.86,0.675,5933.333333333333
-0.85,0.68,5936.111111111111
-0.835,0.685,5938.888888888889
-0.84,0.67,5941.666666666667
-0.855,0.66,5944.444444444444
-0.855,0.625,5947.222222222223
-0.84,0.61,5950.0
-0.825,0.595,5952.777777777777
-0.795,0.595,5955.555555555556
-0.8,0.575,5958.333333333333
-0.795,0.545,5961.111111111111
-0.78,0.505,5963.888888888889
-0.755,0.47,5966.666666666667
-0.725,0.46,5969.444444444444
-0.7,0.445,5972.222222222223
-0.675,0.415,5975.0
-0.66,0.385,5977.777777777777
-0.64,0.335,5980.555555555556
-0.595,0.3,5983.333333333333
-0.535,0.29,5986.111111111111
-0.495,0.29,5988.888888888889
-0.485,0.26,5991.666666666667
-0.47,0.235,5994.444444444444
-0.465,0.205,5997.222222222223
-0.405,0.17,6000.0
-0.36,0.17,6002.777777777777
-0.31,0.17,6005.555555555556
-0.3,0.155,6008.333333333333
-0.3,0.135,6011.111111111111
-0.275,0.125,6013.888888888889
-0.245,0.115,6016.666666666667
-0.205,0.115,6019.444444444444
-0.195,0.115,6022.222222222223
-0.205,0.12,6025.0
-0.215,0.125,6027.777777777777
-0.22,0.1,6030.555555555556
-0.21,0.09,6033.333333333333
-0.185,0.095,6036.111111111111
-0.175,0.12,6038.888888888889
-0.185,0.115,6041.666666666667
-0.19,0.105,6044.444444444444
-0.21,0.1,6047.222222222223
-0.215,0.09,6050.0
-0.185,0.09,6052.777777777777
-0.18,0.105,6055.555555555556
-0.175,0.115,6058.333333333333
-0.205,0.105,6061.111111111111
-0.2,0.08,6063.888888888889
-0.195,0.075,6066.666666666667
-0.175,0.085,6069.444444444444
-0.175,0.1,6072.222222222223
-0.175,0.11,6075.0
-0.2,0.1,6077.777777777777
-0.205,0.085,6080.555555555556
-0.2,0.085,6083.333333333333
-0.19,0.095,6086.111111111111
-0.175,0.11,6088.888888888889
-0.195,0.12,6091.666666666667
-0.205,0.1,6094.444444444444
-0.205,0.105,6097.222222222223
-0.2,0.09,6100.0
-0.18,0.105,6102.777777777777
-0.165,0.125,6105.555555555556
-0.165,0.115,6108.333333333333
-0.18,0.115,6111.111111111111
-0.195,0.105,6113.888888888889
-0.18,0.08,6116.666666666667
-0.17,0.095,6119.444444444444
-0.145,0.11,6122.222222222223
-0.165,0.105,6125.0
-0.17,0.1,6127.777777777777
-0.195,0.09,6130.555555555556
-0.19,0.065,6133.333333333333
-0.16,0.1,6136.111111111111
-0.14,0.105,6138.888888888889
-0.145,0.095,6141.666666666667
-0.175,0.095,6144.444444444444
-0.17,0.09,6147.222222222223
-0.155,0.095,6150.0
-0.14,0.11,6152.777777777777
-0.13,0.115,6155.555555555556
-0.13,0.115,6158.333333333333
-0.14,0.12,6161.111111111111
-0.125,0.08,6163.888888888889
-0.08,0.055,6166.666666666667
-0.06,0.06,6169.444444444444
-0.01,0.05,6172.222222222223
0.005,0.025,6175.0
0.02,-0.01,6177.777777777777
0.05,-0.05,6180.555555555556
0.095,-0.105,6183.333333333333
0.16,-0.145,6186.111111111111
0.225,-0.2,6188.888888888889
0.295,-0.27,6191.666666666667
0.37,-0.375,6194.444444444444
0.445,-0.465,6197.222222222223
0.52,-0.565,6200.0
0.62,-0.625,6202.777777777777
0.705,-0.685,6205.555555555556
0.77,-0.755,6208.333333333333
0.835,-0.835,6211.111111111111
0.93,-0.93,6213.888888888889
1.01,-0.99,6216.666666666667
1.095,-1.02,6219.444444444444
1.155,-1.035,6222.222222222223
1.205,-1.05,6225.0
1.27,-1.065,6227.777777777777
1.355,-1.095,6230.555555555556
1.445,-1.09,6233.333333333333
1.49,-1.045,6236.111111111111
1.49,-0.98,6238.888888888889
1.41,-0.915,6241.666666666667
1.35,-0.85,6244.444444444444
1.29,-0.8,6247.222222222223
1.26,-0.715,6250.0
1.235,-0.61,6252.777777777777
1.195,-0.475,6255.555555555556
1.155,-0.385,6258.333333333333
1.115,-0.305,6261.111111111111
1.075,-0.255,6263.888888888889
1.06,-0.21,6266.666666666667
1.075,-0.19,6269.444444444444
1.085,-0.16,6272.222222222223
1.1,-0.14,6275.0
1.115,-0.13,6277.777777777777
1.15,-0.14,6280.555555555556
1.17,-0.155,6283.333333333333
1.12,-0.185,6286.111111111111
1.04,-0.18,6288.888888888889
0.915,-0.16,6291.666666666667
0.745,-0.15,6294.444444444444
0.555,-0.115,6297.222222222223
0.355,-0.075,6300.0
0.175,0.02,6302.777777777777
0.005,0.09,6305.555555555556
-0.105,0.13,6308.333333333333
-0.21,0.15,6311.111111111111
-0.265,0.165,6313.888888888889
-0.31,0.17,6316.666666666667
-0.335,0.2,6319.444444444444
-0.385,0.225,6322.222222222223
-0.43,0.245,6325.0
-0.465,0.26,6327.777777777777
-0.49,0.265,6330.555555555556
-0.5,0.28,6333.333333333333
-0.505,0.285,6336.111111111111
-0.52,0.31,6338.888888888889
-0.545,0.315,6341.666666666667
-0.58,0.31,6344.444444444444
-0.585,0.31,6347.222222222223
-0.59,0.32,6350.0
-0.595,0.33,6352.777777777777
-0.6,0.35,6355.555555555556
-0.62,0.365,6358.333333333333
-0.655,0.375,6361.111111111111
-0.645,0.355,6363.888888888889
-0.65,0.36,6366.666666666667
-0.64,0.375,6369.444444444444
-0.65,0.395,6372.222222222223
-0.675,0.4,6375.0
-0.705,0.41,6377.777777777777
-0.73,0.41,6380.555555555556
-0.73,0.41,6383.333333333333
-0.72,0.43,6386.111111111111
-0.725,0.455,6388.888888888889
-0.755,0.46,6391.666666666667
-0.78,0.46,6394.444444444444
-0.8,0.465,6397.222222222223
-0.795,0.48,6400.0
-0.785,0.49,6402.777777777777
-0.79,0.51,6405.555555555556
-0.82,0.52,6408.333333333333
-0.835,0.515,6411.111111111111
-0.855,0.505,6413.888888888889
-0.86,0.5,6416.666666666667
-0.855,0.515,6419.444444444444
-0.865,0.525,6422.222222222223
-0.89,0.53,6425.0
-0.895,0.525,6427.777777777777
-0.9,0.515,6430.555555555556
-0.89,0.505,6433.333333333333
-0.87,0.505,6436.111111111111
-0.875,0.525,6438.888888888889
-0.88,0.51,6441.666666666667
-0.88,0.505,6444.444444444444
-0.885,0.49,6447.222222222223
-0.87,0.47,6450.0
-0.84,0.465,6452.777777777777
-0.83,0.47,6455.555555555556
-0.825,0.45,6458.333333333333
-0.825,0.415,6461.111111111111
-0.8,0.4,6463.888888888889
-0.765,0.375,6466.666666666667
-0.745,0.355,6469.444444444444
-0.705,0.355,6472.222222222223
-0.695,0.33,6475.0
-0.69,0.31,6477.777777777777
-0.645,0.28,6480.555555555556
-0.62,0.255,6483.333333333333
-0.58,0.24,6486.111111111111
-0.55,0.225,6488.888888888889
-0.535,0.215,6491.666666666667
-0.515,0.185,6494.444444444444
-0.475,0.17,6497.222222222223
-0.44,0.135,6500.0
-0.4,0.135,6502.777777777777
-0.375,0.135,6505.555555555556
-0.355,0.13,6508.333333333333
-0.37,0.115,6511.111111111111
-0.345,0.08,6513.888888888889
-0.305,0.07,6516.666666666667
-0.275,0.08,6519.444444444444
-0.25,0.08,6522.222222222223
-0.255,0.075,6525.0
-0.245,0.075,6527.777777777777
-0.25,0.05,6530.555555555556
-0.25,0.055,6533.333333333333
-0.225,0.06,6536.111111111111
-0.23,0.07,6538.888888888889
-0.245,0.06,6541.666666666667
-0.24,0.06,6544.444444444444
-0.245,0.045,6547.222222222223
-0.225,0.05,6550.0
-0.205,0.05,6552.777777777777
-0.22,0.07,6555.555555555556
-0.225,0.065,6558.333333333333
-0.225,0.055,6561.111111111111
-0.235,0.05,6563.888888888889
-0.235,0.045,6566.666666666667
-0.21,0.06,6569.444444444444
-0.21,0.075,6572.222222222223
-0.23,0.08,6575.0
-0.23,0.06,6577.777777777777
-0.24,0.06,6580.555555555556
-0.22,0.045,6583.333333333333
-0.21,0.055,6586.111111111111
-0.22,0.07,6588.888888888889
-0.215,0.08,6591.666666666667
-0.23,0.065,6594.444444444444
-0.22,0.055,6597.222222222223
-0.21,0.045,6600.0
-0.185,0.06,6602.777777777777
-0.19,0.07,6605.555555555556
-0.21,0.065,6608.333333333333
-0.21,0.045,6611.111111111111
-0.215,0.035,6613.888888888889
-0.19,0.03,6616.666666666667
-0.17,0.03,6619.444444444444
-0.16,0.055,6622.222222222223
-0.175,0.055,6625.0
-0.185,0.04,6627.777777777777
-0.21,0.025,6630.555555555556
-0.18,0.02,6633.333333333333
-0.16,0.035,6636.111111111111
-0.16,0.045,6638.888888888889
-0.17,0.045,6641.666666666667
-0.18,0.04,6644.444444444444
-0.185,0.015,6647.222222222223
-0.16,0.02,6650.0
-0.145,0.025,6652.777777777777
-0.145,0.045,6655.555555555556
-0.15,0.03,6658.333333333333
-0.17,0.035,6661.111111111111
-0.165,0.025,6663.888888888889
-0.145,0.02,6666.666666666667
-0.125,0.01,6669.444444444444
-0.13,0.03,6672.222222222223
-0.13,0.025,6675.0
-0.16,0.015,6677.777777777777
-0.145,0.005,6680.555555555556
-0.14,0.01,6683.333333333333
-0.125,0.005,6686.111111111111
-0.13,0.02,6688.888888888889
-0.14,0.025,6691.666666666667
-0.155,0.02,6694.444444444444
-0.155,0.0,6697.222222222223
-0.155,-0.01,6700.0
-0.13,-0.005,6702.777777777777
-0.13,0.01,6705.555555555556
-0.135,0.025,6708.333333333333
-0.145,0.005,6711.111111111111
-0.15,-0.005,6713.888888888889
-0.125,-0.005,6716.666666666667
-0.11,0.0,6719.444444444444
-0.125,0.005,6722.222222222223
-0.15,0.005,6725.0
-0.14,0.0,6727.777777777777
-0.145,-0.01,6730.555555555556
-0.13,-0.015,6733.333333333333
-0.125,-0.005,6736.111111111111
-0.115,0.01,6738.888888888889
-0.12,0.01,6741.666666666667
-0.135,0.01,6744.444444444444
-0.155,-0.005,6747.222222222223
-0.15,-0.015,6750.0
-0.13,-0.015,6752.777777777777
-0.13,0.0,6755.555555555556
-0.14,0.01,6758.333333333333
-0.155,0.0,6761.111111111111
-0.145,-0.01,6763.888888888889
-0.135,-0.005,6766.666666666667
-0.125,-0.01,6769.444444444444
-0.115,0.0,6772.222222222223
-0.135,0.005,6775.0
-0.145,0.0,6777.777777777777
-0.155,-0.02,6780.555555555556
-0.13,-0.01,6783.333333333333
-0.11,-0.005,6786.111111111111
-0.12,0.015,6788.888888888889
-0.125,0.0,6791.666666666667
-0.145,-0.015,6794.444444444444
-0.14,-0.015,6797.222222222223
-0.135,-0.03,6800.0
-0.11,-0.01,6802.777777777777
-0.12,-0.005,6805.555555555556
-0.135,0.0,6808.333333333333
-0.155,-0.03,6811.111111111111
-0.145,-0.025,6813.888888888889
-0.14,-0.025,6816.666666666667
-0.13,-0.025,6819.444444444444
-0.125,0.005,6822.222222222223
-0.13,-0.005,6825.0
-0.14,-0.005,6827.777777777777
-0.135,-0.03,6830.555555555556
-0.125,-0.04,6833.333333333333
-0.105,-0.02,6836.111111111111
-0.105,-0.01,6838.888888888889
-0.12,-0.005,6841.666666666667
-0.12,-0.02,6844.444444444444
-0.125,-0.035,6847.222222222223
-0.11,-0.04,6850.0
-0.105,-0.02,6852.777777777777
-0.1,-0.01,6855.555555555556
-0.12,-0.015,6858.333333333333
-0.145,-0.005,6861.111111111111
-0.14,-0.03,6863.888888888889
-0.12,-0.04,6866.666666666667
-0.095,-0.02,6869.444444444444
-0.09,-0.015,6872.222222222223
-0.115,-0.005,6875.0
-0.135,-0.015,6877.777777777777
-0.13,-0.035,6880.555555555556
-0.12,-0.035,6883.333333333333
-0.115,-0.03,6886.111111111111
-0.105,-0.015,6888.888888888889
-0.12,-0.02,6891.666666666667
-0.125,-0.02,6894.444444444444
-0.125,-0.04,6897.222222222223
-0.11,-0.035,6900.0
-0.09,-0.035,6902.777777777777
-0.11,-0.025,6905.555555555556
-0.12,-0.02,6908.333333333333
-0.12,-0.025,6911.111111111111
-0.11,-0.035,6913.888888888889
-0.12,-0.035,6916.666666666667
-0.11,-0.04,6919.444444444444
-0.11,-0.005,6922.222222222223
-0.115,-0.015,6925.0
-0.135,-0.025,6927.777777777777
-0.125,-0.035,6930.555555555556
-0.11,-0.04,6933.333333333333
-0.095,-0.025,6936.111111111111
-0.085,-0.005,6938.888888888889
-0.09,-0.01,6941.666666666667
-0.12,-0.01,6944.444444444444
-0.095,-0.03,6947.222222222223
-0.075,-0.015,6950.0
-0.065,-0.005,6952.777777777777
-0.05,0.015,6955.555555555556
-0.06,0.015,6958.333333333333
-0.06,0.01,6961.111111111111
-0.045,0.01,6963.888888888889
-0.01,0.015,6966.666666666667
0.015,0.025,6969.444444444444
0.025,0.03,6972.222222222223
0.02,0.005,6975.0
0.025,-0.005,6977.777777777777
0.045,-0.02,6980.555555555556
0.06,-0.045,6983.333333333333
0.075,-0.05,6986.111111111111
0.07,-0.05,6988.888888888889
0.06,-0.055,6991.666666666667
0.03,-0.065,6994.444444444444
0.01,-0.085,6997.222222222223
0.035,-0.07,7000.0
0.025,-0.065,7002.777777777777
0.015,-0.065,7005.555555555556
-0.02,-0.06,7008.333333333333
-0.05,-0.065,7011.111111111111
-0.065,-0.075,7013.888888888889
-0.075,-0.06,7016.666666666667
-0.065,-0.055,7019.444444444444
-0.09,-0.03,7022.222222222223
-0.115,-0.035,7025.0
-0.12,-0.045,7027.777777777777
-0.135,-0.055,7030.555555555556
-0.13,-0.06,7033.333333333333
-0.12,-0.06,7036.111111111111
-0.13,-0.04,7038.888888888889
-0.135,-0.04,7041.666666666667
-0.15,-0.045,7044.444444444444
-0.14,-0.06,7047.222222222223
-0.12,-0.06,7050.0
-0.105,-0.055,7052.777777777777
-0.11,-0.04,7055.555555555556
-0.12,-0.055,7058.333333333333
-0.13,-0.05,7061.111111111111
-0.135,-0.065,7063.888888888889
-0.115,-0.07,7066.666666666667
-0.105,-0.055,7069.444444444444
-0.12,-0.07,7072.222222222223
-0.15,-0.07,7075.0
-0.185,-0.095,7077.777777777777
-0.18,-0.085,7080.555555555556
-0.12,-0.095,7083.333333333333
0.005,-0.125,7086.111111111111
0.145,-0.18,7088.888888888889
0.315,-0.255,7091.666666666667
0.545,-0.29,7094.444444444444
0.825,-0.285,7097.222222222223
1.125,-0.295,7100.0
1.39,-0.29,7102.777777777777
1.595,-0.255,7105.555555555556
1.625,-0.22,7108.333333333333
1.445,-0.16,7111.111111111111
1.08,-0.13,7113.888888888889
0.655,-0.085,7116.666666666667
0.225,-0.08,7119.444444444444
-0.085,-0.105,7122.222222222223
-0.185,-0.135,7125.0
-0.18,-0.17,7127.777777777777
-0.16,-0.165,7130.555555555556
-0.145,-0.15,7133.333333333333
-0.145,-0.105,7136.111111111111
-0.145,-0.065,7138.888888888889
-0.13,-0.05,7141.666666666667
-0.15,-0.04,7144.444444444444
-0.17,-0.055,7147.222222222223
-0.175,-0.055,7150.0
-0.17,-0.045,7152.777777777777
-0.16,-0.025,7155.555555555556
-0.16,-0.03,7158.333333333333
-0.18,-0.04,7161.111111111111
-0.185,-0.04,7163.888888888889
-0.18,-0.035,7166.666666666667
-0.165,-0.04,7169.444444444444
-0.14,-0.035,7172.222222222223
-0.155,-0.035,7175.0
-0.17,-0.04,7177.777777777777
-0.18,-0.045,7180.555555555556
-0.17,-0.06,7183.333333333333
-0.16,-0.04,7186.111111111111
-0.15,-0.04,7188.888888888889
-0.155,-0.045,7191.666666666667
-0.165,-0.045,7194.444444444444
-0.17,-0.055,7197.222222222223
-0.165,-0.06,7200.0
-0.15,-0.06,7202.777777777777
-0.14,-0.03,7205.555555555556
-0.15,-0.045,7208.333333333333
-0.165,-0.05,7211.111111111111
-0.16,-0.07,7213.888888888889
-0.155,-0.07,7216.666666666667
-0.14,-0.065,7219.444444444444
-0.115,-0.06,7222.222222222223
-0.125,-0.05,7225.0
-0.13,-0.065,7227.777777777777
-0.135,-0.075,7230.555555555556
-0.13,-0.09,7233.333333333333
-0.095,-0.095,7236.111111111111
-0.095,-0.07,7238.888888888889
-0.105,-0.085,7241.666666666667
-0.1,-0.1,7244.444444444444
-0.09,-0.11,7247.222222222223
-0.075,-0.115,7250.0
-0.045,-0.11,7252.777777777777
-0.035,-0.115,7255.555555555556
-0.05,-0.105,7258.333333333333
-0.04,-0.12,7261.111111111111
-0.04,-0.135,7263.888888888889
-0.02,-0.16,7266.666666666667
0.01,-0.15,7269.444444444444
0.01,-0.155,7272.222222222223
0.025,-0.17,7275.0
0.02,-0.18,7277.777777777777
0.045,-0.205,7280.555555555556
0.055,-0.22,7283.333333333333
0.085,-0.205,7286.111111111111
0.1,-0.215,7288.888888888889
0.1,-0.23,7291.666666666667
0.095,-0.245,7294.444444444444
0.105,-0.26,7297.222222222223
0.14,-0.275,7300.0
0.16,-0.265,7302.777777777777
0.17,-0.27,7305.555555555556
0.17,-0.265,7308.333333333333
0.16,-0.285,7311.111111111111
0.16,-0.3,7313.888888888889
0.17,-0.315,7316.666666666667
0.215,-0.305,7319.444444444444
0.235,-0.295,7322.222222222223
0.225,-0.29,7325.0
0.23,-0.295,7327.777777777777
0.23,-0.31,7330.555555555556
0.245,-0.305,7333.333333333333
0.255,-0.295,7336.111111111111
0.265,-0.275,7338.888888888889
0.255,-0.265,7341.666666666667
0.25,-0.275,7344.444444444444
0.23,-0.26,7347.222222222223
0.225,-0.245,7350.0
0.215,-0.23,7352.777777777777
0.215,-0.195,7355.555555555556
0.195,-0.17,7358.333333333333
0.155,-0.16,7361.111111111111
0.125,-0.155,7363.888888888889
0.12,-0.14,7366.666666666667
0.1,-0.11,7369.444444444444
0.095,-0.085,7372.222222222223
0.075,-0.065,7375.0
0.05,-0.055,7377.777777777777
0.02,-0.06,7380.555555555556
0.0,-0.065,7383.333333333333
-0.01,-0.035,7386.111111111111
-0.015,-0.005,7388.888888888889
-0.03,0.0,7391.666666666667
-0.075,0.02,7394.444444444444
-0.095,0.0,7397.222222222223
-0.11,0.005,7400.0
-0.09,0.01,7402.777777777777
-0.085,0.035,7405.555555555556
-0.115,0.035,7408.333333333333
-0.12,0.04,7411.111111111111
-0.125,0.035,7413.888888888889
-0.14,0.025,7416.666666666667
-0.12,0.04,7419.444444444444
-0.135,0.05,7422.222222222223
-0.15,0.055,7425.0
-0.155,0.045,7427.777777777777
-0.165,0.035,7430.555555555556
-0.14,0.025,7433.333333333333
-0.13,0.04,7436.111111111111
-0.12,0.045,7438.888888888889
-0.125,0.055,7441.666666666667
-0.145,0.045,7444.444444444444
-0.155,0.025,7447.222222222223
-0.145,0.03,7450.0
-0.125,0.035,7452.777777777777
-0.13,0.045,7455.555555555556
-0.12,0.05,7458.333333333333
-0.13,0.04,7461.111111111111
-0.135,0.025,7463.888888888889
-0.135,0.01,7466.666666666667
-0.125,0.025,7469.444444444444
-0.11,0.035,7472.222222222223
-0.135,0.03,7475.0
-0.145,0.03,7477.777777777777
-0.145,0.0,7480.555555555556
-0.15,0.0,7483.333333333333
-0.125,0.0,7486.111111111111
-0.12,0.03,7488.888888888889
-0.115,0.03,7491.666666666667
-0.13,0.01,7494.444444444444
-0.145,-0.005,7497.222222222223
-0.14,0.005,7500.0
-0.12,0.02,7502.777777777777
-0.11,0.035,7505.555555555556
-0.11,0.035,7508.333333333333
-0.125,0.025,7511.111111111111
-0.105,0.035,7513.888888888889
-0.09,0.02,7516.666666666667
-0.06,0.045,7519.444444444444
-0.04,0.05,7522.222222222223
-0.04,0.05,7525.0
-0.04,0.045,7527.777777777777
-0.035,0.04,7530.555555555556
0.0,0.03,7533.333333333333
0.04,0.02,7536.111111111111
0.055,0.045,7538.888888888889
0.04,0.04,7541.666666666667
0.02,0.035,7544.444444444444
0.005,0.02,7547.222222222223
0.01,0.0,7550.0
0.025,0.0,7552.777777777777
0.035,0.01,7555.555555555556
0.03,0.02,7558.333333333333
0.0,0.015,7561.111111111111
0.005,0.0,7563.888888888889
0.045,-0.045,7566.666666666667
0.075,-0.07,7569.444444444444
0.11,-0.08,7572.222222222223
0.11,-0.115,7575.0
0.13,-0.16,7577.777777777777
0.165,-0.195,7580.555555555556
0.24,-0.26,7583.333333333333
0.33,-0.365,7586.111111111111
0.41,-0.455,7588.888888888889
0.46,-0.555,7591.666666666667
0.525,-0.655,7594.444444444444
0.585,-0.725,7597.222222222223
0.66,-0.81,7600.0
0.765,-0.845,7602.777777777777
0.835,-0.865,7605.555555555556
0.905,-0.95,7608.333333333333
0.965,-1.005,7611.111111111111
1.04,-1.035,7613.888888888889
1.115,-1.07,7616.666666666667
1.19,-1.09,7619.444444444444
1.27,-1.115,7622.222222222223
1.36,-1.15,7625.0
1.45,-1.18,7627.777777777777
1.505,-1.16,7630.555555555556
1.52,-1.12,7633.333333333333
1.495,-1.05,7636.111111111111
1.43,-0.96,7638.888888888889
1.345,-0.9,7641.666666666667
1.285,-0.83,7644.444444444444
1.24,-0.76,7647.222222222223
1.19,-0.655,7650.0
1.15,-0.555,7652.777777777777
1.12,-0.46,7655.555555555556
1.06,-0.41,7658.333333333333
1.0,-0.39,7661.111111111111
0.985,-0.39,7663.888888888889
0.995,-0.365,7666.666666666667
0.99,-0.34,7669.444444444444
0.99,-0.3,7672.222222222223
0.965,-0.28,7675.0
0.945,-0.28,7677.777777777777
0.905,-0.29,7680.555555555556
0.85,-0.28,7683.333333333333
0.745,-0.25,7686.111111111111
0.62,-0.19,7688.888888888889
0.44,-0.12,7691.666666666667
0.2,-0.05,7694.444444444444
-0.01,0.035,7697.222222222223
-0.18,0.1,7700.0
-0.31,0.165,7702.777777777777
-0.395,0.215,7705.555555555556
-0.46,0.24,7708.333333333333
-0.505,0.245,7711.111111111111
-0.525,0.245,7713.888888888889
-0.555,0.265,7716.666666666667
-0.54,0.28,7719.444444444444
-0.57,0.305,7722.222222222223
-0.595,0.315,7725.0
-0.63,0.32,7727.777777777777
-0.635,0.315,7730.555555555556
-0.63,0.33,7733.333333333333
-0.63,0.35,7736.111111111111
-0.635,0.365,7738.888888888889
-0.655,0.37,7741.666666666667
-0.68,0.375,7744.444444444444
-0.695,0.385,7747.222222222223
-0.695,0.39,7750.0
-0.69,0.405,7752.777777777777
-0.695,0.435,7755.555555555556
-0.72,0.45,7758.333333333333
-0.74,0.465,7761.111111111111
-0.76,0.455,7763.888888888889
-0.77,0.47,7766.666666666667
-0.77,0.495,7769.444444444444
-0.79,0.525,7772.222222222223
-0.795,0.545,7775.0
-0.82,0.555,7777.777777777777
-0.825,0.56,7780.555555555556
-0.845,0.575,7783.333333333333
-0.84,0.6,7786.111111111111
-0.845,0.625,7788.888888888889
-0.855,0.635,7791.666666666667
-0.885,0.65,7794.444444444444
-0.895,0.65,7797.222222222223
-0.905,0.645,7800.0
-0.89,0.68,7802.777777777777
-0.9,0.695,7805.555555555556
-0.925,0.715,7808.333333333333
-0.96,0.71,7811.111111111111
-0.96,0.705,7813.888888888889
-0.945,0.7,7816.666666666667
-0.96,0.715,7819.444444444444
-0.965,0.745,7822.222222222223
-0.97,0.725,7825.0
-0.99,0.735,7827.777777777777
-0.99,0.7,7830.555555555556
-0.98,0.69,7833.333333333333
-0.965,0.69,7836.111111111111
-0.96,0.7,7838.888888888889
-0.96,0.68,7841.666666666667
-0.975,0.65,7844.444444444444
-0.965,0.64,7847.222222222223
-0.935,0.61,7850.0
-0.91,0.59,7852.777777777777
-0.895,0.585,7855.555555555556
-0.895,0.565,7858.333333333333
-0.895,0.52,7861.111111111111
-0.87,0.485,7863.888888888889
-0.84,0.455,7866.666666666667
-0.785,0.44,7869.444444444444
-0.76,0.42,7872.222222222223
-0.745,0.39,7875.0
-0.72,0.345,7877.777777777777
-0.69,0.31,7880.555555555556
-0.65,0.28,7883.333333333333
-0.605,0.26,7886.111111111111
-0.58,0.245,7888.888888888889
-0.54,0.235,7891.666666666667
-0.535,0.205,7894.444444444444
-0.505,0.17,7897.222222222223
-0.46,0.155,7900.0
-0.42,0.15,7902.777777777777
-0.405,0.17,7905.555555555556
-0.4,0.145,7908.333333333333
-0.38,0.135,7911.111111111111
-0.375,0.11,7913.888888888889
-0.33,0.105,7916.666666666667
-0.325,0.105,7919.444444444444
-0.305,0.125,7922.222222222223
-0.305,0.125,7925.0
-0.325,0.115,7927.777777777777
-0.32,0.095,7930.555555555556
-0.305,0.08,7933.333333333333
-0.285,0.1,7936.111111111111
-0.28,0.11,7938.888888888889
-0.305,0.105,7941.666666666667
-0.315,0.1,7944.444444444444
-0.325,0.09,7947.222222222223
-0.315,0.085,7950.0
-0.285,0.095,7952.777777777777
-0.285,0.1,7955.555555555556
-0.295,0.11,7958.333333333333
-0.315,0.11,7961.111111111111
-0.315,0.085,7963.888888888889
-0.315,0.095,7966.666666666667
-0.29,0.1,7969.444444444444
-0.29,0.105,7972.222222222223
-0.295,0.11,7975.0
-0.305,0.115,7977.777777777777
-0.315,0.095,7980.555555555556
-0.305,0.095,7983.333333333333
-0.3,0.115,7986.111111111111
-0.295,0.115,7988.888888888889
-0.3,0.12,7991.666666666667
-0.31,0.12,7994.444444444444
-0.32,0.105,7997.222222222223
-0.31,0.09,8000.0
-0.295,0.1,8002.777777777777
-0.28,0.12,8005.555555555556
-0.28,0.12,8008.333333333333
-0.3,0.1,8011.111111111111
-0.305,0.095,8013.888888888889
-0.31,0.09,8016.666666666667
-0.28,0.105,8019.444444444444
-0.265,0.115,8022.222222222223
-0.26,0.1,8025.0
-0.27,0.095,8027.777777777777
-0.28,0.075,8030.555555555556
-0.27,0.085,8033.333333333333
-0.24,0.09,8036.111111111111
-0.24,0.095,8038.888888888889
-0.24,0.095,8041.666666666667
-0.24,0.095,8044.444444444444
-0.25,0.085,8047.222222222223
-0.235,0.08,8050.0
-0.225,0.09,8052.777777777777
-0.215,0.1,8055.555555555556
-0.22,0.105,8058.333333333333
-0.245,0.1,8061.111111111111
-0.25,0.095,8063.888888888889
-0.225,0.105,8066.666666666667
-0.2,0.095,8069.444444444444
-0.175,0.11,8072.222222222223
-0.17,0.09,8075.0
-0.15,0.075,8077.777777777777
-0.125,0.035,8080.555555555556
-0.07,0.01,8083.333333333333
-0.02,-0.01,8086.111111111111
0.01,-0.025,8088.888888888889
0.055,-0.07,8091.666666666667
0.095,-0.15,8094.444444444444
0.135,-0.225,8097.222222222223
0.245,-0.32,8100.0
0.355,-0.435,8102.777777777777
0.45,-0.515,8105.555555555556
0.515,-0.595,8108.333333333333
0.595,-0.665,8111.111111111111
0.665,-0.735,8113.888888888889
0.765,-0.785,8116.666666666667
0.86,-0.845,8119.444444444444
0.95,-0.9,8122.222222222223
1.06,-0.97,8125.0
1.145,-1.0,8127.777777777777
1.23,-1.02,8130.555555555556
1.355,-1.055,8133.333333333333
1.49,-1.07,8136.111111111111
1.56,-1.05,8138.888888888889
1.59,-1.025,8141.666666666667
1.535,-1.01,8144.444444444444
1.455,-0.965,8147.222222222223
1.39,-0.91,8150.0
1.33,-0.81,8152.777777777777
1.28,-0.7,8155.555555555556
1.245,-0.585,8158.333333333333
1.195,-0.49,8161.111111111111
1.16,-0.405,8163.888888888889
1.125,-0.36,8166.666666666667
1.095,-0.32,8169.444444444444
1.055,-0.275,8172.222222222223
1.03,-0.265,8175.0
0.985,-0.225,8177.777777777777
0.975,-0.215,8180.555555555556
1.0,-0.19,8183.333333333333
1.025,-0.17,8186.111111111111
0.985,-0.16,8188.888888888889
0.9,-0.15,8191.666666666667
0.77,-0.165,8194.444444444445
0.62,-0.145,8197.222222222223
0.455,-0.095,8200.0
0.255,-0.03,8202.777777777777
0.05,0.055,8205.555555555555
-0.135,0.135,8208.333333333334
-0.32,0.185,8211.111111111111
-0.41,0.2,8213.888888888889
-0.46,0.235,8216.666666666666
-0.47,0.265,8219.444444444445
-0.49,0.28,8222.222222222223
-0.525,0.295,8225.0
-0.565,0.3,8227.777777777777
-0.6,0.295,8230.555555555555
-0.615,0.3,8233.333333333334
-0.61,0.33,8236.111111111111
-0.625,0.335,8238.888888888889
-0.655,0.365,8241.666666666666
-0.685,0.37,8244.444444444445
-0.69,0.36,8247.222222222223
-0.685,0.36,8250.0
-0.68,0.385,8252.777777777777
-0.685,0.405,8255.555555555555
-0.72,0.415,8258.333333333334
-0.745,0.415,8261.111111111111
-0.755,0.415,8263.888888888889
-0.745,0.44,8266.666666666666
-0.74,0.465,8269.444444444445
-0.76,0.48,8272.222222222223
-0.785,0.495,8275.0
-0.815,0.505,8277.777777777777
-0.835,0.505,8280.555555555555
-0.84,0.5,8283.333333333334
-0.83,0.535,8286.111111111111
-0.845,0.57,8288.888888888889
-0.875,0.575,8291.666666666666
-0.9,0.59,8294.444444444445
-0.92,0.595,8297.222222222223
-0.915,0.6,8300.0
-0.915,0.625,8302.777777777777
-0.925,0.65,8305.555555555555
-0.95,0.655,8308.333333333334
-0.97,0.665,8311.111111111111
-0.99,0.65,8313.888888888889
-0.99,0.66,8316.666666666666
-0.985,0.67,8319.444444444445
-0.975,0.68,8322.222222222223
-0.99,0.68,8325.0
-1.02,0.665,8327.777777777777
-1.015,0.64,8330.555555555555
-0.985,0.625,8333.333333333334
-0.945,0.61,8336.111111111111
-0.925,0.605,8338.888888888889
-0.935,0.59,8341.666666666666
-0.925,0.55,8344.444444444445
-0.905,0.505,8347.222222222223
-0.845,0.475,8350.0
-0.805,0.445,8352.777777777777
-0.76,0.415,8355.555555555555
-0.72,0.4,8358.333333333334
-0.715,0.36,8361.111111111111
-0.67,0.32,8363.888888888889
-0.62,0.285,8366.666666666666
-0.565,0.275,8369.444444444445
-0.525,0.25,8372.222222222223
-0.495,0.24,8375.0
-0.47,0.21,8377.777777777777
-0.44,0.175,8380.555555555555
-0.395,0.16,8383.333333333334
-0.35,0.15,8386.111111111111
-0.335,0.15,8388.888888888889
-0.315,0.145,8391.666666666666
-0.31,0.14,8394.444444444445
-0.295,0.11,8397.222222222223
-0.275,0.105,8400.0
-0.26,0.105,8402.777777777777
-0.245,0.12,8405.555555555555
-0.26,0.12,8408.333333333334
-0.27,0.12,8411.111111111111
-0.29,0.085,8413.888888888889
-0.26,0.085,8416.666666666666
-0.23,0.095,8419.444444444445
-0.225,0.115,8422.222222222223
-0.24,0.105,8425.0
-0.255,0.095,8427.777777777777
-0.26,0.09,8430.555555555555
-0.255,0.1,8433.333333333334
-0.235,0.095,8436.111111111111
-0.225,0.11,8438.888888888889
-0.235,0.11,8441.666666666666
-0.26,0.095,8444.444444444445
-0.26,0.1,8447.222222222223
-0.25,0.095,8450.0
-0.23,0.1,8452.777777777777
-0.26,0.12,8455.555555555555
-0.25,0.125,8458.333333333334
-0.265,0.11,8461.111111111111
-0.255,0.095,8463.888888888889
-0.25,0.095,8466.666666666666
-0.22,0.095,8469.444444444445
-0.225,0.12,8472.222222222223
-0.23,0.115,8475.0
-0.245,0.095,8477.777777777777
-0.24,0.075,8480.555555555555
-0.215,0.075,8483.333333333334
-0.195,0.09,8486.111111111111
-0.195,0.1,8488.888888888889
-0.21,0.095,8491.666666666666
-0.235,0.08,8494.444444444445
-0.225,0.06,8497.222222222223
-0.205,0.07,8500.0
-0.18,0.08,8502.777777777777
-0.185,0.09,8505.555555555555
-0.195,0.095,8508.333333333334
-0.21,0.085,8511.111111111111
-0.205,0.065,8513.888888888889
-0.18,0.065,8516.666666666666
-0.16,0.07,8519.444444444445
-0.165,0.085,8522.222222222223
-0.18,0.085,8525.0
-0.19,0.08,8527.777777777777
-0.19,0.065,8530.555555555555
-0.17,0.055,8533.333333333334
-0.16,0.075,8536.111111111111
-0.155,0.09,8538.888888888889
-0.17,0.085,8541.666666666666
-0.18,0.075,8544.444444444445
-0.19,0.055,8547.222222222223
-0.175,0.055,8550.0
-0.155,0.065,8552.777777777777
-0.15,0.075,8555.555555555555
-0.165,0.07,8558.333333333334
-0.185,0.07,8561.111111111111
-0.18,0.055,8563.888888888889
-0.165,0.065,8566.666666666666
-0.145,0.06,8569.444444444445
-0.14,0.06,8572.222222222223
-0.165,0.075,8575.0
-0.165,0.06,8577.777777777777
-0.16,0.035,8580.555555555555
-0.165,0.035,8583.333333333334
-0.145,0.045,8586.111111111111
-0.14,0.055,8588.888888888889
-0.155,0.07,8591.666666666666
-0.165,0.05,8594.444444444445
-0.17,0.04,8597.222222222223
-0.145,0.04,8600.0
-0.14,0.055,8602.777777777777
-0.135,0.06,8605.555555555555
-0.145,0.065,8608.333333333334
-0.15,0.045,8611.111111111111
-0.155,0.04,8613.888888888889
-0.135,0.04,8616.666666666666
-0.13,0.045,8619.444444444445
-0.135,0.05,8622.222222222223
-0.135,0.05,8625.0
-0.155,0.05,8627.777777777777
-0.16,0.045,8630.555555555555
-0.15,0.035,8633.333333333334
-0.13,0.045,8636.111111111111
-0.14,0.05,8638.888888888889
-0.135,0.06,8641.666666666666
-0.16,0.05,8644.444444444445
-0.155,0.04,8647.222222222223
-0.145,0.035,8650.0
-0.125,0.04,8652.777777777777
-0.12,0.06,8655.555555555555
-0.13,0.05,8658.333333333334
-0.15,0.045,8661.111111111111
-0.155,0.025,8663.888888888889
-0.125,0.04,8666.666666666666
-0.125,0.05,8669.444444444445
-0.145,0.065,8672.222222222223
-0.145,0.06,8675.0
-0.145,0.055,8677.777777777777
-0.145,0.04,8680.555555555555
-0.135,0.035,8683.333333333334
-0.125,0.045,8686.111111111111
-0.135,0.055,8688.888888888889
-0.155,0.06,8691.666666666666
-0.14,0.045,8694.444444444445
-0.14,0.03,8697.222222222223
-0.125,0.035,8700.0
-0.12,0.04,8702.777777777777
-0.115,0.06,8705.555555555555
-0.125,0.05,8708.333333333334
-0.145,0.045,8711.111111111111
-0.145,0.04,8713.888888888889
-0.135,0.04,8716.666666666666
-0.115,0.045,8719.444444444445
-0.105,0.05,8722.222222222223
-0.11,0.055,8725.0
-0.105,0.065,8727.777777777777
-0.1,0.07,8730.555555555555
-0.08,0.07,8733.333333333334
-0.05,0.08,8736.111111111111
-0.045,0.09,8738.888888888889
-0.035,0.105,8741.666666666666
-0.025,0.09,8744.444444444445
-0.015,0.08,8747.222222222223
0.02,0.065,8750.0
0.05,0.05,8752.777777777777
0.05,0.055,8755.555555555555
0.035,0.03,8758.333333333334
0.03,0.005,8761.111111111111
0.025,-0.01,8763.888888888889
0.035,-0.025,8766.666666666666
0.025,-0.01,8769.444444444445
0.005,-0.01,8772.222222222223
-0.02,-0.005,8775.0
-0.05,-0.005,8777.777777777777
-0.05,-0.025,8780.555555555555
-0.055,-0.045,8783.333333333334
-0.055,-0.035,8786.111111111111
-0.065,-0.01,8788.888888888889
-0.09,0.005,8791.666666666666
-0.115,0.005,8794.444444444445
-0.125,-0.005,8797.222222222223
-0.125,0.01,8800.0
-0.125,-0.005,8802.777777777777
-0.125,0.02,8805.555555555555
-0.14,0.02,8808.333333333334
-0.165,0.0,8811.111111111111
-0.145,-0.005,8813.888888888889
-0.145,-0.005,8816.666666666666
-0.135,-0.005,8819.444444444445
-0.13,0.015,8822.222222222223
-0.145,0.01,8825.0
-0.155,0.005,8827.777777777777
-0.14,-0.005,8830.555555555555
-0.125,-0.01,8833.333333333334
-0.115,-0.005,8836.111111111111
-0.125,0.0,8838.888888888889
-0.14,0.005,8841.666666666666
-0.145,-0.01,8844.444444444445
-0.145,-0.015,8847.222222222223
-0.12,-0.02,8850.0
-0.115,-0.01,8852.777777777777
-0.125,-0.025,8855.555555555555
-0.155,-0.025,8858.333333333334
-0.165,-0.035,8861.111111111111
-0.15,-0.045,8863.888888888889
-0.07,-0.04,8866.666666666666
0.04,-0.05,8869.444444444445
0.175,-0.105,8872.222222222223
0.34,-0.19,8875.0
0.53,-0.225,8877.777777777777
0.75,-0.25,8880.555555555555
0.995,-0.245,8883.333333333334
1.25,-0.255,8886.111111111111
1.47,-0.265,8888.888888888889
1.6,-0.25,8891.666666666666
1.54,-0.19,8894.444444444445
1.28,-0.14,8897.222222222223
0.935,-0.125,8900.0
0.595,-0.1,8902.777777777777
0.29,-0.08,8905.555555555555
0.1,-0.08,8908.333333333334
0.0,-0.115,8911.111111111111
-0.07,-0.135,8913.888888888889
-0.115,-0.12,8916.666666666666
-0.145,-0.095,8919.444444444445
-0.16,-0.05,8922.222222222223
-0.165,-0.025,8925.0
-0.135,-0.02,8927.777777777777
-0.13,-0.02,8930.555555555555
-0.135,-0.01,8933.333333333334
-0.135,0.005,8936.111111111111
-0.15,0.02,8938.888888888889
-0.175,0.01,8941.666666666666
-0.185,0.005,8944.444444444445
-0.185,0.0,8947.222222222223
-0.18,-0.005,8950.0
-0.165,0.015,8952.777777777777
-0.17,0.03,8955.555555555555
-0.205,0.025,8958.333333333334
-0.2,0.02,8961.111111111111
-0.195,0.005,8963.888888888889
-0.175,0.01,8966.666666666666
-0.18,0.015,8969.444444444445
-0.165,0.02,8972.222222222223
-0.18,0.025,8975.0
-0.19,0.02,8977.777777777777
-0.195,0.0,8980.555555555555
-0.17,0.0,8983.333333333334
-0.15,0.005,8986.111111111111
-0.155,0.025,8988.888888888889
-0.165,0.015,8991.666666666666
-0.18,0.005,8994.444444444445
-0.185,-0.01,8997.222222222223
-0.155,0.01,9000.0
-0.15,0.01,9002.777777777777
-0.14,0.03,9005.555555555555
-0.14,0.01,9008.333333333334
-0.155,-0.005,9011.111111111111
-0.155,-0.015,9013.888888888889
-0.125,-0.015,9016.666666666666
-0.1,-0.015,9019.444444444445
-0.095,-0.005,9022.222222222223
-0.105,0.005,9025.0
-0.125,-0.015,9027.777777777777
-0.14,-0.035,9030.555555555555
-0.11,-0.04,9033.333333333334
-0.075,-0.03,9036.111111111111
-0.075,-0.03,9038.888888888889
-0.09,-0.035,9041.666666666666
-0.1,-0.05,9044.444444444445
-0.085,-0.06,9047.222222222223
-0.065,-0.065,9050.0
-0.03,-0.055,9052.777777777777
-0.01,-0.055,9055.555555555555
-0.04,-0.065,9058.333333333334
-0.04,-0.085,9061.111111111111
-0.055,-0.105,9063.888888888889
-0.015,-0.12,9066.666666666666
0.025,-0.11,9069.444444444445
0.045,-0.105,9072.222222222223
0.035,-0.11,9075.0
0.015,-0.135,9077.777777777777
0.025,-0.16,9080.555555555555
0.055,-0.17,9083.333333333334
0.11,-0.17,9086.111111111111
0.115,-0.175,9088.888888888889
0.12,-0.185,9091.666666666666
0.11,-0.21,9094.444444444445
0.125,-0.235,9097.222222222223
0.155,-0.24,9100.0
0.19,-0.24,9102.777777777777
0.205,-0.23,9105.555555555555
0.21,-0.245,9108.333333333334
0.205,-0.265,9111.111111111111
0.21,-0.285,9113.888888888889
0.235,-0.29,9116.666666666666
0.255,-0.285,9119.444444444445
0.27,-0.265,9122.222222222223
0.27,-0.275,9125.0
0.265,-0.285,9127.777777777777
0.26,-0.31,9130.555555555555
0.275,-0.3,9133.333333333334
0.31,-0.29,9136.111111111111
0.32,-0.275,9138.888888888889
0.315,-0.265,9141.666666666666
0.295,-0.26,9144.444444444445
0.275,-0.275,9147.222222222223
0.275,-0.265,9150.0
0.29,-0.235,9152.777777777777
0.29,-0.2,9155.555555555555
0.24,-0.19,9158.333333333334
0.205,-0.18,9161.111111111111
0.17,-0.175,9163.888888888889
0.17,-0.14,9166.666666666666
0.175,-0.105,9169.444444444445
0.155,-0.08,9172.222222222223
0.14,-0.05,9175.0
0.08,-0.05,9177.777777777777
0.06,-0.04,9180.555555555555
0.05,-0.035,9183.333333333334
0.055,-0.015,9186.111111111111
0.02,0.005,9188.888888888889
0.03,0.02,9191.666666666666
-0.02,0.02,9194.444444444445
-0.035,0.015,9197.222222222223
-0.045,0.025,9200.0
-0.03,0.04,9202.777777777777
-0.035,0.055,9205.555555555555
-0.055,0.06,9208.333333333334
-0.08,0.055,9211.111111111111
-0.12,0.04,9213.888888888889
-0.14,0.04,9216.666666666666
-0.11,0.055,9219.444444444445
-0.105,0.06,9222.222222222223
-0.105,0.065,9225.0
-0.125,0.075,9227.777777777777
-0.125,0.065,9230.555555555555
-0.125,0.045,9233.333333333334
-0.11,0.06,9236.111111111111
-0.11,0.07,9238.888888888889
-0.105,0.08,9241.666666666666
-0.12,0.07,9244.444444444445
-0.135,0.06,9247.222222222223
-0.135,0.055,9250.0
-0.12,0.055,9252.777777777777
-0.115,0.08,9255.555555555555
-0.1,0.065,9258.333333333334
-0.125,0.065,9261.111111111111
-0.13,0.055,9263.888888888889
-0.125,0.05,9266.666666666666
-0.12,0.055,9269.444444444445
-0.105,0.065,9272.222222222223
-0.095,0.075,9275.0
-0.125,0.05,9277.777777777777
-0.115,0.045,9280.555555555555
-0.1,0.035,9283.333333333334
-0.08,0.05,9286.111111111111
-0.08,0.06,9288.888888888889
-0.105,0.055,9291.666666666666
-0.12,0.055,9294.444444444445
-0.13,0.03,9297.222222222223
-0.13,0.025,9300.0
-0.115,0.025,9302.777777777777
-0.105,0.03,9305.555555555555
-0.095,0.03,9308.333333333334
-0.11,0.025,9311.111111111111
-0.1,0.01,9313.888888888889
-0.105,0.02,9316.666666666666
-0.095,0.03,9319.444444444445
-0.1,0.025,9322.222222222223
-0.11,0.04,9325.0
-0.11,0.035,9327.777777777777
-0.12,0.015,9330.555555555555
-0.105,0.015,9333.333333333334
-0.11,0.04,9336.111111111111
-0.11,0.035,9338.888888888889
-0.11,0.04,9341.666666666666
-0.12,0.04,9344.444444444445
-0.09,0.035,9347.222222222223
-0.07,0.025,9350.0
-0.06,0.045,9352.777777777777
-0.05,0.065,9355.555555555555
-0.05,0.075,9358.333333333334
-0.045,0.075,9361.111111111111
-0.04,0.06,9363.888888888889
-0.015,0.055,9366.666666666666
0.005,0.075,9369.444444444445
0.02,0.075,9372.222222222223
0.025,0.07,9375.0
0.025,0.055,9377.777777777777
0.025,0.04,9380.555555555555
0.045,0.035,9383.333333333334
0.065,0.03,9386.111111111111
0.055,0.045,9388.888888888889
0.02,0.035,9391.666666666666
0.005,0.025,9394.444444444445
0.01,0.02,9397.222222222223
0.03,0.015,9400.0
0.045,0.015,9402.777777777777
0.045,0.02,9405.555555555555
0.035,0.025,9408.333333333334
0.025,-0.025,9411.111111111111
0.05,-0.06,9413.888888888889
0.07,-0.085,9416.666666666666
0.125,-0.11,9419.444444444445
0.16,-0.125,9422.222222222223
0.17,-0.17,9425.0
0.205,-0.225,9427.777777777777
0.27,-0.295,9430.555555555555
0.35,-0.405,9433.333333333334
0.435,-0.51,9436.111111111111
0.515,-0.605,9438.888888888889
0.57,-0.685,9441.666666666666
0.615,-0.775,9444.444444444445
0.68,-0.83,9447.222222222223
0.755,-0.885,9450.0
0.83,-0.925,9452.777777777777
0.9,-0.965,9455.555555555555
0.965,-1.035,9458.333333333334
1.04,-1.085,9461.111111111111
1.115,-1.125,9463.888888888889
1.185,-1.135,9466.666666666666
1.245,-1.145,9469.444444444445
1.34,-1.17,9472.222222222223
1.42,-1.195,9475.0
1.495,-1.215,9477.777777777777
1.55,-1.22,9480.555555555555
1.555,-1.165,9483.333333333334
1.545,-1.115,9486.111111111111
1.505,-1.045,9488.888888888889
1.445,-0.99,9491.666666666666
1.39,-0.94,9494.444444444445
1.33,-0.865,9497.222222222223
1.295,-0.775,9500.0
1.285,-0.675,9502.777777777777
1.245,-0.565,9505.555555555555
1.22,-0.51,9508.333333333334
1.17,-0.48,9511.111111111111
1.14,-0.46,9513.888888888889
1.145,-0.45,9516.666666666666
1.16,-0.4,9519.444444444445
1.155,-0.345,9522.222222222223
1.14,-0.31,9525.0
1.125,-0.3,9527.777777777777
1.09,-0.305,9530.555555555555
1.03,-0.3,9533.333333333334
0.96,-0.275,9536.111111111111
0.865,-0.235,9538.888888888889
0.715,-0.19,9541.666666666666
0.52,-0.14,9544.444444444445
0.295,-0.07,9547.222222222223
0.095,0.01,9550.0
-0.09,0.08,9552.777777777777
-0.215,0.13,9555.555555555555
-0.325,0.185,9558.333333333334
-0.395,0.195,9561.111111111111
-0.445,0.205,9563.888888888889
-0.46,0.22,9566.666666666666
-0.455,0.24,9569.444444444445
-0.465,0.27,9572.222222222223
-0.495,0.29,9575.0
-0.54,0.275,9577.777777777777
-0.575,0.29,9580.555555555555
-0.58,0.285,9583.333333333334
-0.58,0.3,9586.111111111111
-0.575,0.315,9588.888888888889
-0.58,0.325,9591.666666666666
-0.605,0.325,9594.444444444445
-0.61,0.335,9597.222222222223
-0.62,0.335,9600.0
-0.62,0.35,9602.777777777777
-0.625,0.375,9605.555555555555
-0.65,0.375,9608.333333333334
-0.67,0.385,9611.111111111111
-0.67,0.38,9613.888888888889
-0.655,0.405,9616.666666666666
-0.635,0.4,9619.444444444445
-0.665,0.43,9622.222222222223
-0.685,0.43,9625.0
-0.69,0.44,9627.777777777777
-0.7,0.44,9630.555555555555
-0.695,0.44,9633.333333333334
-0.69,0.47,9636.111111111111
-0.7,0.49,9638.888888888889
-0.725,0.505,9641.666666666666
-0.74,0.505,9644.444444444445
-0.745,0.515,9647.222222222223
-0.75,0.525,9650.0
-0.75,0.55,9652.777777777777
-0.77,0.565,9655.555555555555
-0.8,0.585,9658.333333333334
-0.825,0.585,9661.111111111111
-0.825,0.58,9663.888888888889
-0.815,0.61,9666.666666666666
-0.81,0.62,9669.444444444445
-0.81,0.645,9672.222222222223
-0.83,0.645,9675.0
-0.86,0.635,9677.777777777777
-0.865,0.635,9680.555555555555
-0.86,0.64,9683.333333333334
-0.86,0.65,9686.111111111111
-0.85,0.67,9688.888888888889
-0.865,0.67,9691.666666666666
-0.89,0.66,9694.444444444445
-0.91,0.64,9697.222222222223
-0.88,0.63,9700.0
-0.855,0.645,9702.777777777777
-0.83,0.645,9705.555555555555
-0.86,0.645,9708.333333333334
-0.86,0.62,9711.111111111111
-0.87,0.595,9713.888888888889
-0.845,0.58,9716.666666666666
-0.815,0.57,9719.444444444445
-0.805,0.56,9722.222222222223
-0.795,0.55,9725.0
-0.805,0.515,9727.777777777777
-0.795,0.48,9730.555555555555
-0.775,0.465,9733.333333333334
-0.735,0.44,9736.111111111111
-0.715,0.435,9738.888888888889
-0.695,0.42,9741.666666666666
-0.68,0.375,9744.444444444445
-0.66,0.34,9747.222222222223
-0.645,0.31,9750.0
-0.6,0.305,9752.777777777777
-0.565,0.295,9755.555555555555
-0.53,0.265,9758.333333333334
-0.505,0.23,9761.111111111111
-0.495,0.2,9763.888888888889
-0.465,0.18,9766.666666666666
-0.425,0.175,9769.444444444445
-0.385,0.18,9772.222222222223
-0.345,0.155,9775.0
-0.345,0.14,9777.777777777777
-0.315,0.105,9780.555555555555
-0.29,0.09,9783.333333333334
-0.25,0.075,9786.111111111111
-0.235,0.1,9788.888888888889
-0.235,0.095,9791.666666666666
-0.24,0.08,9794.444444444445
-0.235,0.065,9797.222222222223
-0.225,0.05,9800.0
-0.2,0.06,9802.777777777777
-0.195,0.075,9805.555555555555
-0.195,0.07,9808.333333333334
-0.21,0.065,9811.111111111111
-0.205,0.045,9813.888888888889
-0.205,0.055,9816.666666666666
-0.195,0.06,9819.444444444445
-0.18,0.065,9822.222222222223
-0.195,0.07,9825.0
-0.205,0.065,9827.777777777777
-0.21,0.05,9830.555555555555
-0.205,0.05,9833.333333333334
-0.19,0.065,9836.111111111111
-0.18,0.06,9838.888888888889
-0.175,0.085,9841.666666666666
-0.185,0.055,9844.444444444445
-0.19,0.055,9847.222222222223
-0.18,0.045,9850.0
-0.175,0.05,9852.777777777777
-0.175,0.07,9855.555555555555
-0.175,0.065,9858.333333333334
-0.18,0.06,9861.111111111111
-0.17,0.055,9863.888888888889
-0.16,0.05,9866.666666666666
-0.175,0.07,9869.444444444445
-0.18,0.085,9872.222222222223
-0.19,0.085,9875.0
-0.19,0.075,9877.777777777777
-0.175,0.065,9880.555555555555
-0.17,0.065,9883.333333333334
-0.17,0.085,9886.111111111111
-0.165,0.075,9888.888888888889
-0.18,0.085,9891.666666666666
-0.185,0.075,9894.444444444445
-0.18,0.06,9897.222222222223
-0.17,0.05,9900.0
-0.165,0.07,9902.777777777777
-0.17,0.065,9905.555555555555
-0.165,0.075,9908.333333333334
-0.185,0.06,9911.111111111111
-0.175,0.045,9913.888888888889
-0.17,0.045,9916.666666666666
-0.165,0.04,9919.444444444445
-0.17,0.065,9922.222222222223
-0.175,0.085,9925.0
-0.17,0.08,9927.777777777777
-0.175,0.07,9930.555555555555
-0.155,0.07,9933.333333333334
-0.135,0.065,9936.111111111111
-0.12,0.075,9938.888888888889
-0.1,0.075,9941.666666666666
-0.105,0.06,9944.444444444445
-0.08,0.025,9947.222222222223
-0.035,0.0,9950.0
0.015,-0.02,9952.777777777777
0.06,-0.04,9955.555555555555
0.085,-0.07,9958.333333333334
0.12,-0.11,9961.111111111111
0.165,-0.165,9963.888888888889
0.235,-0.23,9966.666666666666
0.32,-0.3,9969.444444444445
0.39,-0.375,9972.222222222223
0.475,-0.46,9975.0
0.545,-0.53,9977.777777777777
0.62,-0.59,9980.555555555555
0.71,-0.64,9983.333333333334
0.805,-0.685,9986.111111111111
0.885,-0.72,9988.888888888889
0.94,-0.76,9991.666666666666
1.025,-0.8,9994.444444444445
1.13,-0.87,9997.222222222223
1.225,-0.885,10000.0
1.305,-0.9,10002.777777777777
1.385,-0.91,10005.555555555555
1.455,-0.925,10008.333333333334
1.55,-0.96,10011.111111111111
1.63,-0.975,10013.888888888889
1.67,-0.955,10016.666666666666
1.66,-0.9,10019.444444444445
1.62,-0.825,10022.222222222223
1.54,-0.76,10025.0
1.48,-0.695,10027.777777777777
1.42,-0.66,10030.555555555555
1.355,-0.58,10033.333333333334
1.315,-0.475,10036.111111111111
1.235,-0.395,10038.888888888889
1.17,-0.31,10041.666666666666
1.105,-0.285,10044.444444444445
1.055,-0.255,10047.222222222223
1.035,-0.235,10050.0
1.035,-0.215,10052.777777777777
1.02,-0.215,10055.555555555555
1.0,-0.215,10058.333333333334
0.995,-0.225,10061.111111111111
0.965,-0.26,10063.888888888889
0.885,-0.265,10066.666666666666
0.76,-0.265,10069.444444444445
0.595,-0.23,10072.222222222223
0.4,-0.18,10075.0
0.19,-0.105,10077.777777777777
0.01,-0.04,10080.555555555555
-0.125,0.045,10083.333333333334
-0.225,0.105,10086.111111111111
-0.305,0.155,10088.888888888889
-0.37,0.185,10091.666666666666
-0.415,0.2,10094.444444444445
-0.445,0.2,10097.222222222223
-0.455,0.21,10100.0
-0.475,0.23,10102.777777777777
-0.485,0.245,10105.555555555555
-0.51,0.26,10108.333333333334
-0.52,0.265,10111.111111111111
-0.535,0.255,10113.888888888889
-0.54,0.265,10116.666666666666
-0.545,0.275,10119.444444444445
-0.56,0.295,10122.222222222223
-0.57,0.305,10125.0
-0.595,0.315,10127.777777777777
-0.6,0.31,10130.555555555555
-0.6,0.3,10133.333333333334
-0.605,0.325,10136.111111111111
-0.605,0.34,10138.888888888889
-0.63,0.35,10141.666666666666
-0.645,0.345,10144.444444444445
-0.65,0.35,10147.222222222223
-0.645,0.37,10150.0
-0.65,0.38,10152.777777777777
-0.67,0.39,10155.555555555555
-0.68,0.405,10158.333333333334
-0.705,0.415,10161.111111111111
-0.69,0.41,10163.888888888889
-0.695,0.43,10166.666666666666
-0.7,0.45,10169.444444444445
-0.71,0.48,10172.222222222223
-0.735,0.485,10175.0
-0.765,0.485,10177.777777777777
-0.77,0.48,10180.555555555555
-0.78,0.5,10183.333333333334
-0.77,0.505,10186.111111111111
-0.78,0.53,10188.888888888889
-0.805,0.55,10191.666666666666
-0.82,0.545,10194.444444444445
-0.825,0.53,10197.222222222223
-0.825,0.535,10200.0
-0.825,0.545,10202.777777777777
-0.825,0.57,10205.555555555555
-0.85,0.575,10208.333333333334
-0.86,0.56,10211.111111111111
-0.86,0.55,10213.888888888889
-0.86,0.55,10216.666666666666
-0.85,0.55,10219.444444444445
-0.855,0.56,10222.222222222223
-0.87,0.555,10225.0
-0.87,0.535,10227.777777777777
-0.875,0.51,10230.555555555555
-0.855,0.515,10233.333333333334
-0.825,0.515,10236.111111111111
-0.82,0.505,10238.888888888889
-0.83,0.49,10241.666666666666
-0.82,0.46,10244.444444444445
-0.795,0.435,10247.222222222223
-0.765,0.42,10250.0
-0.74,0.405,10252.777777777777
-0.74,0.385,10255.555555555555
-0.73,0.36,10258.333333333334
-0.7,0.325,10261.111111111111
-0.675,0.29,10263.888888888889
-0.635,0.27,10266.666666666666
-0.58,0.255,10269.444444444445
-0.555,0.235,10272.222222222223
-0.55,0.21,10275.0
-0.515,0.195,10277.777777777777
-0.48,0.15,10280.555555555555
-0.43,0.135,10283.333333333334
-0.375,0.13,10286.111111111111
-0.355,0.135,10288.888888888889
-0.35,0.115,10291.666666666666
-0.33,0.1,10294.444444444445
-0.31,0.08,10297.222222222223
-0.285,0.065,10300.0
-0.24,0.07,10302.777777777777
-0.235,0.07,10305.555555555555
-0.235,0.06,10308.333333333334
-0.24,0.055,10311.111111111111
-0.225,0.035,10313.888888888889
-0.22,0.045,10316.666666666666
-0.18,0.05,10319.444444444445
-0.19,0.065,10322.222222222223
-0.205,0.055,10325.0
-0.21,0.03,10327.777777777777
-0.215,0.035,10330.555555555555
-0.19,0.025,10333.333333333334
-0.185,0.045,10336.111111111111
-0.18,0.055,10338.888888888889
-0.195,0.05,10341.666666666666
-0.215,0.045,10344.444444444445
-0.2,0.035,10347.222222222223
-0.19,0.03,10350.0
-0.185,0.035,10352.777777777777
-0.195,0.055,10355.555555555555
-0.225,0.055,10358.333333333334
-0.215,0.045,10361.111111111111
-0.205,0.03,10363.888888888889
-0.19,0.03,10366.666666666666
-0.17,0.05,10369.444444444445
-0.185,0.055,10372.222222222223
-0.215,0.055,10375.0
-0.24,0.035,10377.777777777777
-0.225,0.035,10380.555555555555
-0.195,0.035,10383.333333333334
-0.165,0.045,10386.111111111111
-0.155,0.05,10388.888888888889
-0.185,0.05,10391.666666666666
-0.2,0.04,10394.444444444445
-0.195,0.025,10397.222222222223
-0.185,0.02,10400.0
-0.17,0.03,10402.777777777777
-0.16,0.045,10405.555555555555
-0.18,0.04,10408.333333333334
-0.19,0.035,10411.111111111111
-0.18,0.02,10413.888888888889
-0.17,0.025,10416.666666666666
-0.15,0.025,10419.444444444445
-0.14,0.035,10422.222222222223
-0.17,0.035,10425.0
-0.17,0.03,10427.777777777777
-0.155,0.015,10430.555555555555
-0.14,0.01,10433.333333333334
-0.125,0.025,10436.111111111111
-0.135,0.025,10438.888888888889
-0.135,0.03,10441.666666666666
-0.17,0.015,10444.444444444445
-0.16,0.0,10447.222222222223
-0.13,-0.01,10450.0
-0.11,0.015,10452.777777777777
-0.11,0.03,10455.555555555555
-0.135,0.015,10458.333333333334
-0.145,0.015,10461.111111111111
-0.145,0.0,10463.888888888889
-0.135,-0.005,10466.666666666666
-0.12,0.01,10469.444444444445
-0.09,0.02,10472.222222222223
-0.11,0.015,10475.0
-0.145,0.0,10477.777777777777
-0.135,-0.015,10480.555555555555
-0.11,-0.005,10483.333333333334
-0.09,0.01,10486.111111111111
-0.095,0.015,10488.888888888889
-0.105,0.01,10491.666666666666
-0.14,-0.005,10494.444444444445
-0.135,-0.015,10497.222222222223
-0.11,-0.01,10500.0
-0.095,-0.005,10502.777777777777
-0.09,0.01,10505.555555555555
-0.105,0.02,10508.333333333334
-0.11,0.0,10511.111111111111
-0.115,-0.02,10513.888888888889
-0.1,-0.02,10516.666666666666
-0.085,-0.015,10519.444444444445
-0.085,0.01,10522.222222222223
-0.11,0.015,10525.0
-0.14,-0.005,10527.777777777777
-0.14,-0.02,10530.555555555555
-0.12,-0.015,10533.333333333334
-0.09,-0.005,10536.111111111111
-0.09,0.01,10538.888888888889
-0.1,0.01,10541.666666666666
-0.125,-0.01,10544.444444444445
-0.13,-0.015,10547.222222222223
-0.125,-0.015,10550.0
-0.1,-0.005,10552.777777777777
-0.085,0.005,10555.555555555555
-0.105,0.0,10558.333333333334
-0.105,-0.01,10561.111111111111
-0.125,-0.02,10563.888888888889
-0.115,-0.02,10566.666666666666
-0.09,-0.025,10569.444444444445
-0.08,-0.005,10572.222222222223
-0.09,0.005,10575.0
-0.105,-0.01,10577.777777777777
-0.115,-0.02,10580.555555555555
-0.11,-0.035,10583.333333333334
-0.09,-0.015,10586.111111111111
-0.09,0.005,10588.888888888889
-0.095,-0.01,10591.666666666666
-0.1,-0.015,10594.444444444445
-0.125,-0.03,10597.222222222223
-0.105,-0.03,10600.0
-0.075,-0.02,10602.777777777777
-0.07,-0.01,10605.555555555555
-0.085,-0.005,10608.333333333334
-0.085,-0.01,10611.111111111111
-0.105,-0.03,10613.888888888889
-0.085,-0.035,10616.666666666666
-0.07,-0.02,10619.444444444445
-0.06,0.01,10622.222222222223
-0.065,0.0,10625.0
-0.055,0.0,10627.777777777777
-0.055,0.0,10630.555555555555
-0.03,0.005,10633.333333333334
-0.01,0.015,10636.111111111111
0.005,0.03,10638.888888888889
0.0,0.03,10641.666666666666
0.015,0.035,10644.444444444445
0.025,0.015,10647.222222222223
0.04,0.005,10650.0
0.07,0.005,10652.777777777777
0.085,0.01,10655.555555555555
0.09,0.015,10658.333333333334
0.09,-0.02,10661.111111111111
0.085,-0.055,10663.888888888889
0.08,-0.06,10666.666666666666
0.085,-0.07,10669.444444444445
0.085,-0.055,10672.222222222223
0.055,-0.055,10675.0
0.045,-0.06,10677.777777777777
0.035,-0.065,10680.555555555555
0.025,-0.07,10683.333333333334
0.02,-0.075,10686.111111111111
-0.01,-0.06,10688.888888888889
-0.025,-0.05,10691.666666666666
-0.055,-0.06,10694.444444444445
-0.06,-0.055,10697.222222222223
-0.055,-0.045,10700.0
-0.05,-0.055,10702.777777777777
-0.065,-0.035,10705.555555555555
-0.08,-0.035,10708.333333333334
-0.1,-0.045,10711.111111111111
-0.11,-0.055,10713.888888888889
-0.11,-0.045,10716.666666666666
-0.105,-0.05,10719.444444444445
-0.095,-0.035,10722.222222222223
-0.1,-0.035,10725.0
-0.115,-0.05,10727.777777777777
-0.11,-0.055,10730.555555555555
-0.12,-0.06,10733.333333333334
-0.09,-0.045,10736.111111111111
-0.085,-0.04,10738.888888888889
-0.095,-0.035,10741.666666666666
-0.105,-0.05,10744.444444444445
-0.1,-0.055,10747.222222222223
-0.11,-0.06,10750.0
-0.105,-0.05,10752.777777777777
-0.085,-0.04,10755.555555555555
-0.1,-0.06,10758.333333333334
-0.115,-0.08,10761.111111111111
-0.14,-0.08,10763.888888888889
-0.14,-0.065,10766.666666666666
-0.07,-0.055,10769.444444444445
0.055,-0.07,10772.222222222223
0.19,-0.125,10775.0
0.35,-0.19,10777.777777777777
0.535,-0.27,10780.555555555555
0.8,-0.275,10783.333333333334
1.105,-0.265,10786.111111111111
1.39,-0.26,10788.888888888889
1.625,-0.26,10791.666666666666
1.72,-0.26,10794.444444444445
1.62,-0.23,10797.222222222223
1.325,-0.16,10800.0
0.955,-0.11,10802.777777777777
0.58,-0.085,10805.555555555555
0.245,-0.095,10808.333333333334
0.0,-0.13,10811.111111111111
-0.105,-0.165,10813.888888888889
-0.13,-0.175,10816.666666666666
-0.12,-0.16,10819.444444444445
-0.105,-0.125,10822.222222222223
-0.145,-0.1,10825.0
-0.135,-0.08,10827.777777777777
-0.135,-0.07,10830.555555555555
-0.11,-0.055,10833.333333333334
-0.115,-0.04,10836.111111111111
-0.115,-0.025,10838.888888888889
-0.13,-0.025,10841.666666666666
-0.14,-0.04,10844.444444444445
-0.14,-0.035,10847.222222222223
-0.135,-0.03,10850.0
-0.14,-0.03,10852.777777777777
-0.15,-0.03,10855.555555555555
-0.155,-0.03,10858.333333333334
-0.16,-0.025,10861.111111111111
-0.155,-0.05,10863.888888888889
-0.15,-0.045,10866.666666666666
-0.145,-0.03,10869.444444444445
-0.14,-0.015,10872.222222222223
-0.135,-0.015,10875.0
-0.15,-0.025,10877.777777777777
-0.145,-0.045,10880.555555555555
-0.145,-0.035,10883.333333333334
-0.15,-0.025,10886.111111111111
-0.13,-0.015,10888.888888888889
-0.145,-0.015,10891.666666666666
-0.155,-0.03,10894.444444444445
-0.135,-0.03,10897.222222222223
-0.135,-0.035,10900.0
-0.12,-0.035,10902.777777777777
-0.11,-0.015,10905.555555555555
-0.12,-0.015,10908.333333333334
-0.13,-0.03,10911.111111111111
-0.12,-0.035,10913.888888888889
-0.1,-0.05,10916.666666666666
-0.11,-0.045,10919.444444444445
-0.095,-0.035,10922.222222222223
-0.105,-0.045,10925.0
-0.095,-0.055,10927.777777777777
-0.085,-0.065,10930.555555555555
-0.07,-0.08,10933.333333333334
-0.055,-0.08,10936.111111111111
-0.035,-0.07,10938.888888888889
-0.05,-0.075,10941.666666666666
-0.05,-0.085,10944.444444444445
-0.05,-0.1,10947.222222222223
-0.04,-0.105,10950.0
-0.01,-0.095,10952.777777777777
-0.005,-0.1,10955.555555555555
0.01,-0.1,10958.333333333334
0.015,-0.12,10961.111111111111
0.015,-0.13,10963.888888888889
0.03,-0.145,10966.666666666666
0.045,-0.15,10969.444444444445
0.055,-0.145,10972.222222222223
0.065,-0.16,10975.0
0.075,-0.17,10977.777777777777
0.08,-0.205,10980.555555555555
0.085,-0.225,10983.333333333334
0.12,-0.22,10986.111111111111
0.14,-0.22,10988.888888888889
0.14,-0.22,10991.666666666666
0.16,-0.25,10994.444444444445
0.17,-0.275,10997.222222222223
0.185,-0.28,11000.0
0.22,-0.27,11002.777777777777
0.215,-0.28,11005.555555555555
0.23,-0.28,11008.333333333334
0.24,-0.29,11011.111111111111
0.23,-0.295,11013.888888888889
0.245,-0.305,11016.666666666666
0.265,-0.315,11019.444444444445
0.265,-0.3,11022.222222222223
0.285,-0.295,11025.0
0.275,-0.3,11027.777777777777
0.28,-0.305,11030.555555555555
0.27,-0.3,11033.333333333334
0.295,-0.29,11036.111111111111
0.285,-0.28,11038.888888888889
0.27,-0.27,11041.666666666666
0.255,-0.26,11044.444444444445
0.255,-0.26,11047.222222222223
0.27,-0.24,11050.0
0.25,-0.215,11052.777777777777
0.215,-0.175,11055.555555555555
0.21,-0.175,11058.333333333334
0.175,-0.16,11061.111111111111
0.165,-0.155,11063.888888888889
0.14,-0.115,11066.666666666666
0.14,-0.105,11069.444444444445
0.11,-0.07,11072.222222222223
0.085,-0.04,11075.0
0.07,-0.045,11077.777777777777
0.035,-0.035,11080.555555555555
0.03,-0.03,11083.333333333334
0.005,-0.01,11086.111111111111
0.0,0.025,11088.888888888889
-0.02,0.025,11091.666666666666
-0.055,0.03,11094.444444444445
-0.06,0.015,11097.222222222223
-0.085,0.02,11100.0
-0.07,0.025,11102.777777777777
-0.075,0.05,11105.555555555555
-0.1,0.045,11108.333333333334
-0.105,0.05,11111.111111111111
-0.105,0.04,11113.888888888889
-0.105,0.035,11116.666666666666
-0.1,0.045,11119.444444444445
-0.1,0.06,11122.222222222223
-0.105,0.065,11125.0
-0.115,0.055,11127.777777777777
-0.13,0.045,11130.555555555555
-0.115,0.055,11133.333333333334
-0.1,0.055,11136.111111111111
-0.085,0.07,11138.888888888889
-0.09,0.075,11141.666666666666
-0.105,0.06,11144.444444444445
-0.11,0.04,11147.222222222223
-0.115,0.045,11150.0
-0.09,0.045,11152.777777777777
-0.08,0.07,11155.555555555555
-0.085,0.065,11158.333333333334
-0.105,0.055,11161.111111111111
-0.115,0.035,11163.888888888889
-0.1,0.035,11166.666666666666
-0.08,0.04,11169.444444444445
-0.065,0.06,11172.222222222223
-0.09,0.055,11175.0
-0.1,0.045,11177.777777777777
-0.12,0.025,11180.555555555555
-0.11,0.02,11183.333333333334
-0.095,0.035,11186.111111111111
-0.09,0.045,11188.888888888889
-0.08,0.04,11191.666666666666
-0.095,0.035,11194.444444444445
-0.115,0.02,11197.222222222223
-0.105,0.015,11200.0
-0.07,0.02,11202.777777777777
-0.08,0.03,11205.555555555555
-0.075,0.04,11208.333333333334
-0.095,0.03,11211.111111111111
-0.115,0.03,11213.888888888889
-0.095,0.035,11216.666666666666
-0.075,0.045,11219.444444444445
-0.06,0.06,11222.222222222223
-0.06,0.075,11225.0
-0.06,0.065,11227.777777777777
-0.06,0.06,11230.555555555555
-0.03,0.065,11233.333333333334
-0.015,0.07,11236.111111111111
0.0,0.09,11238.888888888889
0.005,0.09,11241.666666666666
0.02,0.07,11244.444444444445
0.02,0.045,11247.222222222223
0.04,0.03,11250.0
0.075,0.045,11252.777777777777
0.075,0.05,11255.555555555555
0.07,0.02,11258.333333333334
0.035,0.0,11261.111111111111
0.015,-0.015,11263.888888888889
0.025,-0.02,11266.666666666666
0.03,-0.005,11269.444444444445
0.02,0.02,11272.222222222223
0.0,0.01,11275.0
-0.04,0.01,11277.777777777777
-0.085,0.01,11280.555555555555
-0.095,0.01,11283.333333333334
-0.085,0.035,11286.111111111111
-0.085,0.055,11288.888888888889
-0.1,0.085,11291.666666666666
-0.115,0.055,11294.444444444445
-0.1,0.03,11297.222222222223
-0.05,0.02,11300.0
0.0,-0.01,11302.777777777777
0.03,-0.045,11305.555555555555
0.06,-0.08,11308.333333333334
0.1,-0.135,11311.111111111111
0.17,-0.2,11313.888888888889
0.245,-0.265,11316.666666666666
0.335,-0.335,11319.444444444445
0.405,-0.43,11322.222222222223
0.475,-0.555,11325.0
0.515,-0.66,11327.777777777777
0.595,-0.75,11330.555555555555
0.69,-0.815,11333.333333333334
0.75,-0.88,11336.111111111111
0.8,-0.925,11338.888888888889
0.845,-1.01,11341.666666666666
0.92,-1.08,11344.444444444445
1.025,-1.15,11347.222222222223
1.11,-1.165,11350.0
1.17,-1.18,11352.777777777777
1.23,-1.21,11355.555555555555
1.285,-1.25,11358.333333333334
1.36,-1.28,11361.111111111111
1.49,-1.28,11363.888888888889
1.585,-1.27,11366.666666666666
1.655,-1.265,11369.444444444445
1.695,-1.265,11372.222222222223
1.73,-1.255,11375.0
1.795,-1.23,11377.777777777777
1.905,-1.145,11380.555555555555
2.0,-1.025,11383.333333333334
2.045,-0.895,11386.111111111111
1.855,-0.755,11388.888888888889
1.47,-0.585,11391.666666666666
1.045,-0.415,11394.444444444445
0.695,-0.255,11397.222222222223
0.42,-0.135,11400.0
0.165,-0.045,11402.777777777777
-0.03,0.03,11405.555555555555
-0.175,0.07,11408.333333333334
-0.265,0.095,11411.111111111111
-0.31,0.13,11413.888888888889
-0.32,0.155,11416.666666666666
-0.35,0.21,11419.444444444445
-0.39,0.225,11422.222222222223
-0.42,0.24,11425.0
-0.445,0.245,11427.777777777777
-0.465,0.25,11430.555555555555
-0.465,0.26,11433.333333333334
-0.485,0.28,11436.111111111111
-0.505,0.305,11438.888888888889
-0.52,0.31,11441.666666666666
-0.525,0.295,11444.444444444445
-0.525,0.295,11447.222222222223
-0.525,0.295,11450.0
-0.515,0.32,11452.777777777777
-0.53,0.33,11455.555555555555
-0.545,0.33,11458.333333333334
-0.555,0.34,11461.111111111111
-0.545,0.33,11463.888888888889
-0.54,0.34,11466.666666666666
