MLII,V1,time_ms
-0.02,0.16,0.0
-0.02,0.16,2.7777777777777777
-0.02,0.16,5.555555555555555
-0.02,0.16,8.333333333333334
-0.02,0.16,11.11111111111111
-0.02,0.16,13.88888888888889
-0.02,0.16,16.666666666666668
-0.02,0.16,19.444444444444443
-0.02,0.16,22.22222222222222
0.005,0.14,25.0
0.02,0.14,27.77777777777778
0.025,0.155,30.555555555555557
0.04,0.145,33.333333333333336
0.04,0.16,36.111111111111114
0.045,0.175,38.888888888888886
0.075,0.155,41.666666666666664
0.09,0.135,44.44444444444444
0.09,0.13,47.22222222222222
0.095,0.13,50.0
0.09,0.155,52.77777777777778
0.11,0.175,55.55555555555556
0.13,0.17,58.333333333333336
0.13,0.16,61.111111111111114
0.14,0.145,63.888888888888886
0.13,0.12,66.66666666666667
0.12,0.13,69.44444444444444
0.125,0.135,72.22222222222223
0.13,0.165,75.0
0.15,0.175,77.77777777777777
0.14,0.195,80.55555555555556
0.12,0.2,83.33333333333333
0.135,0.17,86.11111111111111
0.135,0.17,88.88888888888889
0.155,0.165,91.66666666666667
0.165,0.155,94.44444444444444
0.165,0.13,97.22222222222223
0.135,0.115,100.0
0.125,0.135,102.77777777777777
0.13,0.145,105.55555555555556
0.125,0.16,108.33333333333333
0.11,0.18,111.11111111111111
0.1,0.185,113.88888888888889
0.08,0.175,116.66666666666667
0.06,0.155,119.44444444444444
0.075,0.16,122.22222222222223
0.085,0.155,125.0
0.09,0.13,127.77777777777777
0.07,0.105,130.55555555555554
0.045,0.1,133.33333333333334
0.02,0.1,136.11111111111111
0.01,0.125,138.88888888888889
0.005,0.14,141.66666666666666
-0.01,0.14,144.44444444444446
-0.045,0.11,147.22222222222223
-0.065,0.095,150.0
-0.07,0.1,152.77777777777777
-0.08,0.11,155.55555555555554
-0.07,0.13,158.33333333333334
-0.055,0.125,161.11111111111111
-0.08,0.145,163.88888888888889
-0.115,0.14,166.66666666666666
-0.13,0.155,169.44444444444446
-0.105,0.14,172.22222222222223
-0.08,0.13,175.0
-0.07,0.12,177.77777777777777
-0.085,0.105,180.55555555555554
-0.11,0.105,183.33333333333334
-0.12,0.115,186.11111111111111
-0.12,0.14,188.88888888888889
-0.105,0.125,191.66666666666666
-0.09,0.115,194.44444444444446
-0.1,0.095,197.22222222222223
-0.11,0.09,200.0
-0.125,0.105,202.77777777777777
-0.125,0.11,205.55555555555554
-0.105,0.125,208.33333333333334
-0.12,0.11,211.11111111111111
-0.085,0.09,213.88888888888889
-0.1,0.05,216.66666666666666
-0.1,0.045,219.44444444444446
-0.105,0.055,222.22222222222223
-0.105,0.085,225.0
-0.115,0.11,227.77777777777777
-0.115,0.1,230.55555555555554
-0.11,0.11,233.33333333333334
-0.135,0.095,236.11111111111111
-0.135,0.09,238.88888888888889
-0.12,0.1,241.66666666666666
-0.12,0.115,244.44444444444446
-0.12,0.105,247.22222222222223
-0.115,0.105,250.0
-0.125,0.105,252.77777777777777
-0.125,0.12,255.55555555555554
-0.12,0.14,258.3333333333333
-0.1,0.12,261.1111111111111
-0.1,0.11,263.8888888888889
-0.11,0.095,266.6666666666667
-0.12,0.09,269.44444444444446
-0.115,0.09,272.22222222222223
-0.115,0.085,275.0
-0.105,0.075,277.77777777777777
-0.095,0.075,280.55555555555554
-0.125,0.065,283.3333333333333
-0.14,0.07,286.1111111111111
-0.125,0.09,288.8888888888889
-0.11,0.105,291.6666666666667
-0.09,0.12,294.44444444444446
-0.1,0.105,297.22222222222223
-0.12,0.105,300.0
-0.13,0.145,302.77777777777777
-0.14,0.175,305.55555555555554
-0.14,0.19,308.3333333333333
-0.115,0.175,311.1111111111111
-0.1,0.14,313.8888888888889
-0.11,0.1,316.6666666666667
-0.11,0.09,319.44444444444446
-0.085,0.105,322.22222222222223
-0.065,0.12,325.0
-0.04,0.11,327.77777777777777
-0.035,0.095,330.55555555555554
-0.055,0.065,333.3333333333333
-0.075,0.075,336.1111111111111
-0.055,0.105,338.8888888888889
-0.03,0.14,341.6666666666667
0.0,0.135,344.44444444444446
-0.02,0.125,347.22222222222223
-0.045,0.11,350.0
-0.06,0.11,352.77777777777777
-0.045,0.115,355.55555555555554
-0.03,0.105,358.3333333333333
-0.025,0.075,361.1111111111111
-0.02,0.05,363.8888888888889
-0.025,0.02,366.6666666666667
-0.06,0.04,369.44444444444446
-0.07,0.06,372.22222222222223
-0.05,0.09,375.0
-0.045,0.09,377.77777777777777
-0.055,0.065,380.55555555555554
-0.09,0.06,383.3333333333333
-0.105,0.055,386.1111111111111
-0.11,0.05,388.8888888888889
-0.11,0.055,391.6666666666667
-0.09,0.05,394.44444444444446
-0.095,0.045,397.22222222222223
-0.09,0.06,400.0
-0.09,0.08,402.77777777777777
-0.07,0.095,405.55555555555554
-0.06,0.09,408.3333333333333
-0.065,0.075,411.1111111111111
-0.08,0.06,413.8888888888889
-0.1,0.035,416.6666666666667
-0.115,0.05,419.44444444444446
-0.125,0.055,422.22222222222223
-0.13,0.055,425.0
-0.14,0.055,427.77777777777777
-0.16,0.05,430.55555555555554
-0.16,0.055,433.3333333333333
-0.165,0.06,436.1111111111111
-0.185,0.075,438.8888888888889
-0.175,0.12,441.6666666666667
-0.185,0.13,444.44444444444446
-0.185,0.14,447.22222222222223
-0.195,0.17,450.0
-0.2,0.175,452.77777777777777
-0.19,0.18,455.55555555555554
-0.19,0.15,458.3333333333333
-0.185,0.125,461.1111111111111
-0.18,0.095,463.8888888888889
-0.185,0.08,466.6666666666667
-0.19,0.05,469.44444444444446
-0.19,0.045,472.22222222222223
-0.185,0.05,475.0
-0.175,0.065,477.77777777777777
-0.19,0.075,480.55555555555554
-0.19,0.09,483.3333333333333
-0.2,0.09,486.1111111111111
-0.195,0.09,488.8888888888889
-0.2,0.12,491.6666666666667
-0.21,0.135,494.44444444444446
-0.24,0.165,497.22222222222223
-0.26,0.17,500.0
-0.25,0.18,502.77777777777777
-0.215,0.205,505.55555555555554
-0.115,0.21,508.3333333333333
0.01,0.215,511.1111111111111
0.17,0.21,513.8888888888889
0.375,0.215,516.6666666666666
0.6,0.235,519.4444444444445
0.85,0.235,522.2222222222222
1.08,0.205,525.0
1.195,0.12,527.7777777777778
1.15,-0.005,530.5555555555555
0.9,-0.12,533.3333333333334
0.55,-0.155,536.1111111111111
0.115,-0.12,538.8888888888889
-0.34,-0.095,541.6666666666666
-0.71,-0.08,544.4444444444445
-0.85,-0.085,547.2222222222222
-0.8,-0.085,550.0
-0.68,-0.07,552.7777777777778
-0.555,-0.055,555.5555555555555
-0.445,-0.035,558.3333333333334
-0.375,-0.02,561.1111111111111
-0.32,-0.01,563.8888888888889
-0.285,-0.01,566.6666666666666
-0.255,0.005,569.4444444444445
-0.235,0.01,572.2222222222222
-0.215,0.05,575.0
-0.22,0.08,577.7777777777778
-0.22,0.07,580.5555555555555
-0.235,0.05,583.3333333333334
-0.21,0.05,586.1111111111111
-0.2,0.07,588.8888888888889
-0.205,0.09,591.6666666666666
-0.2,0.105,594.4444444444445
-0.205,0.09,597.2222222222222
-0.21,0.095,600.0
-0.225,0.1,602.7777777777778
-0.21,0.12,605.5555555555555
-0.19,0.125,608.3333333333334
-0.18,0.115,611.1111111111111
-0.195,0.1,613.8888888888889
-0.205,0.095,616.6666666666666
-0.21,0.11,619.4444444444445
-0.21,0.105,622.2222222222222
-0.2,0.125,625.0
-0.195,0.115,627.7777777777778
-0.205,0.115,630.5555555555555
-0.215,0.11,633.3333333333334
-0.205,0.105,636.1111111111111
-0.205,0.125,638.8888888888889
-0.175,0.155,641.6666666666666
-0.175,0.145,644.4444444444445
-0.16,0.115,647.2222222222222
-0.16,0.075,650.0
-0.14,0.065,652.7777777777778
-0.15,0.08,655.5555555555555
-0.125,0.115,658.3333333333334
-0.12,0.135,661.1111111111111
-0.125,0.15,663.8888888888889
-0.145,0.185,666.6666666666666
-0.145,0.205,669.4444444444445
-0.125,0.205,672.2222222222222
-0.09,0.17,675.0
-0.06,0.1,677.7777777777778
-0.07,0.07,680.5555555555555
-0.07,0.075,683.3333333333334
-0.075,0.105,686.1111111111111
-0.06,0.12,688.8888888888889
-0.04,0.12,691.6666666666666
-0.015,0.095,694.4444444444445
-0.02,0.08,697.2222222222222
-0.02,0.09,700.0
0.005,0.11,702.7777777777778
0.025,0.12,705.5555555555555
0.04,0.125,708.3333333333334
0.04,0.13,711.1111111111111
0.05,0.135,713.8888888888889
0.025,0.125,716.6666666666666
0.025,0.115,719.4444444444445
0.035,0.13,722.2222222222222
0.06,0.14,725.0
0.085,0.125,727.7777777777778
0.09,0.11,730.5555555555555
0.07,0.13,733.3333333333334
0.065,0.125,736.1111111111111
0.07,0.135,738.8888888888889
0.095,0.155,741.6666666666666
0.11,0.15,744.4444444444445
0.105,0.145,747.2222222222222
0.09,0.135,750.0
0.075,0.145,752.7777777777778
0.075,0.16,755.5555555555555
0.08,0.175,758.3333333333334
0.09,0.16,761.1111111111111
0.085,0.16,763.8888888888889
0.055,0.15,766.6666666666666
0.035,0.155,769.4444444444445
0.055,0.175,772.2222222222222
0.055,0.185,775.0
0.045,0.22,777.7777777777778
0.025,0.235,780.5555555555555
0.0,0.225,783.3333333333334
-0.005,0.2,786.1111111111111
-0.02,0.185,788.8888888888889
-0.035,0.175,791.6666666666666
-0.045,0.16,794.4444444444445
-0.06,0.145,797.2222222222222
-0.085,0.105,800.0
-0.105,0.095,802.7777777777778
-0.115,0.07,805.5555555555555
-0.125,0.075,808.3333333333334
-0.12,0.065,811.1111111111111
-0.13,0.06,813.8888888888889
-0.155,0.055,816.6666666666666
-0.16,0.08,819.4444444444445
-0.17,0.09,822.2222222222222
-0.165,0.105,825.0
-0.175,0.095,827.7777777777778
-0.165,0.08,830.5555555555555
-0.19,0.09,833.3333333333334
-0.205,0.08,836.1111111111111
-0.205,0.1,838.8888888888889
-0.2,0.115,841.6666666666666
-0.205,0.12,844.4444444444445
-0.21,0.125,847.2222222222222
-0.22,0.125,850.0
-0.235,0.14,852.7777777777778
-0.225,0.14,855.5555555555555
-0.205,0.16,858.3333333333334
-0.195,0.165,861.1111111111111
-0.2,0.155,863.8888888888889
-0.21,0.11,866.6666666666666
-0.23,0.105,869.4444444444445
-0.215,0.105,872.2222222222222
-0.205,0.105,875.0
-0.2,0.1,877.7777777777778
-0.19,0.08,880.5555555555555
-0.21,0.05,883.3333333333334
-0.22,0.07,886.1111111111111
-0.215,0.1,888.8888888888889
-0.215,0.135,891.6666666666666
-0.195,0.13,894.4444444444445
-0.195,0.115,897.2222222222222
-0.195,0.095,900.0
-0.21,0.075,902.7777777777778
-0.21,0.09,905.5555555555555
-0.205,0.1,908.3333333333334
-0.195,0.105,911.1111111111111
-0.2,0.095,913.8888888888889
-0.2,0.095,916.6666666666666
-0.205,0.11,919.4444444444445
-0.205,0.125,922.2222222222222
-0.195,0.145,925.0
-0.18,0.135,927.7777777777778
-0.185,0.115,930.5555555555555
-0.2,0.075,933.3333333333334
-0.2,0.055,936.1111111111111
-0.165,0.055,938.8888888888889
-0.165,0.08,941.6666666666666
-0.145,0.11,944.4444444444445
-0.155,0.125,947.2222222222222
-0.165,0.115,950.0
-0.15,0.105,952.7777777777778
-0.145,0.095,955.5555555555555
-0.145,0.105,958.3333333333334
-0.15,0.1,961.1111111111111
-0.165,0.095,963.8888888888889
-0.165,0.095,966.6666666666666
-0.17,0.12,969.4444444444445
-0.15,0.125,972.2222222222222
-0.145,0.135,975.0
-0.13,0.13,977.7777777777778
-0.14,0.12,980.5555555555555
-0.145,0.105,983.3333333333334
-0.145,0.125,986.1111111111111
-0.135,0.16,988.8888888888889
-0.13,0.17,991.6666666666666
-0.115,0.145,994.4444444444445
-0.11,0.115,997.2222222222222
-0.115,0.07,1000.0
-0.12,0.04,1002.7777777777778
-0.11,0.03,1005.5555555555555
-0.12,0.045,1008.3333333333334
-0.12,0.045,1011.1111111111111
-0.13,0.05,1013.8888888888889
-0.135,0.03,1016.6666666666666
-0.14,0.05,1019.4444444444445
-0.145,0.05,1022.2222222222222
-0.14,0.055,1025.0
-0.125,0.065,1027.7777777777778
-0.12,0.05,1030.5555555555557
-0.14,0.05,1033.3333333333333
-0.17,0.04,1036.111111111111
-0.18,0.03,1038.888888888889
-0.18,0.05,1041.6666666666667
-0.175,0.04,1044.4444444444443
-0.185,0.025,1047.2222222222222
-0.19,0.025,1050.0
-0.205,0.025,1052.7777777777778
-0.185,0.04,1055.5555555555557
-0.165,0.06,1058.3333333333333
-0.145,0.07,1061.111111111111
-0.16,0.08,1063.888888888889
-0.19,0.1,1066.6666666666667
-0.215,0.115,1069.4444444444443
-0.225,0.13,1072.2222222222222
-0.235,0.12,1075.0
-0.245,0.095,1077.7777777777778
-0.275,0.075,1080.5555555555557
-0.28,0.07,1083.3333333333333
-0.275,0.08,1086.111111111111
-0.27,0.09,1088.888888888889
-0.235,0.1,1091.6666666666667
-0.24,0.075,1094.4444444444443
-0.255,0.075,1097.2222222222222
-0.265,0.095,1100.0
-0.265,0.1,1102.7777777777778
-0.255,0.09,1105.5555555555557
-0.26,0.095,1108.3333333333333
-0.25,0.085,1111.111111111111
-0.25,0.065,1113.888888888889
-0.25,0.03,1116.6666666666667
-0.25,0.03,1119.4444444444443
-0.255,0.065,1122.2222222222222
-0.25,0.09,1125.0
-0.24,0.105,1127.7777777777778
-0.24,0.095,1130.5555555555557
-0.24,0.07,1133.3333333333333
-0.26,0.055,1136.111111111111
-0.255,0.065,1138.888888888889
-0.255,0.085,1141.6666666666667
-0.285,0.11,1144.4444444444443
-0.32,0.115,1147.2222222222222
-0.335,0.135,1150.0
-0.36,0.14,1152.7777777777778
-0.31,0.17,1155.5555555555557
-0.25,0.205,1158.3333333333333
-0.16,0.2,1161.111111111111
-0.035,0.19,1163.888888888889
0.1,0.185,1166.6666666666667
0.28,0.21,1169.4444444444443
0.52,0.215,1172.2222222222222
0.76,0.22,1175.0
0.96,0.175,1177.7777777777778
1.08,0.11,1180.5555555555557
1.055,0.0,1183.3333333333333
0.905,-0.09,1186.111111111111
0.635,-0.14,1188.888888888889
0.325,-0.13,1191.6666666666667
-0.06,-0.115,1194.4444444444443
-0.5,-0.11,1197.2222222222222
-0.81,-0.115,1200.0
-0.88,-0.115,1202.7777777777778
-0.825,-0.09,1205.5555555555557
-0.74,-0.07,1208.3333333333333
-0.65,-0.07,1211.111111111111
-0.55,-0.1,1213.888888888889
-0.475,-0.085,1216.6666666666667
-0.41,-0.06,1219.4444444444443
-0.37,-0.005,1222.2222222222222
-0.335,0.03,1225.0
-0.32,0.04,1227.7777777777778
-0.3,0.065,1230.5555555555557
-0.305,0.07,1233.3333333333333
-0.3,0.07,1236.111111111111
-0.28,0.095,1238.888888888889
-0.275,0.08,1241.6666666666667
-0.275,0.06,1244.4444444444443
-0.29,0.03,1247.2222222222222
-0.285,0.035,1250.0
-0.28,0.02,1252.7777777777778
-0.265,0.04,1255.5555555555557
-0.26,0.035,1258.3333333333333
-0.25,0.05,1261.111111111111
-0.255,0.045,1263.888888888889
-0.27,0.035,1266.6666666666667
-0.265,0.04,1269.4444444444443
-0.255,0.045,1272.2222222222222
-0.245,0.085,1275.0
-0.245,0.07,1277.7777777777778
-0.285,0.055,1280.5555555555557
-0.275,0.05,1283.3333333333333
-0.26,0.04,1286.111111111111
-0.25,0.055,1288.888888888889
-0.235,0.07,1291.6666666666667
-0.24,0.07,1294.4444444444443
-0.255,0.07,1297.2222222222222
-0.225,0.06,1300.0
-0.235,0.055,1302.7777777777778
-0.225,0.065,1305.5555555555557
-0.21,0.075,1308.3333333333333
-0.2,0.055,1311.111111111111
-0.195,0.045,1313.888888888889
-0.205,0.025,1316.6666666666667
-0.205,0.035,1319.4444444444443
-0.19,0.06,1322.2222222222222
-0.16,0.075,1325.0
-0.13,0.08,1327.7777777777778
-0.135,0.065,1330.5555555555557
-0.155,0.045,1333.3333333333333
-0.165,0.055,1336.111111111111
-0.16,0.065,1338.888888888889
-0.145,0.085,1341.6666666666667
-0.14,0.08,1344.4444444444443
-0.135,0.085,1347.2222222222222
-0.13,0.095,1350.0
-0.12,0.105,1352.7777777777778
-0.105,0.13,1355.5555555555557
-0.075,0.12,1358.3333333333333
-0.06,0.125,1361.111111111111
-0.035,0.1,1363.888888888889
-0.04,0.085,1366.6666666666667
-0.04,0.065,1369.4444444444443
-0.005,0.06,1372.2222222222222
0.01,0.065,1375.0
0.015,0.065,1377.7777777777778
0.015,0.065,1380.5555555555557
0.005,0.065,1383.3333333333333
0.01,0.065,1386.111111111111
0.035,0.05,1388.888888888889
0.04,0.04,1391.6666666666667
0.06,0.03,1394.4444444444443
0.06,0.045,1397.2222222222222
0.05,0.055,1400.0
0.03,0.07,1402.7777777777778
0.045,0.085,1405.5555555555557
0.04,0.105,1408.3333333333333
0.05,0.09,1411.111111111111
0.05,0.08,1413.888888888889
0.05,0.06,1416.6666666666667
0.045,0.055,1419.4444444444443
0.055,0.06,1422.2222222222222
0.06,0.075,1425.0
0.06,0.07,1427.7777777777778
0.055,0.065,1430.5555555555557
0.035,0.065,1433.3333333333333
0.015,0.075,1436.111111111111
0.005,0.1,1438.888888888889
0.005,0.11,1441.6666666666667
-0.01,0.135,1444.4444444444443
-0.035,0.13,1447.2222222222222
-0.08,0.125,1450.0
-0.095,0.14,1452.7777777777778
-0.085,0.125,1455.5555555555557
-0.08,0.115,1458.3333333333333
-0.085,0.055,1461.111111111111
-0.1,0.02,1463.888888888889
-0.125,-0.025,1466.6666666666667
-0.145,-0.02,1469.4444444444443
-0.15,0.01,1472.2222222222222
-0.16,0.03,1475.0
-0.18,0.05,1477.7777777777778
-0.185,0.05,1480.5555555555557
-0.195,0.05,1483.3333333333333
-0.2,0.035,1486.111111111111
-0.205,0.04,1488.888888888889
-0.195,0.06,1491.6666666666667
-0.19,0.075,1494.4444444444443
-0.19,0.08,1497.2222222222222
-0.2,0.065,1500.0
-0.23,0.055,1502.7777777777778
-0.215,0.06,1505.5555555555557
-0.205,0.05,1508.3333333333333
-0.205,0.06,1511.111111111111
-0.22,0.055,1513.888888888889
-0.21,0.06,1516.6666666666667
-0.23,0.07,1519.4444444444443
-0.24,0.105,1522.2222222222222
-0.235,0.125,1525.0
-0.245,0.135,1527.7777777777778
-0.235,0.08,1530.5555555555557
-0.25,0.02,1533.3333333333333
-0.25,-0.03,1536.111111111111
-0.23,-0.025,1538.888888888889
-0.225,-0.01,1541.6666666666667
-0.22,-0.005,1544.4444444444443
-0.235,-0.005,1547.2222222222222
-0.24,-0.005,1550.0
-0.25,0.0,1552.7777777777778
-0.25,0.015,1555.5555555555557
-0.23,0.025,1558.3333333333333
-0.215,0.04,1561.111111111111
-0.22,0.03,1563.888888888889
-0.225,0.015,1566.6666666666667
-0.225,0.02,1569.4444444444443
-0.215,0.025,1572.2222222222222
-0.2,0.04,1575.0
-0.2,0.04,1577.7777777777778
-0.215,0.04,1580.5555555555557
-0.23,0.04,1583.3333333333333
-0.24,0.05,1586.111111111111
-0.23,0.085,1588.888888888889
-0.205,0.09,1591.6666666666667
-0.2,0.105,1594.4444444444443
-0.205,0.07,1597.2222222222222
-0.235,0.04,1600.0
-0.265,0.05,1602.7777777777778
-0.25,0.04,1605.5555555555557
-0.23,0.055,1608.3333333333333
-0.205,0.05,1611.111111111111
-0.205,0.04,1613.888888888889
-0.23,0.025,1616.6666666666667
-0.235,0.015,1619.4444444444443
-0.225,0.0,1622.2222222222222
-0.195,0.02,1625.0
-0.185,0.025,1627.7777777777778
-0.165,0.015,1630.5555555555557
-0.17,0.005,1633.3333333333333
-0.17,0.01,1636.111111111111
-0.185,0.04,1638.888888888889
-0.185,0.065,1641.6666666666667
-0.185,0.07,1644.4444444444443
-0.175,0.07,1647.2222222222222
-0.165,0.05,1650.0
-0.155,0.055,1652.7777777777778
-0.16,0.065,1655.5555555555557
-0.15,0.07,1658.3333333333333
-0.14,0.05,1661.111111111111
-0.155,0.015,1663.888888888889
-0.165,0.005,1666.6666666666667
-0.185,0.01,1669.4444444444443
-0.195,0.045,1672.2222222222222
-0.19,0.065,1675.0
-0.21,0.08,1677.7777777777778
-0.215,0.07,1680.5555555555557
-0.22,0.045,1683.3333333333333
-0.19,0.02,1686.111111111111
-0.18,-0.015,1688.888888888889
-0.185,-0.025,1691.6666666666667
-0.185,-0.055,1694.4444444444443
-0.195,-0.045,1697.2222222222222
-0.22,-0.05,1700.0
-0.23,-0.025,1702.7777777777778
-0.23,-0.025,1705.5555555555557
-0.235,-0.04,1708.3333333333333
-0.23,-0.03,1711.111111111111
-0.24,-0.015,1713.888888888889
-0.255,0.005,1716.6666666666667
-0.255,0.01,1719.4444444444443
-0.235,0.03,1722.2222222222222
-0.24,0.03,1725.0
-0.25,0.02,1727.7777777777778
-0.29,0.005,1730.5555555555557
-0.315,-0.005,1733.3333333333333
-0.325,-0.005,1736.111111111111
-0.315,0.0,1738.888888888889
-0.3,0.015,1741.6666666666667
-0.3,0.03,1744.4444444444443
-0.295,0.035,1747.2222222222222
-0.315,0.04,1750.0
-0.31,0.04,1752.7777777777778
-0.31,0.03,1755.5555555555557
-0.3,0.03,1758.3333333333333
-0.295,0.02,1761.111111111111
-0.305,0.015,1763.888888888889
-0.335,0.005,1766.6666666666667
-0.35,0.025,1769.4444444444443
-0.34,0.04,1772.2222222222222
-0.32,0.035,1775.0
-0.31,0.045,1777.7777777777778
-0.295,0.045,1780.5555555555557
-0.305,0.025,1783.3333333333333
-0.31,0.01,1786.111111111111
-0.305,0.02,1788.888888888889
-0.3,0.015,1791.6666666666667
-0.31,0.035,1794.4444444444443
-0.335,0.065,1797.2222222222222
-0.375,0.105,1800.0
-0.405,0.135,1802.7777777777778
-0.415,0.165,1805.5555555555557
-0.375,0.175,1808.3333333333333
-0.325,0.155,1811.111111111111
-0.22,0.13,1813.888888888889
-0.09,0.095,1816.6666666666667
0.065,0.085,1819.4444444444443
0.285,0.13,1822.2222222222222
0.515,0.155,1825.0
0.755,0.155,1827.7777777777778
0.94,0.13,1830.5555555555557
0.995,0.05,1833.3333333333333
0.92,-0.04,1836.111111111111
0.725,-0.11,1838.888888888889
0.445,-0.105,1841.6666666666667
0.095,-0.1,1844.4444444444443
-0.34,-0.11,1847.2222222222222
-0.705,-0.12,1850.0
-0.885,-0.105,1852.7777777777778
-0.885,-0.095,1855.5555555555557
-0.805,-0.1,1858.3333333333333
-0.75,-0.105,1861.111111111111
-0.7,-0.115,1863.888888888889
-0.6,-0.12,1866.6666666666667
-0.515,-0.13,1869.4444444444443
-0.44,-0.12,1872.2222222222222
-0.415,-0.09,1875.0
-0.41,-0.05,1877.7777777777778
-0.395,-0.045,1880.5555555555557
-0.385,-0.035,1883.3333333333333
-0.375,-0.01,1886.111111111111
-0.365,0.02,1888.888888888889
-0.33,0.035,1891.6666666666667
-0.315,0.03,1894.4444444444443
-0.32,0.015,1897.2222222222222
-0.34,0.0,1900.0
-0.345,0.03,1902.7777777777778
-0.335,0.03,1905.5555555555557
-0.315,0.06,1908.3333333333333
-0.3,0.035,1911.111111111111
-0.31,0.01,1913.888888888889
-0.33,0.0,1916.6666666666667
-0.355,0.01,1919.4444444444443
-0.335,0.04,1922.2222222222222
-0.305,0.05,1925.0
-0.295,0.015,1927.7777777777778
-0.305,0.015,1930.5555555555557
-0.32,-0.005,1933.3333333333333
-0.325,0.0,1936.111111111111
-0.315,0.03,1938.888888888889
-0.29,0.035,1941.6666666666667
-0.285,0.04,1944.4444444444443
-0.285,0.04,1947.2222222222222
-0.285,0.03,1950.0
-0.275,0.025,1952.7777777777778
-0.26,0.01,1955.5555555555557
-0.25,0.01,1958.3333333333333
-0.245,0.0,1961.111111111111
-0.245,0.005,1963.888888888889
-0.24,-0.01,1966.6666666666667
-0.23,-0.005,1969.4444444444443
-0.22,0.0,1972.2222222222222
-0.2,0.02,1975.0
-0.195,0.035,1977.7777777777778
-0.185,0.04,1980.5555555555557
-0.2,0.04,1983.3333333333333
-0.19,0.015,1986.111111111111
-0.175,0.03,1988.888888888889
-0.16,0.03,1991.6666666666667
-0.135,0.015,1994.4444444444443
-0.11,0.005,1997.2222222222222
-0.1,-0.005,2000.0
-0.1,0.005,2002.7777777777778
-0.09,0.045,2005.5555555555557
-0.095,0.045,2008.3333333333333
-0.095,0.035,2011.111111111111
-0.08,0.015,2013.888888888889
-0.07,0.01,2016.6666666666667
-0.06,0.025,2019.4444444444443
-0.045,0.045,2022.2222222222222
-0.025,0.05,2025.0
-0.01,0.02,2027.7777777777778
0.01,-0.005,2030.5555555555557
-0.005,-0.005,2033.3333333333333
-0.025,0.015,2036.111111111111
-0.035,0.035,2038.888888888889
-0.02,0.07,2041.6666666666667
0.0,0.07,2044.4444444444443
-0.015,0.045,2047.2222222222222
-0.025,0.02,2050.0
0.005,0.02,2052.777777777778
0.01,0.04,2055.5555555555557
0.035,0.055,2058.3333333333335
0.03,0.04,2061.1111111111113
0.015,0.03,2063.8888888888887
-0.015,0.005,2066.6666666666665
-0.035,0.005,2069.4444444444443
-0.035,0.045,2072.222222222222
-0.05,0.055,2075.0
-0.075,0.07,2077.777777777778
-0.1,0.06,2080.5555555555557
-0.12,0.065,2083.3333333333335
-0.13,0.045,2086.1111111111113
-0.14,0.05,2088.8888888888887
-0.115,0.045,2091.6666666666665
-0.11,0.05,2094.4444444444443
-0.135,0.025,2097.222222222222
-0.165,0.01,2100.0
-0.18,-0.015,2102.777777777778
-0.19,0.0,2105.5555555555557
-0.2,0.01,2108.3333333333335
-0.205,0.02,2111.1111111111113
-0.22,0.005,2113.8888888888887
-0.24,-0.01,2116.6666666666665
-0.28,0.0,2119.4444444444443
-0.305,0.01,2122.222222222222
-0.315,0.025,2125.0
-0.305,0.045,2127.777777777778
-0.3,0.055,2130.5555555555557
-0.29,0.045,2133.3333333333335
-0.315,0.055,2136.1111111111113
-0.305,0.045,2138.8888888888887
-0.305,0.05,2141.6666666666665
-0.305,0.03,2144.4444444444443
-0.315,0.01,2147.222222222222
-0.335,-0.02,2150.0
-0.34,-0.015,2152.777777777778
-0.33,0.0,2155.5555555555557
-0.32,0.025,2158.3333333333335
-0.305,0.035,2161.1111111111113
-0.315,0.015,2163.8888888888887
-0.31,0.015,2166.6666666666665
-0.31,0.025,2169.4444444444443
-0.29,0.045,2172.222222222222
-0.28,0.075,2175.0
-0.275,0.065,2177.777777777778
-0.295,0.045,2180.5555555555557
-0.305,0.025,2183.3333333333335
-0.315,0.03,2186.1111111111113
-0.295,0.04,2188.8888888888887
-0.3,0.04,2191.6666666666665
-0.275,0.01,2194.4444444444443
-0.28,0.01,2197.222222222222
-0.26,0.01,2200.0
-0.27,0.035,2202.777777777778
-0.255,0.04,2205.5555555555557
-0.26,0.03,2208.3333333333335
-0.25,0.0,2211.1111111111113
-0.265,-0.01,2213.8888888888887
-0.275,-0.015,2216.6666666666665
-0.295,0.01,2219.4444444444443
-0.275,0.025,2222.222222222222
-0.265,0.02,2225.0
-0.235,0.025,2227.777777777778
-0.27,0.02,2230.5555555555557
-0.29,0.01,2233.3333333333335
-0.29,0.035,2236.1111111111113
-0.28,0.045,2238.8888888888887
-0.25,0.04,2241.6666666666665
-0.21,0.04,2244.4444444444443
-0.215,0.02,2247.222222222222
-0.24,0.015,2250.0
-0.275,0.01,2252.777777777778
-0.285,0.01,2255.5555555555557
-0.26,0.04,2258.3333333333335
-0.24,0.035,2261.1111111111113
-0.225,0.03,2263.8888888888887
-0.25,0.015,2266.6666666666665
-0.265,0.025,2269.4444444444443
-0.25,0.045,2272.222222222222
-0.235,0.05,2275.0
-0.23,0.045,2277.777777777778
-0.235,0.045,2280.5555555555557
-0.25,0.04,2283.3333333333335
-0.23,0.04,2286.1111111111113
-0.23,0.055,2288.8888888888887
-0.215,0.06,2291.6666666666665
-0.195,0.065,2294.4444444444443
-0.2,0.065,2297.222222222222
-0.21,0.04,2300.0
-0.205,-0.01,2302.777777777778
-0.23,-0.045,2305.5555555555557
-0.225,-0.04,2308.3333333333335
-0.21,-0.045,2311.1111111111113
-0.2,-0.02,2313.8888888888887
-0.235,-0.01,2316.6666666666665
-0.265,-0.015,2319.4444444444443
-0.27,-0.005,2322.222222222222
-0.26,-0.02,2325.0
-0.24,-0.02,2327.777777777778
-0.225,-0.02,2330.5555555555557
-0.235,-0.03,2333.3333333333335
-0.24,-0.015,2336.1111111111113
-0.24,-0.02,2338.8888888888887
-0.23,-0.025,2341.6666666666665
-0.245,-0.05,2344.4444444444443
-0.28,-0.055,2347.222222222222
-0.31,-0.06,2350.0
-0.285,-0.05,2352.777777777778
-0.255,-0.01,2355.5555555555557
-0.235,0.005,2358.3333333333335
-0.255,0.02,2361.1111111111113
-0.28,0.03,2363.8888888888887
-0.285,0.02,2366.6666666666665
-0.305,0.005,2369.4444444444443
-0.32,0.0,2372.222222222222
-0.355,0.02,2375.0
-0.36,0.025,2377.777777777778
-0.355,0.015,2380.5555555555557
-0.345,0.01,2383.3333333333335
-0.345,0.0,2386.1111111111113
-0.355,0.025,2388.8888888888887
-0.34,0.04,2391.6666666666665
-0.33,0.04,2394.4444444444443
-0.315,0.05,2397.222222222222
-0.33,0.03,2400.0
-0.355,0.045,2402.777777777778
-0.375,0.07,2405.5555555555557
-0.365,0.085,2408.3333333333335
-0.345,0.045,2411.1111111111113
-0.34,0.005,2413.8888888888887
-0.35,-0.015,2416.6666666666665
-0.35,-0.04,2419.4444444444443
-0.35,-0.03,2422.222222222222
-0.34,-0.01,2425.0
-0.34,-0.02,2427.777777777778
-0.345,-0.025,2430.5555555555557
-0.38,-0.01,2433.3333333333335
-0.39,0.0,2436.1111111111113
-0.42,0.05,2438.8888888888887
-0.45,0.085,2441.6666666666665
-0.43,0.1,2444.4444444444443
-0.405,0.105,2447.222222222222
-0.35,0.085,2450.0
-0.265,0.09,2452.777777777778
-0.12,0.095,2455.5555555555557
0.08,0.11,2458.3333333333335
0.325,0.125,2461.1111111111113
0.57,0.155,2463.8888888888887
0.78,0.14,2466.6666666666665
0.94,0.12,2469.4444444444443
1.035,0.05,2472.222222222222
0.96,-0.02,2475.0
0.77,-0.1,2477.777777777778
0.46,-0.125,2480.5555555555557
0.065,-0.14,2483.3333333333335
-0.415,-0.12,2486.1111111111113
-0.765,-0.08,2488.8888888888887
-0.9,-0.065,2491.6666666666665
-0.865,-0.095,2494.4444444444443
-0.805,-0.135,2497.222222222222
-0.74,-0.18,2500.0
-0.66,-0.155,2502.777777777778
-0.555,-0.12,2505.5555555555557
-0.47,-0.08,2508.3333333333335
-0.43,-0.055,2511.1111111111113
-0.44,-0.05,2513.8888888888887
-0.445,-0.035,2516.6666666666665
-0.45,-0.035,2519.4444444444443
-0.42,-0.005,2522.222222222222
-0.38,0.01,2525.0
-0.375,0.01,2527.777777777778
-0.39,-0.005,2530.5555555555557
-0.395,-0.035,2533.3333333333335
-0.41,-0.025,2536.1111111111113
-0.42,0.02,2538.8888888888887
-0.41,0.05,2541.6666666666665
-0.385,0.05,2544.4444444444443
-0.37,0.01,2547.222222222222
-0.355,-0.03,2550.0
-0.385,-0.04,2552.777777777778
-0.4,-0.025,2555.5555555555557
-0.405,-0.005,2558.3333333333335
-0.38,-0.015,2561.1111111111113
-0.375,0.01,2563.8888888888887
-0.355,-0.005,2566.6666666666665
-0.34,0.0,2569.4444444444443
-0.335,0.03,2572.222222222222
-0.36,0.04,2575.0
-0.37,0.045,2577.777777777778
-0.365,0.01,2580.5555555555557
-0.35,-0.025,2583.3333333333335
-0.34,-0.02,2586.1111111111113
-0.355,-0.005,2588.8888888888887
-0.345,0.02,2591.6666666666665
-0.315,0.02,2594.4444444444443
-0.295,0.02,2597.222222222222
-0.29,0.025,2600.0
-0.295,0.025,2602.777777777778
-0.295,0.01,2605.5555555555557
-0.285,0.0,2608.3333333333335
-0.29,0.015,2611.1111111111113
-0.29,0.03,2613.8888888888887
-0.295,0.04,2616.6666666666665
-0.28,0.06,2619.4444444444443
-0.255,0.02,2622.222222222222
-0.23,-0.025,2625.0
-0.185,-0.035,2627.777777777778
-0.17,-0.04,2630.5555555555557
-0.185,-0.02,2633.3333333333335
-0.23,-0.01,2636.1111111111113
-0.255,-0.005,2638.8888888888887
-0.225,0.015,2641.6666666666665
-0.17,0.03,2644.4444444444443
-0.15,0.045,2647.222222222222
-0.175,0.035,2650.0
-0.185,0.035,2652.777777777778
-0.175,0.015,2655.5555555555557
-0.145,0.025,2658.3333333333335
-0.11,0.02,2661.1111111111113
-0.09,0.01,2663.8888888888887
-0.085,0.01,2666.6666666666665
-0.09,0.03,2669.4444444444443
-0.055,0.035,2672.222222222222
-0.03,0.04,2675.0
0.005,0.01,2677.777777777778
-0.03,0.0,2680.5555555555557
-0.07,-0.015,2683.3333333333335
-0.11,0.01,2686.1111111111113
-0.105,0.045,2688.8888888888887
-0.08,0.095,2691.6666666666665
-0.06,0.08,2694.4444444444443
-0.065,0.055,2697.222222222222
-0.105,0.045,2700.0
-0.1,0.05,2702.777777777778
-0.045,0.05,2705.5555555555557
-0.02,0.05,2708.3333333333335
-0.045,0.035,2711.1111111111113
-0.08,0.035,2713.8888888888887
-0.11,0.03,2716.6666666666665
-0.085,0.01,2719.4444444444443
-0.085,0.015,2722.222222222222
-0.13,0.025,2725.0
-0.17,0.045,2727.777777777778
-0.185,0.055,2730.5555555555557
-0.17,0.045,2733.3333333333335
-0.15,0.03,2736.1111111111113
-0.145,0.02,2738.8888888888887
-0.175,-0.005,2741.6666666666665
-0.225,-0.025,2744.4444444444443
-0.23,-0.025,2747.222222222222
-0.18,-0.005,2750.0
-0.18,0.005,2752.777777777778
-0.22,0.005,2755.5555555555557
-0.315,-0.015,2758.3333333333335
-0.355,-0.015,2761.1111111111113
-0.35,-0.02,2763.8888888888887
-0.335,-0.025,2766.6666666666665
-0.325,-0.01,2769.4444444444443
-0.29,0.005,2772.222222222222
-0.28,0.03,2775.0
-0.285,0.015,2777.777777777778
-0.31,-0.015,2780.5555555555557
-0.345,-0.01,2783.3333333333335
-0.38,0.02,2786.1111111111113
-0.38,0.045,2788.8888888888887
-0.36,0.06,2791.6666666666665
-0.35,0.065,2794.4444444444443
-0.33,0.075,2797.222222222222
-0.33,0.075,2800.0
-0.315,0.08,2802.777777777778
-0.32,0.07,2805.5555555555557
-0.335,0.01,2808.3333333333335
-0.355,-0.04,2811.1111111111113
-0.365,-0.085,2813.8888888888887
-0.34,-0.095,2816.6666666666665
-0.33,-0.065,2819.4444444444443
-0.305,-0.03,2822.222222222222
-0.32,-0.025,2825.0
-0.355,-0.035,2827.777777777778
-0.39,-0.045,2830.5555555555557
-0.395,-0.02,2833.3333333333335
-0.365,0.0,2836.1111111111113
-0.325,0.03,2838.8888888888887
-0.315,0.02,2841.6666666666665
-0.325,0.015,2844.4444444444443
-0.355,-0.01,2847.222222222222
-0.39,-0.015,2850.0
-0.395,-0.015,2852.777777777778
-0.36,-0.01,2855.5555555555557
-0.325,-0.025,2858.3333333333335
-0.32,-0.025,2861.1111111111113
-0.335,-0.035,2863.8888888888887
-0.33,-0.02,2866.6666666666665
-0.315,0.0,2869.4444444444443
-0.285,0.02,2872.222222222222
-0.28,0.015,2875.0
-0.3,0.0,2877.777777777778
-0.305,-0.005,2880.5555555555557
-0.3,-0.01,2883.3333333333335
-0.29,-0.015,2886.1111111111113
-0.29,0.005,2888.8888888888887
-0.305,0.015,2891.6666666666665
-0.315,0.015,2894.4444444444443
-0.32,0.0,2897.222222222222
-0.29,-0.005,2900.0
-0.25,0.02,2902.777777777778
-0.2,0.05,2905.5555555555557
-0.19,0.045,2908.3333333333335
-0.215,0.04,2911.1111111111113
-0.235,0.045,2913.8888888888887
-0.25,0.035,2916.6666666666665
-0.225,0.025,2919.4444444444443
-0.185,0.02,2922.222222222222
-0.17,0.01,2925.0
-0.19,-0.02,2927.777777777778
-0.245,-0.025,2930.5555555555557
-0.25,-0.03,2933.3333333333335
-0.24,-0.015,2936.1111111111113
-0.24,-0.015,2938.8888888888887
-0.265,-0.025,2941.6666666666665
-0.31,-0.015,2944.4444444444443
-0.335,-0.02,2947.222222222222
-0.34,-0.01,2950.0
-0.315,-0.01,2952.777777777778
-0.31,0.015,2955.5555555555557
-0.295,0.015,2958.3333333333335
-0.3,-0.035,2961.1111111111113
-0.3,-0.085,2963.8888888888887
-0.29,-0.1,2966.6666666666665
-0.28,-0.085,2969.4444444444443
-0.295,-0.04,2972.222222222222
-0.325,-0.045,2975.0
-0.325,-0.065,2977.777777777778
-0.32,-0.055,2980.5555555555557
-0.3,-0.05,2983.3333333333335
-0.29,-0.03,2986.1111111111113
-0.275,-0.015,2988.8888888888887
-0.275,-0.015,2991.6666666666665
-0.3,-0.025,2994.4444444444443
-0.335,-0.035,2997.222222222222
-0.375,-0.06,3000.0
-0.365,-0.05,3002.777777777778
-0.365,-0.04,3005.5555555555557
-0.36,-0.035,3008.3333333333335
-0.355,-0.035,3011.1111111111113
-0.39,-0.04,3013.8888888888887
-0.405,-0.025,3016.6666666666665
-0.37,0.005,3019.4444444444443
-0.305,0.02,3022.222222222222
-0.305,0.035,3025.0
-0.37,0.04,3027.777777777778
-0.435,0.035,3030.5555555555557
-0.44,0.015,3033.3333333333335
-0.41,-0.02,3036.1111111111113
-0.365,-0.03,3038.8888888888887
-0.355,-0.025,3041.6666666666665
-0.37,0.0,3044.4444444444443
-0.39,-0.01,3047.222222222222
-0.405,-0.005,3050.0
-0.35,-0.04,3052.777777777778
-0.31,-0.05,3055.5555555555557
-0.295,-0.055,3058.3333333333335
-0.33,-0.04,3061.1111111111113
-0.38,-0.015,3063.8888888888887
-0.43,0.02,3066.6666666666665
-0.4,0.05,3069.4444444444443
-0.35,0.08,3072.222222222222
-0.25,0.09,3075.0
-0.14,0.1,3077.777777777778
0.0,0.11,3080.5555555555557
0.195,0.105,3083.3333333333335
0.44,0.14,3086.1111111111113
0.705,0.175,3088.8888888888887
0.945,0.18,3091.6666666666665
1.105,0.145,3094.4444444444443
1.11,0.045,3097.222222222222
0.895,-0.055,3100.0
0.505,-0.105,3102.777777777778
0.06,-0.12,3105.5555555555557
-0.405,-0.135,3108.3333333333335
-0.795,-0.15,3111.1111111111113
-0.97,-0.16,3113.8888888888887
-0.985,-0.14,3116.6666666666665
-0.935,-0.115,3119.4444444444443
-0.865,-0.145,3122.222222222222
-0.785,-0.175,3125.0
-0.7,-0.16,3127.777777777778
-0.635,-0.14,3130.5555555555557
-0.595,-0.12,3133.3333333333335
-0.545,-0.08,3136.1111111111113
-0.48,-0.06,3138.8888888888887
-0.42,-0.045,3141.6666666666665
-0.42,-0.035,3144.4444444444443
-0.445,0.0,3147.222222222222
-0.45,0.025,3150.0
-0.455,0.035,3152.777777777778
-0.45,0.0,3155.5555555555557
-0.445,-0.025,3158.3333333333335
-0.455,-0.04,3161.1111111111113
-0.45,-0.045,3163.8888888888887
-0.435,-0.04,3166.6666666666665
-0.415,-0.005,3169.4444444444443
-0.41,0.03,3172.222222222222
-0.385,0.045,3175.0
-0.37,0.025,3177.777777777778
-0.36,-0.025,3180.5555555555557
-0.375,-0.065,3183.3333333333335
-0.39,-0.08,3186.1111111111113
-0.37,-0.07,3188.8888888888887
-0.36,-0.075,3191.6666666666665
-0.345,-0.06,3194.4444444444443
-0.34,-0.055,3197.222222222222
-0.335,-0.045,3200.0
-0.355,-0.02,3202.777777777778
-0.38,0.01,3205.5555555555557
-0.405,0.015,3208.3333333333335
-0.42,0.005,3211.1111111111113
-0.395,-0.005,3213.8888888888887
-0.38,0.0,3216.6666666666665
-0.36,0.005,3219.4444444444443
-0.36,-0.005,3222.222222222222
-0.355,0.01,3225.0
-0.37,0.015,3227.777777777778
-0.355,0.01,3230.5555555555557
-0.36,-0.02,3233.3333333333335
-0.355,-0.055,3236.1111111111113
-0.37,-0.055,3238.8888888888887
-0.33,-0.01,3241.6666666666665
-0.29,-0.015,3244.4444444444443
-0.285,-0.025,3247.222222222222
-0.28,-0.005,3250.0
-0.29,0.025,3252.777777777778
-0.29,0.05,3255.5555555555557
-0.27,0.045,3258.3333333333335
-0.24,0.005,3261.1111111111113
-0.195,-0.015,3263.8888888888887
-0.18,-0.015,3266.6666666666665
-0.195,0.005,3269.4444444444443
-0.23,0.01,3272.222222222222
-0.235,0.005,3275.0
-0.2,0.015,3277.777777777778
-0.175,-0.01,3280.5555555555557
-0.15,-0.02,3283.3333333333335
-0.135,-0.01,3286.1111111111113
-0.125,0.01,3288.8888888888887
-0.14,0.02,3291.6666666666665
-0.16,0.01,3294.4444444444443
-0.17,-0.005,3297.222222222222
-0.18,0.0,3300.0
-0.165,-0.005,3302.777777777778
-0.135,0.005,3305.5555555555557
-0.1,0.0,3308.3333333333335
-0.105,-0.02,3311.1111111111113
-0.11,-0.025,3313.8888888888887
-0.09,-0.005,3316.6666666666665
-0.085,0.02,3319.4444444444443
-0.07,0.045,3322.222222222222
-0.05,0.055,3325.0
-0.025,0.04,3327.777777777778
-0.02,0.035,3330.5555555555557
-0.03,0.025,3333.3333333333335
-0.07,0.025,3336.1111111111113
-0.085,0.035,3338.8888888888887
-0.105,0.04,3341.6666666666665
-0.115,0.04,3344.4444444444443
-0.135,0.03,3347.222222222222
-0.145,0.04,3350.0
-0.155,0.025,3352.777777777778
-0.165,0.03,3355.5555555555557
-0.205,0.01,3358.3333333333335
-0.25,0.0,3361.1111111111113
-0.28,-0.01,3363.8888888888887
-0.27,-0.005,3366.6666666666665
-0.265,-0.01,3369.4444444444443
-0.27,0.0,3372.222222222222
-0.31,0.01,3375.0
-0.325,0.005,3377.777777777778
-0.33,0.01,3380.5555555555557
-0.325,-0.005,3383.3333333333335
-0.32,0.005,3386.1111111111113
-0.33,0.02,3388.8888888888887
-0.335,0.05,3391.6666666666665
-0.335,0.05,3394.4444444444443
-0.375,0.05,3397.222222222222
-0.365,0.075,3400.0
-0.355,0.09,3402.777777777778
-0.34,0.09,3405.5555555555557
-0.31,0.055,3408.3333333333335
-0.3,0.025,3411.1111111111113
-0.33,0.02,3413.8888888888887
-0.345,0.04,3416.6666666666665
-0.34,0.04,3419.4444444444443
-0.33,0.025,3422.222222222222
-0.3,0.0,3425.0
-0.275,-0.01,3427.777777777778
-0.3,-0.02,3430.5555555555557
-0.325,-0.05,3433.3333333333335
-0.335,-0.065,3436.1111111111113
-0.315,-0.06,3438.8888888888887
-0.285,-0.04,3441.6666666666665
-0.27,-0.04,3444.4444444444443
-0.285,-0.025,3447.222222222222
-0.3,-0.025,3450.0
-0.295,0.0,3452.777777777778
-0.285,0.01,3455.5555555555557
-0.28,0.0,3458.3333333333335
-0.275,-0.005,3461.1111111111113
-0.295,-0.01,3463.8888888888887
-0.295,-0.01,3466.6666666666665
-0.305,0.005,3469.4444444444443
-0.29,0.03,3472.222222222222
-0.285,0.02,3475.0
-0.285,0.02,3477.777777777778
-0.28,-0.005,3480.5555555555557
-0.28,0.0,3483.3333333333335
-0.295,0.015,3486.1111111111113
-0.305,0.04,3488.8888888888887
-0.3,0.04,3491.6666666666665
-0.29,0.02,3494.4444444444443
-0.29,0.02,3497.222222222222
-0.315,0.03,3500.0
-0.295,0.025,3502.777777777778
-0.27,0.05,3505.5555555555557
-0.25,0.06,3508.3333333333335
-0.255,0.045,3511.1111111111113
-0.27,0.03,3513.8888888888887
-0.27,0.045,3516.6666666666665
-0.26,0.07,3519.4444444444443
-0.225,0.115,3522.222222222222
-0.215,0.125,3525.0
-0.205,0.14,3527.777777777778
-0.19,0.11,3530.5555555555557
-0.195,0.08,3533.3333333333335
-0.205,0.045,3536.1111111111113
-0.185,0.01,3538.8888888888887
-0.17,-0.005,3541.6666666666665
-0.165,-0.01,3544.4444444444443
-0.17,-0.01,3547.222222222222
-0.185,-0.025,3550.0
-0.185,-0.03,3552.777777777778
-0.18,-0.025,3555.5555555555557
-0.165,0.005,3558.3333333333335
-0.19,0.02,3561.1111111111113
-0.205,0.025,3563.8888888888887
-0.2,0.03,3566.6666666666665
-0.2,0.005,3569.4444444444443
-0.195,-0.015,3572.222222222222
-0.205,-0.02,3575.0
-0.245,-0.03,3577.777777777778
-0.25,-0.035,3580.5555555555557
-0.26,-0.03,3583.3333333333335
-0.25,-0.02,3586.1111111111113
-0.245,0.015,3588.8888888888887
-0.235,0.02,3591.6666666666665
-0.235,0.01,3594.4444444444443
-0.23,-0.015,3597.222222222222
-0.245,-0.02,3600.0
-0.23,-0.005,3602.777777777778
-0.22,0.03,3605.5555555555557
-0.205,0.03,3608.3333333333335
-0.21,0.015,3611.1111111111113
-0.245,-0.01,3613.8888888888887
-0.27,-0.005,3616.6666666666665
-0.3,0.015,3619.4444444444443
-0.3,0.055,3622.222222222222
-0.3,0.05,3625.0
-0.305,0.035,3627.777777777778
-0.305,0.025,3630.5555555555557
-0.3,0.025,3633.3333333333335
-0.305,0.075,3636.1111111111113
-0.285,0.095,3638.8888888888887
-0.28,0.065,3641.6666666666665
-0.265,0.03,3644.4444444444443
-0.28,-0.01,3647.222222222222
-0.28,-0.03,3650.0
-0.27,-0.025,3652.777777777778
-0.26,0.0,3655.5555555555557
-0.265,0.01,3658.3333333333335
-0.275,0.02,3661.1111111111113
-0.28,0.02,3663.8888888888887
-0.29,0.02,3666.6666666666665
-0.28,0.025,3669.4444444444443
-0.27,0.03,3672.222222222222
-0.255,0.025,3675.0
-0.27,0.005,3677.777777777778
-0.295,0.01,3680.5555555555557
-0.335,0.035,3683.3333333333335
-0.35,0.085,3686.1111111111113
-0.335,0.13,3688.8888888888887
-0.27,0.17,3691.6666666666665
-0.17,0.16,3694.4444444444443
-0.025,0.115,3697.222222222222
0.165,0.105,3700.0
0.415,0.13,3702.777777777778
0.695,0.195,3705.5555555555557
0.965,0.21,3708.3333333333335
1.145,0.185,3711.1111111111113
1.175,0.1,3713.8888888888887
1.005,0.01,3716.6666666666665
0.685,-0.075,3719.4444444444443
0.255,-0.105,3722.222222222222
-0.225,-0.1,3725.0
-0.67,-0.105,3727.777777777778
-0.86,-0.1,3730.5555555555557
-0.845,-0.105,3733.3333333333335
-0.78,-0.115,3736.1111111111113
-0.695,-0.135,3738.8888888888887
-0.6,-0.13,3741.6666666666665
-0.5,-0.095,3744.4444444444443
-0.44,-0.07,3747.222222222222
-0.405,-0.045,3750.0
-0.375,-0.015,3752.777777777778
-0.36,0.025,3755.5555555555557
-0.32,0.055,3758.3333333333335
-0.305,0.055,3761.1111111111113
-0.31,0.05,3763.8888888888887
-0.325,0.05,3766.6666666666665
-0.31,0.035,3769.4444444444443
-0.295,0.005,3772.222222222222
-0.29,0.01,3775.0
-0.295,0.025,3777.777777777778
-0.31,0.05,3780.5555555555557
-0.305,0.045,3783.3333333333335
-0.3,0.005,3786.1111111111113
-0.295,0.0,3788.8888888888887
-0.275,-0.005,3791.6666666666665
-0.26,-0.005,3794.4444444444443
-0.255,-0.005,3797.222222222222
-0.25,0.0,3800.0
-0.25,0.03,3802.777777777778
-0.24,0.06,3805.5555555555557
-0.22,0.07,3808.3333333333335
-0.235,0.06,3811.1111111111113
-0.24,0.055,3813.8888888888887
-0.245,0.035,3816.6666666666665
-0.24,0.045,3819.4444444444443
-0.205,0.075,3822.222222222222
-0.195,0.07,3825.0
-0.19,0.06,3827.777777777778
-0.195,0.06,3830.5555555555557
-0.195,0.035,3833.3333333333335
-0.19,0.01,3836.1111111111113
-0.17,0.035,3838.8888888888887
-0.17,0.045,3841.6666666666665
-0.155,0.07,3844.4444444444443
-0.17,0.07,3847.222222222222
-0.16,0.07,3850.0
-0.14,0.07,3852.777777777778
-0.115,0.08,3855.5555555555557
-0.1,0.06,3858.3333333333335
-0.1,0.07,3861.1111111111113
-0.085,0.07,3863.8888888888887
-0.08,0.065,3866.6666666666665
-0.06,0.06,3869.4444444444443
-0.03,0.045,3872.222222222222
-0.01,0.05,3875.0
-0.01,0.035,3877.777777777778
-0.025,0.04,3880.5555555555557
-0.04,0.06,3883.3333333333335
-0.025,0.08,3886.1111111111113
0.01,0.095,3888.8888888888887
0.04,0.09,3891.6666666666665
0.06,0.075,3894.4444444444443
0.06,0.06,3897.222222222222
0.055,0.08,3900.0
0.055,0.095,3902.777777777778
0.065,0.09,3905.5555555555557
0.07,0.09,3908.3333333333335
0.08,0.085,3911.1111111111113
0.075,0.075,3913.8888888888887
0.075,0.08,3916.6666666666665
0.09,0.105,3919.4444444444443
0.11,0.13,3922.222222222222
0.115,0.115,3925.0
0.12,0.13,3927.777777777778
0.11,0.13,3930.5555555555557
0.095,0.105,3933.3333333333335
0.08,0.075,3936.1111111111113
0.07,0.07,3938.8888888888887
0.055,0.09,3941.6666666666665
0.055,0.09,3944.4444444444443
0.055,0.085,3947.222222222222
0.045,0.075,3950.0
0.045,0.08,3952.777777777778
0.04,0.085,3955.5555555555557
0.025,0.08,3958.3333333333335
-0.005,0.075,3961.1111111111113
-0.035,0.055,3963.8888888888887
-0.05,0.065,3966.6666666666665
-0.07,0.07,3969.4444444444443
-0.08,0.095,3972.222222222222
-0.095,0.1,3975.0
-0.115,0.1,3977.777777777778
-0.135,0.09,3980.5555555555557
-0.145,0.085,3983.3333333333335
-0.135,0.1,3986.1111111111113
-0.12,0.12,3988.8888888888887
-0.125,0.115,3991.6666666666665
-0.12,0.1,3994.4444444444443
-0.155,0.075,3997.222222222222
-0.145,0.065,4000.0
-0.16,0.095,4002.777777777778
-0.16,0.115,4005.5555555555557
-0.155,0.125,4008.3333333333335
-0.165,0.115,4011.1111111111113
-0.17,0.105,4013.8888888888887
-0.17,0.11,4016.6666666666665
-0.18,0.145,4019.4444444444443
-0.165,0.155,4022.222222222222
-0.14,0.16,4025.0
-0.135,0.09,4027.777777777778
-0.12,0.02,4030.5555555555557
-0.135,0.005,4033.3333333333335
-0.135,0.02,4036.1111111111113
-0.13,0.055,4038.8888888888887
-0.11,0.07,4041.6666666666665
-0.12,0.055,4044.4444444444443
-0.135,0.05,4047.222222222222
-0.16,0.065,4050.0
-0.16,0.075,4052.777777777778
-0.155,0.085,4055.5555555555557
-0.15,0.085,4058.3333333333335
-0.14,0.09,4061.1111111111113
-0.145,0.09,4063.8888888888887
-0.155,0.115,4066.6666666666665
-0.155,0.125,4069.4444444444443
-0.145,0.15,4072.222222222222
-0.135,0.12,4075.0
-0.135,0.12,4077.777777777778
-0.13,0.09,4080.5555555555557
-0.125,0.075,4083.3333333333335
-0.135,0.095,4086.1111111111113
-0.12,0.135,4088.8888888888887
-0.105,0.135,4091.6666666666665
-0.11,0.085,4094.4444444444443
-0.13,0.055,4097.222222222223
-0.145,0.075,4100.0
-0.15,0.085,4102.777777777777
-0.125,0.125,4105.555555555556
-0.11,0.14,4108.333333333333
-0.115,0.15,4111.111111111111
-0.125,0.15,4113.888888888889
-0.12,0.145,4116.666666666667
-0.11,0.125,4119.444444444444
-0.105,0.09,4122.222222222223
-0.095,0.095,4125.0
-0.08,0.115,4127.777777777777
-0.075,0.125,4130.555555555556
-0.06,0.12,4133.333333333333
-0.065,0.12,4136.111111111111
-0.045,0.13,4138.888888888889
-0.03,0.145,4141.666666666667
-0.045,0.145,4144.444444444444
-0.035,0.13,4147.222222222223
-0.055,0.11,4150.0
-0.06,0.08,4152.777777777777
-0.065,0.06,4155.555555555556
-0.07,0.05,4158.333333333333
-0.08,0.05,4161.111111111111
-0.07,0.045,4163.888888888889
-0.1,0.06,4166.666666666667
-0.095,0.06,4169.444444444444
-0.09,0.095,4172.222222222223
-0.085,0.085,4175.0
-0.085,0.095,4177.777777777777
-0.1,0.09,4180.555555555556
-0.12,0.08,4183.333333333333
-0.13,0.105,4186.111111111111
-0.12,0.105,4188.888888888889
-0.105,0.095,4191.666666666667
-0.115,0.08,4194.444444444444
-0.12,0.075,4197.222222222223
-0.13,0.09,4200.0
-0.14,0.1,4202.777777777777
-0.125,0.115,4205.555555555556
-0.095,0.12,4208.333333333333
-0.095,0.115,4211.111111111111
-0.105,0.09,4213.888888888889
-0.12,0.06,4216.666666666667
-0.145,0.085,4219.444444444444
-0.15,0.08,4222.222222222223
-0.155,0.1,4225.0
-0.165,0.1,4227.777777777777
-0.18,0.105,4230.555555555556
-0.2,0.105,4233.333333333333
-0.19,0.11,4236.111111111111
-0.18,0.125,4238.888888888889
-0.18,0.125,4241.666666666667
-0.175,0.135,4244.444444444444
-0.185,0.125,4247.222222222223
-0.19,0.105,4250.0
-0.19,0.135,4252.777777777777
-0.185,0.14,4255.555555555556
-0.18,0.145,4258.333333333333
-0.175,0.14,4261.111111111111
-0.19,0.12,4263.888888888889
-0.205,0.11,4266.666666666667
-0.2,0.11,4269.444444444444
-0.19,0.135,4272.222222222223
-0.18,0.155,4275.0
-0.185,0.14,4277.777777777777
-0.205,0.105,4280.555555555556
-0.225,0.095,4283.333333333333
-0.26,0.14,4286.111111111111
-0.245,0.205,4288.888888888889
-0.215,0.235,4291.666666666667
-0.155,0.25,4294.444444444444
-0.05,0.235,4297.222222222223
0.095,0.23,4300.0
0.295,0.245,4302.777777777777
0.56,0.285,4305.555555555556
0.83,0.285,4308.333333333333
1.09,0.255,4311.111111111111
1.255,0.195,4313.888888888889
1.3,0.08,4316.666666666667
1.15,-0.03,4319.444444444444
0.83,-0.085,4322.222222222223
0.41,-0.08,4325.0
-0.105,-0.065,4327.777777777777
-0.59,-0.06,4330.555555555556
-0.83,-0.07,4333.333333333333
-0.825,-0.075,4336.111111111111
-0.71,-0.055,4338.888888888889
-0.6,-0.05,4341.666666666667
-0.495,-0.045,4344.444444444444
-0.41,-0.02,4347.222222222223
-0.335,0.01,4350.0
-0.28,0.055,4352.777777777777
-0.235,0.08,4355.555555555556
-0.215,0.09,4358.333333333333
-0.215,0.095,4361.111111111111
-0.22,0.1,4363.888888888889
-0.23,0.115,4366.666666666667
-0.22,0.13,4369.444444444444
-0.205,0.135,4372.222222222223
-0.18,0.14,4375.0
-0.2,0.15,4377.777777777777
-0.21,0.16,4380.555555555556
-0.235,0.17,4383.333333333333
-0.22,0.155,4386.111111111111
-0.205,0.145,4388.888888888889
-0.205,0.125,4391.666666666667
-0.195,0.12,4394.444444444444
-0.185,0.08,4397.222222222223
-0.19,0.075,4400.0
-0.19,0.075,4402.777777777777
-0.17,0.11,4405.555555555556
-0.155,0.115,4408.333333333333
-0.16,0.105,4411.111111111111
-0.16,0.08,4413.888888888889
-0.16,0.09,4416.666666666667
-0.175,0.105,4419.444444444444
-0.155,0.115,4422.222222222223
-0.15,0.135,4425.0
-0.155,0.14,4427.777777777777
-0.15,0.115,4430.555555555556
-0.16,0.105,4433.333333333333
-0.15,0.12,4436.111111111111
-0.145,0.135,4438.888888888889
-0.105,0.135,4441.666666666667
-0.115,0.13,4444.444444444444
-0.12,0.12,4447.222222222223
-0.105,0.14,4450.0
-0.085,0.14,4452.777777777777
-0.06,0.135,4455.555555555556
-0.055,0.17,4458.333333333333
-0.045,0.18,4461.111111111111
-0.045,0.175,4463.888888888889
-0.035,0.16,4466.666666666667
-0.015,0.135,4469.444444444444
0.005,0.15,4472.222222222223
0.03,0.155,4475.0
0.025,0.145,4477.777777777777
0.025,0.135,4480.555555555556
0.01,0.115,4483.333333333333
0.045,0.16,4486.111111111111
0.075,0.18,4488.888888888889
0.09,0.16,4491.666666666667
0.105,0.14,4494.444444444444
0.085,0.12,4497.222222222223
0.095,0.13,4500.0
0.11,0.135,4502.777777777777
0.12,0.15,4505.555555555556
0.145,0.15,4508.333333333333
0.13,0.15,4511.111111111111
0.14,0.14,4513.888888888889
0.145,0.155,4516.666666666667
0.135,0.175,4519.444444444444
0.155,0.19,4522.222222222223
0.17,0.195,4525.0
0.165,0.21,4527.777777777777
0.145,0.215,4530.555555555556
0.13,0.22,4533.333333333333
0.135,0.22,4536.111111111111
0.155,0.21,4538.888888888889
0.155,0.19,4541.666666666667
0.155,0.2,4544.444444444444
0.15,0.215,4547.222222222223
0.14,0.225,4550.0
0.15,0.18,4552.777777777777
0.16,0.135,4555.555555555556
0.165,0.09,4558.333333333333
0.145,0.085,4561.111111111111
0.11,0.1,4563.888888888889
0.09,0.115,4566.666666666667
0.075,0.14,4569.444444444444
0.065,0.15,4572.222222222223
0.065,0.16,4575.0
0.045,0.15,4577.777777777777
0.02,0.145,4580.555555555556
-0.015,0.145,4583.333333333333
-0.04,0.14,4586.111111111111
-0.035,0.145,4588.888888888889
-0.025,0.135,4591.666666666667
-0.04,0.145,4594.444444444444
-0.065,0.14,4597.222222222223
-0.095,0.125,4600.0
-0.09,0.135,4602.777777777777
-0.055,0.14,4605.555555555556
-0.05,0.16,4608.333333333333
-0.07,0.145,4611.111111111111
-0.08,0.135,4613.888888888889
-0.08,0.135,4616.666666666667
-0.08,0.17,4619.444444444444
-0.08,0.19,4622.222222222223
-0.065,0.195,4625.0
-0.06,0.175,4627.777777777777
-0.07,0.135,4630.555555555556
-0.09,0.115,4633.333333333333
-0.085,0.105,4636.111111111111
-0.08,0.11,4638.888888888889
-0.065,0.11,4641.666666666667
-0.07,0.115,4644.444444444444
-0.08,0.135,4647.222222222223
-0.09,0.13,4650.0
-0.1,0.14,4652.777777777777
-0.1,0.155,4655.555555555556
-0.085,0.13,4658.333333333333
-0.09,0.115,4661.111111111111
-0.085,0.1,4663.888888888889
-0.105,0.1,4666.666666666667
-0.11,0.13,4669.444444444444
-0.085,0.155,4672.222222222223
-0.07,0.155,4675.0
-0.075,0.15,4677.777777777777
-0.09,0.155,4680.555555555556
-0.1,0.155,4683.333333333333
-0.09,0.16,4686.111111111111
-0.08,0.145,4688.888888888889
-0.065,0.135,4691.666666666667
-0.08,0.135,4694.444444444444
-0.075,0.14,4697.222222222223
-0.085,0.16,4700.0
-0.085,0.17,4702.777777777777
-0.07,0.175,4705.555555555556
-0.07,0.16,4708.333333333333
-0.09,0.145,4711.111111111111
-0.095,0.16,4713.888888888889
-0.09,0.18,4716.666666666667
-0.08,0.18,4719.444444444444
-0.065,0.17,4722.222222222223
-0.055,0.145,4725.0
-0.08,0.11,4727.777777777777
-0.08,0.125,4730.555555555556
-0.085,0.125,4733.333333333333
-0.065,0.135,4736.111111111111
-0.045,0.135,4738.888888888889
-0.035,0.135,4741.666666666667
-0.03,0.15,4744.444444444444
-0.025,0.17,4747.222222222223
-0.03,0.17,4750.0
-0.015,0.17,4752.777777777777
0.0,0.165,4755.555555555556
0.015,0.185,4758.333333333333
0.01,0.165,4761.111111111111
0.015,0.14,4763.888888888889
0.02,0.115,4766.666666666667
-0.005,0.115,4769.444444444444
-0.015,0.13,4772.222222222223
-0.015,0.125,4775.0
-0.025,0.12,4777.777777777777
-0.04,0.1,4780.555555555556
-0.055,0.105,4783.333333333333
-0.025,0.105,4786.111111111111
-0.015,0.12,4788.888888888889
-0.03,0.125,4791.666666666667
-0.035,0.125,4794.444444444444
-0.05,0.125,4797.222222222223
-0.045,0.11,4800.0
-0.07,0.12,4802.777777777777
-0.075,0.115,4805.555555555556
-0.055,0.135,4808.333333333333
-0.065,0.15,4811.111111111111
-0.08,0.125,4813.888888888889
-0.09,0.11,4816.666666666667
-0.1,0.135,4819.444444444444
-0.055,0.16,4822.222222222223
-0.045,0.175,4825.0
-0.055,0.12,4827.777777777777
-0.06,0.095,4830.555555555556
-0.065,0.075,4833.333333333333
-0.075,0.08,4836.111111111111
-0.07,0.085,4838.888888888889
-0.095,0.07,4841.666666666667
-0.11,0.075,4844.444444444444
-0.15,0.08,4847.222222222223
-0.155,0.1,4850.0
-0.155,0.125,4852.777777777777
-0.13,0.145,4855.555555555556
-0.125,0.125,4858.333333333333
-0.125,0.135,4861.111111111111
-0.13,0.145,4863.888888888889
-0.135,0.13,4866.666666666667
-0.145,0.16,4869.444444444444
-0.13,0.16,4872.222222222223
-0.105,0.165,4875.0
-0.11,0.14,4877.777777777777
-0.135,0.13,4880.555555555556
-0.145,0.155,4883.333333333333
-0.135,0.2,4886.111111111111
-0.115,0.185,4888.888888888889
-0.1,0.15,4891.666666666667
-0.12,0.125,4894.444444444444
-0.155,0.115,4897.222222222223
-0.185,0.135,4900.0
-0.215,0.185,4902.777777777777
-0.195,0.24,4905.555555555556
-0.155,0.25,4908.333333333333
-0.065,0.255,4911.111111111111
0.075,0.275,4913.888888888889
0.26,0.31,4916.666666666667
0.535,0.345,4919.444444444444
0.855,0.35,4922.222222222223
1.165,0.285,4925.0
1.395,0.165,4927.777777777777
1.37,0.02,4930.555555555556
1.045,-0.06,4933.333333333333
0.51,-0.08,4936.111111111111
-0.11,-0.05,4938.888888888889
-0.595,-0.055,4941.666666666667
-0.765,-0.085,4944.444444444444
-0.665,-0.085,4947.222222222223
-0.475,-0.075,4950.0
-0.325,-0.035,4952.777777777777
-0.245,0.015,4955.555555555556
-0.2,0.065,4958.333333333333
-0.17,0.085,4961.111111111111
-0.17,0.09,4963.888888888889
-0.165,0.125,4966.666666666667
-0.17,0.145,4969.444444444444
-0.17,0.16,4972.222222222223
-0.155,0.13,4975.0
-0.15,0.13,4977.777777777777
-0.16,0.14,4980.555555555556
-0.165,0.125,4983.333333333333
-0.16,0.13,4986.111111111111
-0.155,0.145,4988.888888888889
-0.125,0.155,4991.666666666667
-0.12,0.15,4994.444444444444
-0.125,0.12,4997.222222222223
-0.15,0.145,5000.0
-0.165,0.16,5002.777777777777
-0.135,0.165,5005.555555555556
-0.125,0.14,5008.333333333333
-0.115,0.1,5011.111111111111
-0.125,0.085,5013.888888888889
-0.135,0.095,5016.666666666667
-0.14,0.12,5019.444444444444
-0.125,0.14,5022.222222222223
-0.12,0.14,5025.0
-0.125,0.125,5027.777777777777
-0.13,0.11,5030.555555555556
-0.13,0.13,5033.333333333333
-0.12,0.145,5036.111111111111
-0.11,0.165,5038.888888888889
-0.08,0.165,5041.666666666667
-0.08,0.16,5044.444444444444
-0.08,0.15,5047.222222222223
-0.075,0.155,5050.0
-0.065,0.15,5052.777777777777
-0.065,0.155,5055.555555555556
-0.04,0.15,5058.333333333333
-0.04,0.165,5061.111111111111
-0.04,0.15,5063.888888888889
-0.04,0.14,5066.666666666667
-0.03,0.175,5069.444444444444
0.005,0.205,5072.222222222223
0.035,0.22,5075.0
0.035,0.2,5077.777777777777
0.05,0.16,5080.555555555556
0.045,0.155,5083.333333333333
0.065,0.155,5086.111111111111
0.095,0.145,5088.888888888889
0.105,0.15,5091.666666666667
0.105,0.16,5094.444444444444
0.105,0.155,5097.222222222223
0.105,0.16,5100.0
0.115,0.16,5102.777777777777
0.145,0.16,5105.555555555556
0.155,0.165,5108.333333333333
0.16,0.16,5111.111111111111
0.155,0.155,5113.888888888889
0.14,0.155,5116.666666666667
0.14,0.185,5119.444444444444
0.15,0.215,5122.222222222223
0.18,0.21,5125.0
0.185,0.19,5127.777777777777
0.18,0.16,5130.555555555556
0.16,0.17,5133.333333333333
0.165,0.175,5136.111111111111
0.185,0.205,5138.888888888889
0.2,0.22,5141.666666666667
0.195,0.195,5144.444444444444
0.19,0.185,5147.222222222223
0.18,0.175,5150.0
0.165,0.19,5152.777777777777
0.16,0.2,5155.555555555556
0.16,0.185,5158.333333333333
0.155,0.15,5161.111111111111
0.125,0.13,5163.888888888889
0.115,0.125,5166.666666666667
0.11,0.165,5169.444444444444
0.115,0.165,5172.222222222223
0.105,0.165,5175.0
0.07,0.16,5177.777777777777
0.04,0.165,5180.555555555556
0.025,0.165,5183.333333333333
0.005,0.175,5186.111111111111
0.0,0.175,5188.888888888889
-0.005,0.165,5191.666666666667
-0.01,0.155,5194.444444444444
-0.05,0.145,5197.222222222223
-0.05,0.14,5200.0
-0.055,0.15,5202.777777777777
-0.05,0.155,5205.555555555556
-0.06,0.165,5208.333333333333
-0.065,0.17,5211.111111111111
-0.09,0.145,5213.888888888889
-0.09,0.135,5216.666666666667
-0.08,0.14,5219.444444444444
-0.065,0.15,5222.222222222223
-0.07,0.15,5225.0
-0.065,0.155,5227.777777777777
-0.09,0.145,5230.555555555556
-0.105,0.145,5233.333333333333
-0.115,0.165,5236.111111111111
-0.1,0.18,5238.888888888889
-0.09,0.17,5241.666666666667
-0.095,0.15,5244.444444444444
-0.11,0.12,5247.222222222223
-0.115,0.12,5250.0
-0.115,0.13,5252.777777777777
-0.105,0.125,5255.555555555556
-0.095,0.13,5258.333333333333
-0.09,0.125,5261.111111111111
-0.095,0.11,5263.888888888889
-0.105,0.105,5266.666666666667
-0.11,0.1,5269.444444444444
-0.105,0.125,5272.222222222223
-0.1,0.13,5275.0
-0.1,0.135,5277.777777777777
-0.11,0.125,5280.555555555556
-0.125,0.115,5283.333333333333
-0.125,0.115,5286.111111111111
-0.125,0.125,5288.888888888889
-0.105,0.13,5291.666666666667
-0.11,0.145,5294.444444444444
-0.13,0.145,5297.222222222223
-0.145,0.135,5300.0
-0.135,0.135,5302.777777777777
-0.13,0.14,5305.555555555556
-0.12,0.165,5308.333333333333
-0.125,0.16,5311.111111111111
-0.14,0.175,5313.888888888889
-0.14,0.185,5316.666666666667
-0.125,0.205,5319.444444444444
-0.1,0.18,5322.222222222223
-0.1,0.155,5325.0
-0.115,0.14,5327.777777777777
-0.115,0.155,5330.555555555556
-0.11,0.135,5333.333333333333
-0.11,0.12,5336.111111111111
-0.1,0.12,5338.888888888889
-0.08,0.11,5341.666666666667
-0.085,0.12,5344.444444444444
-0.09,0.11,5347.222222222223
-0.085,0.105,5350.0
-0.075,0.125,5352.777777777777
-0.06,0.14,5355.555555555556
-0.05,0.16,5358.333333333333
-0.04,0.165,5361.111111111111
-0.05,0.165,5363.888888888889
-0.065,0.145,5366.666666666667
-0.05,0.14,5369.444444444444
-0.03,0.14,5372.222222222223
-0.015,0.14,5375.0
-0.015,0.14,5377.777777777777
-0.04,0.135,5380.555555555556
-0.045,0.12,5383.333333333333
-0.045,0.115,5386.111111111111
-0.05,0.125,5388.888888888889
-0.04,0.13,5391.666666666667
-0.06,0.115,5394.444444444444
-0.055,0.105,5397.222222222223
-0.07,0.1,5400.0
-0.07,0.1,5402.777777777777
-0.055,0.095,5405.555555555556
-0.055,0.075,5408.333333333333
-0.06,0.07,5411.111111111111
-0.09,0.06,5413.888888888889
-0.11,0.06,5416.666666666667
-0.115,0.07,5419.444444444444
-0.115,0.105,5422.222222222223
-0.105,0.125,5425.0
-0.095,0.135,5427.777777777777
-0.11,0.125,5430.555555555556
-0.115,0.11,5433.333333333333
-0.095,0.085,5436.111111111111
-0.065,0.08,5438.888888888889
-0.06,0.065,5441.666666666667
-0.075,0.065,5444.444444444444
-0.1,0.08,5447.222222222223
-0.115,0.075,5450.0
-0.145,0.1,5452.777777777777
-0.155,0.115,5455.555555555556
-0.16,0.12,5458.333333333333
-0.165,0.12,5461.111111111111
-0.19,0.1,5463.888888888889
-0.2,0.125,5466.666666666667
-0.185,0.14,5469.444444444444
-0.185,0.17,5472.222222222223
-0.16,0.18,5475.0
-0.17,0.145,5477.777777777777
-0.175,0.11,5480.555555555556
-0.175,0.11,5483.333333333333
-0.2,0.115,5486.111111111111
-0.17,0.135,5488.888888888889
-0.165,0.13,5491.666666666667
-0.17,0.125,5494.444444444444
-0.17,0.105,5497.222222222223
-0.18,0.1,5500.0
-0.19,0.12,5502.777777777777
-0.165,0.145,5505.555555555556
-0.16,0.145,5508.333333333333
-0.18,0.13,5511.111111111111
-0.195,0.125,5513.888888888889
-0.205,0.115,5516.666666666667
-0.22,0.12,5519.444444444444
-0.255,0.135,5522.222222222223
-0.28,0.18,5525.0
-0.27,0.215,5527.777777777777
-0.245,0.215,5530.555555555556
-0.185,0.225,5533.333333333333
-0.06,0.245,5536.111111111111
0.12,0.28,5538.888888888889
0.345,0.295,5541.666666666667
0.58,0.315,5544.444444444444
0.83,0.3,5547.222222222223
1.075,0.25,5550.0
1.235,0.195,5552.777777777777
1.285,0.105,5555.555555555556
1.15,0.01,5558.333333333333
0.88,-0.075,5561.111111111111
0.515,-0.105,5563.888888888889
0.12,-0.1,5566.666666666667
-0.32,-0.09,5569.444444444444
-0.68,-0.1,5572.222222222223
-0.81,-0.11,5575.0
-0.76,-0.11,5577.777777777777
-0.655,-0.105,5580.555555555556
-0.565,-0.095,5583.333333333333
-0.485,-0.045,5586.111111111111
-0.395,0.025,5588.888888888889
-0.325,0.05,5591.666666666667
-0.285,0.06,5594.444444444444
-0.265,0.055,5597.222222222223
-0.24,0.085,5600.0
-0.215,0.115,5602.777777777777
-0.2,0.15,5605.555555555556
-0.215,0.15,5608.333333333333
-0.225,0.14,5611.111111111111
-0.235,0.115,5613.888888888889
-0.235,0.125,5616.666666666667
-0.245,0.12,5619.444444444444
-0.24,0.145,5622.222222222223
-0.215,0.125,5625.0
-0.215,0.1,5627.777777777777
-0.225,0.06,5630.555555555556
-0.225,0.06,5633.333333333333
-0.23,0.09,5636.111111111111
-0.215,0.115,5638.888888888889
-0.195,0.13,5641.666666666667
-0.21,0.115,5644.444444444444
-0.21,0.1,5647.222222222223
-0.21,0.1,5650.0
-0.215,0.11,5652.777777777777
-0.2,0.135,5655.555555555556
-0.18,0.14,5658.333333333333
-0.19,0.125,5661.111111111111
-0.2,0.11,5663.888888888889
-0.205,0.11,5666.666666666667
-0.21,0.12,5669.444444444444
-0.19,0.125,5672.222222222223
-0.165,0.13,5675.0
-0.16,0.11,5677.777777777777
-0.175,0.11,5680.555555555556
-0.19,0.115,5683.333333333333
-0.165,0.13,5686.111111111111
-0.145,0.13,5688.888888888889
-0.13,0.16,5691.666666666667
-0.125,0.135,5694.444444444444
-0.145,0.11,5697.222222222223
-0.15,0.1,5700.0
-0.14,0.125,5702.777777777777
-0.12,0.135,5705.555555555556
-0.1,0.15,5708.333333333333
-0.1,0.14,5711.111111111111
-0.1,0.13,5713.888888888889
-0.105,0.15,5716.666666666667
-0.1,0.175,5719.444444444444
-0.08,0.215,5722.222222222223
-0.06,0.245,5725.0
-0.05,0.225,5727.777777777777
-0.05,0.19,5730.555555555556
-0.03,0.18,5733.333333333333
-0.015,0.17,5736.111111111111
0.005,0.17,5738.888888888889
-0.01,0.17,5741.666666666667
0.02,0.17,5744.444444444444
0.02,0.155,5747.222222222223
0.025,0.165,5750.0
0.045,0.165,5752.777777777777
0.075,0.16,5755.555555555556
0.09,0.15,5758.333333333333
0.1,0.135,5761.111111111111
0.095,0.12,5763.888888888889
0.09,0.13,5766.666666666667
0.095,0.145,5769.444444444444
0.11,0.16,5772.222222222223
0.115,0.165,5775.0
0.115,0.15,5777.777777777777
0.115,0.145,5780.555555555556
0.1,0.17,5783.333333333333
0.115,0.165,5786.111111111111
0.125,0.17,5788.888888888889
0.145,0.155,5791.666666666667
0.125,0.15,5794.444444444444
0.115,0.135,5797.222222222223
0.105,0.145,5800.0
0.095,0.16,5802.777777777777
0.1,0.175,5805.555555555556
0.11,0.185,5808.333333333333
0.1,0.18,5811.111111111111
0.09,0.17,5813.888888888889
0.075,0.185,5816.666666666667
0.065,0.205,5819.444444444444
0.045,0.21,5822.222222222223
0.045,0.215,5825.0
0.025,0.195,5827.777777777777
0.01,0.165,5830.555555555556
-0.02,0.145,5833.333333333333
-0.03,0.155,5836.111111111111
-0.04,0.155,5838.888888888889
-0.05,0.18,5841.666666666667
-0.07,0.18,5844.444444444444
-0.085,0.175,5847.222222222223
-0.09,0.155,5850.0
-0.095,0.135,5852.777777777777
-0.1,0.12,5855.555555555556
-0.09,0.115,5858.333333333333
-0.13,0.12,5861.111111111111
-0.15,0.12,5863.888888888889
-0.14,0.115,5866.666666666667
-0.14,0.13,5869.444444444444
-0.125,0.135,5872.222222222223
-0.135,0.135,5875.0
-0.155,0.115,5877.777777777777
-0.155,0.105,5880.555555555556
-0.165,0.115,5883.333333333333
-0.16,0.13,5886.111111111111
-0.16,0.165,5888.888888888889
-0.15,0.175,5891.666666666667
-0.17,0.155,5894.444444444444
-0.165,0.15,5897.222222222223
-0.18,0.145,5900.0
-0.175,0.17,5902.777777777777
-0.175,0.17,5905.555555555556
-0.135,0.14,5908.333333333333
-0.14,0.1,5911.111111111111
-0.165,0.08,5913.888888888889
-0.175,0.085,5916.666666666667
-0.185,0.105,5919.444444444444
-0.16,0.11,5922.222222222223
-0.165,0.12,5925.0
-0.155,0.14,5927.777777777777
-0.175,0.13,5930.555555555556
-0.2,0.135,5933.333333333333
-0.19,0.14,5936.111111111111
-0.175,0.155,5938.888888888889
-0.16,0.155,5941.666666666667
-0.155,0.13,5944.444444444444
-0.155,0.105,5947.222222222223
-0.165,0.105,5950.0
-0.165,0.095,5952.777777777777
-0.16,0.12,5955.555555555556
-0.16,0.125,5958.333333333333
-0.15,0.125,5961.111111111111
-0.17,0.11,5963.888888888889
-0.17,0.1,5966.666666666667
-0.165,0.115,5969.444444444444
-0.17,0.125,5972.222222222223
-0.17,0.13,5975.0
-0.165,0.11,5977.777777777777
-0.175,0.105,5980.555555555556
-0.165,0.11,5983.333333333333
-0.16,0.125,5986.111111111111
-0.15,0.13,5988.888888888889
-0.14,0.12,5991.666666666667
-0.13,0.1,5994.444444444444
-0.145,0.095,5997.222222222223
-0.165,0.1,6000.0
-0.155,0.115,6002.777777777777
-0.135,0.12,6005.555555555556
-0.14,0.115,6008.333333333333
-0.13,0.11,6011.111111111111
-0.135,0.11,6013.888888888889
-0.13,0.12,6016.666666666667
-0.12,0.13,6019.444444444444
-0.105,0.135,6022.222222222223
-0.115,0.16,6025.0
-0.115,0.165,6027.777777777777
-0.12,0.165,6030.555555555556
-0.115,0.165,6033.333333333333
-0.1,0.175,6036.111111111111
-0.09,0.18,6038.888888888889
-0.085,0.16,6041.666666666667
-0.1,0.12,6044.444444444444
-0.115,0.085,6047.222222222223
-0.12,0.075,6050.0
-0.12,0.08,6052.777777777777
-0.1,0.115,6055.555555555556
-0.1,0.145,6058.333333333333
-0.11,0.135,6061.111111111111
-0.13,0.13,6063.888888888889
-0.135,0.125,6066.666666666667
-0.135,0.07,6069.444444444444
-0.12,0.035,6072.222222222223
-0.12,0.025,6075.0
-0.14,0.02,6077.777777777777
-0.155,0.0,6080.555555555556
-0.165,0.01,6083.333333333333
-0.17,0.025,6086.111111111111
-0.155,0.04,6088.888888888889
-0.155,0.06,6091.666666666667
-0.16,0.065,6094.444444444444
-0.155,0.045,6097.222222222223
-0.155,0.055,6100.0
-0.16,0.08,6102.777777777777
-0.15,0.095,6105.555555555556
-0.16,0.095,6108.333333333333
-0.185,0.085,6111.111111111111
-0.22,0.085,6113.888888888889
-0.24,0.08,6116.666666666667
-0.24,0.1,6119.444444444444
-0.235,0.105,6122.222222222223
-0.225,0.12,6125.0
-0.23,0.125,6127.777777777777
-0.235,0.12,6130.555555555556
-0.245,0.12,6133.333333333333
-0.245,0.13,6136.111111111111
-0.22,0.16,6138.888888888889
-0.21,0.15,6141.666666666667
-0.215,0.135,6144.444444444444
-0.23,0.1,6147.222222222223
-0.255,0.1,6150.0
-0.25,0.135,6152.777777777777
-0.255,0.175,6155.555555555556
-0.235,0.18,6158.333333333333
-0.23,0.15,6161.111111111111
-0.255,0.12,6163.888888888889
-0.24,0.105,6166.666666666667
-0.235,0.1,6169.444444444444
-0.23,0.1,6172.222222222223
-0.24,0.09,6175.0
-0.255,0.105,6177.777777777777
-0.285,0.125,6180.555555555556
-0.32,0.17,6183.333333333333
-0.325,0.225,6186.111111111111
-0.285,0.26,6188.888888888889
-0.2,0.275,6191.666666666667
-0.105,0.26,6194.444444444444
0.025,0.22,6197.222222222223
0.195,0.205,6200.0
0.445,0.205,6202.777777777777
0.71,0.245,6205.555555555556
0.97,0.24,6208.333333333333
1.145,0.185,6211.111111111111
1.215,0.11,6213.888888888889
1.095,0.005,6216.666666666667
0.815,-0.09,6219.444444444444
0.45,-0.11,6222.222222222223
0.045,-0.105,6225.0
-0.4,-0.115,6227.777777777777
-0.765,-0.13,6230.555555555556
-0.9,-0.145,6233.333333333333
-0.835,-0.12,6236.111111111111
-0.72,-0.105,6238.888888888889
-0.615,-0.065,6241.666666666667
-0.515,-0.055,6244.444444444444
-0.42,-0.045,6247.222222222223
-0.375,-0.025,6250.0
-0.35,0.015,6252.777777777777
-0.31,0.06,6255.555555555556
-0.295,0.09,6258.333333333333
-0.27,0.095,6261.111111111111
-0.28,0.115,6263.888888888889
-0.29,0.13,6266.666666666667
-0.295,0.14,6269.444444444444
-0.265,0.135,6272.222222222223
-0.25,0.105,6275.0
-0.25,0.09,6277.777777777777
-0.25,0.075,6280.555555555556
-0.26,0.08,6283.333333333333
-0.26,0.12,6286.111111111111
-0.245,0.14,6288.888888888889
-0.245,0.135,6291.666666666667
-0.26,0.13,6294.444444444444
-0.25,0.105,6297.222222222223
-0.265,0.1,6300.0
-0.255,0.1,6302.777777777777
-0.255,0.095,6305.555555555556
-0.25,0.105,6308.333333333333
-0.255,0.115,6311.111111111111
-0.245,0.115,6313.888888888889
-0.225,0.115,6316.666666666667
-0.21,0.115,6319.444444444444
-0.215,0.115,6322.222222222223
-0.195,0.11,6325.0
-0.2,0.115,6327.777777777777
-0.2,0.105,6330.555555555556
-0.2,0.105,6333.333333333333
-0.2,0.12,6336.111111111111
-0.19,0.135,6338.888888888889
-0.185,0.13,6341.666666666667
-0.195,0.145,6344.444444444444
-0.19,0.165,6347.222222222223
-0.185,0.185,6350.0
-0.165,0.175,6352.777777777777
-0.165,0.21,6355.555555555556
-0.155,0.18,6358.333333333333
-0.135,0.155,6361.111111111111
-0.125,0.125,6363.888888888889
-0.115,0.11,6366.666666666667
-0.095,0.1,6369.444444444444
-0.08,0.12,6372.222222222223
-0.07,0.125,6375.0
-0.065,0.125,6377.777777777777
-0.065,0.12,6380.555555555556
-0.075,0.135,6383.333333333333
-0.06,0.165,6386.111111111111
-0.03,0.18,6388.888888888889
-0.02,0.2,6391.666666666667
-0.015,0.21,6394.444444444444
-0.005,0.185,6397.222222222223
0.0,0.16,6400.0
0.015,0.165,6402.777777777777
0.025,0.155,6405.555555555556
0.04,0.175,6408.333333333333
0.04,0.185,6411.111111111111
0.045,0.185,6413.888888888889
0.055,0.175,6416.666666666667
0.065,0.16,6419.444444444444
0.075,0.14,6422.222222222223
0.095,0.13,6425.0
0.085,0.135,6427.777777777777
0.075,0.125,6430.555555555556
0.06,0.155,6433.333333333333
0.07,0.17,6436.111111111111
0.09,0.195,6438.888888888889
0.09,0.165,6441.666666666667
0.1,0.155,6444.444444444444
0.08,0.15,6447.222222222223
0.065,0.16,6450.0
0.075,0.18,6452.777777777777
0.075,0.19,6455.555555555556
0.095,0.18,6458.333333333333
0.055,0.155,6461.111111111111
0.04,0.145,6463.888888888889
0.045,0.15,6466.666666666667
0.04,0.16,6469.444444444444
0.045,0.175,6472.222222222223
0.035,0.17,6475.0
0.01,0.16,6477.777777777777
-0.015,0.14,6480.555555555556
-0.03,0.15,6483.333333333333
-0.04,0.155,6486.111111111111
-0.04,0.16,6488.888888888889
-0.04,0.15,6491.666666666667
-0.065,0.135,6494.444444444444
-0.1,0.12,6497.222222222223
-0.12,0.115,6500.0
-0.11,0.12,6502.777777777777
-0.115,0.12,6505.555555555556
-0.135,0.11,6508.333333333333
-0.135,0.105,6511.111111111111
-0.155,0.095,6513.888888888889
-0.17,0.125,6516.666666666667
-0.18,0.145,6519.444444444444
-0.16,0.155,6522.222222222223
-0.17,0.135,6525.0
-0.18,0.135,6527.777777777777
-0.185,0.125,6530.555555555556
-0.205,0.135,6533.333333333333
-0.195,0.135,6536.111111111111
-0.175,0.16,6538.888888888889
-0.175,0.15,6541.666666666667
-0.17,0.155,6544.444444444444
-0.19,0.13,6547.222222222223
-0.19,0.145,6550.0
-0.2,0.165,6552.777777777777
-0.19,0.17,6555.555555555556
-0.18,0.14,6558.333333333333
-0.17,0.095,6561.111111111111
-0.175,0.065,6563.888888888889
-0.185,0.07,6566.666666666667
-0.185,0.075,6569.444444444444
-0.16,0.095,6572.222222222223
-0.155,0.075,6575.0
-0.18,0.075,6577.777777777777
-0.21,0.075,6580.555555555556
-0.235,0.1,6583.333333333333
-0.21,0.11,6586.111111111111
-0.2,0.115,6588.888888888889
-0.18,0.115,6591.666666666667
-0.2,0.115,6594.444444444444
-0.205,0.11,6597.222222222223
-0.215,0.14,6600.0
-0.21,0.125,6602.777777777777
-0.18,0.115,6605.555555555556
-0.17,0.13,6608.333333333333
-0.18,0.09,6611.111111111111
-0.205,0.08,6613.888888888889
-0.205,0.095,6616.666666666667
-0.19,0.105,6619.444444444444
-0.2,0.13,6622.222222222223
-0.19,0.14,6625.0
-0.2,0.15,6627.777777777777
-0.195,0.13,6630.555555555556
-0.21,0.13,6633.333333333333
-0.22,0.135,6636.111111111111
-0.195,0.15,6638.888888888889
-0.195,0.165,6641.666666666667
-0.195,0.155,6644.444444444444
-0.205,0.135,6647.222222222223
-0.235,0.115,6650.0
-0.22,0.105,6652.777777777777
-0.195,0.105,6655.555555555556
-0.18,0.095,6658.333333333333
-0.175,0.085,6661.111111111111
-0.19,0.08,6663.888888888889
-0.2,0.065,6666.666666666667
-0.195,0.075,6669.444444444444
-0.185,0.1,6672.222222222223
-0.175,0.11,6675.0
-0.165,0.14,6677.777777777777
-0.16,0.155,6680.555555555556
-0.155,0.165,6683.333333333333
-0.175,0.175,6686.111111111111
-0.15,0.17,6688.888888888889
-0.14,0.15,6691.666666666667
-0.155,0.115,6694.444444444444
-0.145,0.105,6697.222222222223
-0.165,0.115,6700.0
-0.135,0.095,6702.777777777777
-0.13,0.09,6705.555555555556
-0.12,0.055,6708.333333333333
-0.135,0.03,6711.111111111111
-0.155,0.035,6713.888888888889
-0.165,0.04,6716.666666666667
-0.165,0.065,6719.444444444444
-0.15,0.055,6722.222222222223
-0.17,0.05,6725.0
-0.165,0.04,6727.777777777777
-0.175,0.035,6730.555555555556
-0.195,0.055,6733.333333333333
-0.195,0.06,6736.111111111111
-0.195,0.045,6738.888888888889
-0.205,0.015,6741.666666666667
-0.195,-0.005,6744.444444444444
-0.205,-0.005,6747.222222222223
-0.21,0.0,6750.0
-0.215,0.0,6752.777777777777
-0.215,0.035,6755.555555555556
-0.195,0.035,6758.333333333333
-0.195,0.08,6761.111111111111
-0.215,0.085,6763.888888888889
-0.225,0.1,6766.666666666667
-0.245,0.12,6769.444444444444
-0.225,0.14,6772.222222222223
-0.235,0.145,6775.0
-0.25,0.125,6777.777777777777
-0.275,0.09,6780.555555555556
-0.3,0.075,6783.333333333333
-0.3,0.075,6786.111111111111
-0.28,0.085,6788.888888888889
-0.265,0.085,6791.666666666667
-0.275,0.09,6794.444444444444
-0.285,0.085,6797.222222222223
-0.295,0.085,6800.0
-0.295,0.1,6802.777777777777
-0.275,0.12,6805.555555555556
-0.265,0.11,6808.333333333333
-0.265,0.11,6811.111111111111
-0.285,0.105,6813.888888888889
-0.305,0.09,6816.666666666667
-0.29,0.07,6819.444444444444
-0.285,0.075,6822.222222222223
-0.27,0.07,6825.0
-0.265,0.085,6827.777777777777
-0.285,0.065,6830.555555555556
-0.285,0.065,6833.333333333333
-0.275,0.075,6836.111111111111
-0.26,0.085,6838.888888888889
-0.27,0.085,6841.666666666667
-0.295,0.1,6844.444444444444
-0.33,0.11,6847.222222222223
-0.37,0.145,6850.0
-0.37,0.19,6852.777777777777
-0.33,0.21,6855.555555555556
-0.265,0.21,6858.333333333333
-0.18,0.215,6861.111111111111
-0.04,0.205,6863.888888888889
0.12,0.205,6866.666666666667
0.35,0.22,6869.444444444444
0.61,0.23,6872.222222222223
0.825,0.22,6875.0
1.025,0.16,6877.777777777777
1.105,0.075,6880.555555555556
1.015,-0.01,6883.333333333333
0.79,-0.105,6886.111111111111
0.485,-0.145,6888.888888888889
0.115,-0.145,6891.666666666667
-0.335,-0.125,6894.444444444444
-0.75,-0.13,6897.222222222223
-0.94,-0.145,6900.0
-0.905,-0.155,6902.777777777777
-0.8,-0.145,6905.555555555556
-0.68,-0.135,6908.333333333333
-0.57,-0.11,6911.111111111111
-0.475,-0.08,6913.888888888889
-0.435,-0.045,6916.666666666667
-0.385,0.0,6919.444444444444
-0.35,0.03,6922.222222222223
-0.32,0.035,6925.0
-0.305,0.03,6927.777777777777
-0.315,0.045,6930.555555555556
-0.335,0.035,6933.333333333333
-0.33,0.055,6936.111111111111
-0.32,0.075,6938.888888888889
-0.32,0.07,6941.666666666667
-0.32,0.065,6944.444444444444
-0.33,0.07,6947.222222222223
-0.325,0.075,6950.0
-0.32,0.09,6952.777777777777
-0.315,0.105,6955.555555555556
-0.305,0.1,6958.333333333333
-0.285,0.115,6961.111111111111
-0.29,0.12,6963.888888888889
-0.3,0.11,6966.666666666667
-0.315,0.11,6969.444444444444
-0.315,0.105,6972.222222222223
-0.29,0.12,6975.0
-0.27,0.105,6977.777777777777
-0.265,0.075,6980.555555555556
-0.27,0.06,6983.333333333333
-0.26,0.07,6986.111111111111
-0.25,0.065,6988.888888888889
-0.245,0.09,6991.666666666667
-0.235,0.09,6994.444444444444
-0.25,0.085,6997.222222222223
-0.25,0.095,7000.0
-0.255,0.075,7002.777777777777
-0.24,0.085,7005.555555555556
-0.225,0.09,7008.333333333333
-0.23,0.11,7011.111111111111
-0.22,0.115,7013.888888888889
-0.24,0.105,7016.666666666667
-0.235,0.095,7019.444444444444
-0.215,0.08,7022.222222222223
-0.2,0.065,7025.0
-0.205,0.055,7027.777777777777
-0.185,0.045,7030.555555555556
-0.18,0.06,7033.333333333333
-0.165,0.06,7036.111111111111
-0.14,0.07,7038.888888888889
-0.135,0.095,7041.666666666667
-0.145,0.095,7044.444444444444
-0.145,0.095,7047.222222222223
-0.135,0.095,7050.0
-0.11,0.095,7052.777777777777
-0.08,0.1,7055.555555555556
-0.065,0.115,7058.333333333333
-0.06,0.125,7061.111111111111
-0.045,0.125,7063.888888888889
-0.04,0.115,7066.666666666667
-0.035,0.12,7069.444444444444
-0.02,0.145,7072.222222222223
0.0,0.13,7075.0
-0.005,0.12,7077.777777777777
0.005,0.08,7080.555555555556
0.0,0.065,7083.333333333333
-0.005,0.095,7086.111111111111
0.005,0.105,7088.888888888889
0.03,0.115,7091.666666666667
0.05,0.105,7094.444444444444
0.045,0.09,7097.222222222223
0.04,0.105,7100.0
0.04,0.12,7102.777777777777
0.06,0.155,7105.555555555556
0.05,0.17,7108.333333333333
0.035,0.18,7111.111111111111
0.035,0.16,7113.888888888889
0.035,0.125,7116.666666666667
0.06,0.105,7119.444444444444
0.07,0.09,7122.222222222223
0.075,0.09,7125.0
0.055,0.1,7127.777777777777
0.05,0.115,7130.555555555556
0.035,0.12,7133.333333333333
0.02,0.115,7136.111111111111
0.02,0.115,7138.888888888889
0.02,0.105,7141.666666666667
-0.005,0.105,7144.444444444444
-0.025,0.115,7147.222222222223
-0.045,0.1,7150.0
-0.095,0.095,7152.777777777777
-0.12,0.105,7155.555555555556
-0.115,0.11,7158.333333333333
-0.13,0.12,7161.111111111111
-0.14,0.09,7163.888888888889
-0.16,0.075,7166.666666666667
-0.19,0.055,7169.444444444444
-0.2,0.06,7172.222222222223
-0.2,0.07,7175.0
-0.205,0.07,7177.777777777777
-0.215,0.1,7180.555555555556
-0.22,0.105,7183.333333333333
-0.24,0.12,7186.111111111111
-0.225,0.105,7188.888888888889
-0.225,0.09,7191.666666666667
-0.23,0.075,7194.444444444444
-0.255,0.075,7197.222222222223
-0.25,0.075,7200.0
-0.25,0.085,7202.777777777777
-0.26,0.095,7205.555555555556
-0.255,0.095,7208.333333333333
-0.245,0.09,7211.111111111111
-0.24,0.085,7213.888888888889
-0.27,0.1,7216.666666666667
-0.255,0.135,7219.444444444444
-0.245,0.145,7222.222222222223
-0.235,0.13,7225.0
-0.23,0.09,7227.777777777777
-0.24,0.075,7230.555555555556
-0.26,0.085,7233.333333333333
-0.275,0.07,7236.111111111111
-0.27,0.055,7238.888888888889
-0.265,0.05,7241.666666666667
-0.24,0.02,7244.444444444444
-0.26,0.015,7247.222222222223
-0.275,0.015,7250.0
-0.265,0.035,7252.777777777777
-0.26,0.06,7255.555555555556
-0.26,0.075,7258.333333333333
-0.27,0.075,7261.111111111111
-0.25,0.08,7263.888888888889
-0.25,0.09,7266.666666666667
-0.245,0.09,7269.444444444444
-0.26,0.11,7272.222222222223
-0.25,0.105,7275.0
-0.26,0.085,7277.777777777777
-0.28,0.055,7280.555555555556
-0.275,0.05,7283.333333333333
-0.275,0.06,7286.111111111111
-0.275,0.065,7288.888888888889
-0.25,0.07,7291.666666666667
-0.255,0.07,7294.444444444444
-0.26,0.085,7297.222222222223
-0.265,0.095,7300.0
-0.25,0.105,7302.777777777777
-0.235,0.09,7305.555555555556
-0.215,0.075,7308.333333333333
-0.225,0.04,7311.111111111111
-0.235,0.02,7313.888888888889
-0.25,0.025,7316.666666666667
-0.24,0.045,7319.444444444444
-0.215,0.09,7322.222222222223
-0.19,0.095,7325.0
-0.175,0.085,7327.777777777777
-0.19,0.09,7330.555555555556
-0.2,0.1,7333.333333333333
-0.195,0.11,7336.111111111111
-0.17,0.105,7338.888888888889
-0.16,0.095,7341.666666666667
-0.17,0.085,7344.444444444444
-0.17,0.095,7347.222222222223
-0.18,0.095,7350.0
-0.17,0.11,7352.777777777777
-0.175,0.1,7355.555555555556
-0.165,0.075,7358.333333333333
-0.16,0.05,7361.111111111111
-0.175,0.03,7363.888888888889
-0.19,0.02,7366.666666666667
-0.195,0.02,7369.444444444444
-0.195,0.035,7372.222222222223
-0.175,0.035,7375.0
-0.195,0.025,7377.777777777777
-0.195,0.01,7380.555555555556
-0.22,0.005,7383.333333333333
-0.225,0.01,7386.111111111111
-0.225,0.035,7388.888888888889
-0.21,0.045,7391.666666666667
-0.205,0.025,7394.444444444444
-0.215,0.0,7397.222222222223
-0.225,0.005,7400.0
-0.22,0.025,7402.777777777777
-0.215,0.05,7405.555555555556
-0.19,0.045,7408.333333333333
-0.2,0.045,7411.111111111111
-0.215,0.04,7413.888888888889
-0.25,0.045,7416.666666666667
-0.275,0.07,7419.444444444444
-0.285,0.075,7422.222222222223
-0.3,0.065,7425.0
-0.28,0.06,7427.777777777777
-0.295,0.06,7430.555555555556
-0.295,0.06,7433.333333333333
-0.295,0.085,7436.111111111111
-0.29,0.105,7438.888888888889
-0.275,0.1,7441.666666666667
-0.285,0.07,7444.444444444444
-0.295,0.055,7447.222222222223
-0.3,0.07,7450.0
-0.305,0.08,7452.777777777777
-0.285,0.08,7455.555555555556
-0.27,0.04,7458.333333333333
-0.27,0.045,7461.111111111111
-0.3,0.045,7463.888888888889
-0.305,0.035,7466.666666666667
-0.3,0.055,7469.444444444444
-0.285,0.08,7472.222222222223
-0.27,0.095,7475.0
-0.28,0.08,7477.777777777777
-0.29,0.07,7480.555555555556
-0.32,0.07,7483.333333333333
-0.355,0.095,7486.111111111111
-0.365,0.13,7488.888888888889
-0.34,0.16,7491.666666666667
-0.305,0.155,7494.444444444444
-0.25,0.15,7497.222222222223
-0.155,0.15,7500.0
0.02,0.175,7502.777777777777
0.255,0.19,7505.555555555556
0.49,0.215,7508.333333333333
0.765,0.22,7511.111111111111
0.975,0.19,7513.888888888889
1.035,0.13,7516.666666666667
0.92,0.045,7519.444444444444
0.67,-0.05,7522.222222222223
0.33,-0.11,7525.0
-0.1,-0.13,7527.777777777777
-0.565,-0.135,7530.555555555556
-0.84,-0.125,7533.333333333333
-0.875,-0.105,7536.111111111111
-0.815,-0.08,7538.888888888889
-0.74,-0.09,7541.666666666667
-0.65,-0.085,7544.444444444444
-0.57,-0.085,7547.222222222223
-0.485,-0.075,7550.0
-0.435,-0.03,7552.777777777777
-0.385,0.025,7555.555555555556
-0.375,0.055,7558.333333333333
-0.34,0.065,7561.111111111111
-0.33,0.06,7563.888888888889
-0.315,0.055,7566.666666666667
-0.3,0.055,7569.444444444444
-0.3,0.055,7572.222222222223
-0.305,0.055,7575.0
-0.31,0.05,7577.777777777777
-0.295,0.055,7580.555555555556
-0.3,0.055,7583.333333333333
-0.315,0.06,7586.111111111111
-0.305,0.055,7588.888888888889
-0.29,0.06,7591.666666666667
-0.285,0.07,7594.444444444444
-0.295,0.09,7597.222222222223
-0.3,0.11,7600.0
-0.29,0.095,7602.777777777777
-0.265,0.07,7605.555555555556
-0.25,0.045,7608.333333333333
-0.24,0.02,7611.111111111111
-0.25,0.02,7613.888888888889
-0.255,0.035,7616.666666666667
-0.25,0.05,7619.444444444444
-0.24,0.065,7622.222222222223
-0.225,0.075,7625.0
-0.23,0.075,7627.777777777777
-0.22,0.075,7630.555555555556
-0.22,0.095,7633.333333333333
-0.215,0.13,7636.111111111111
-0.205,0.135,7638.888888888889
-0.195,0.12,7641.666666666667
-0.185,0.095,7644.444444444444
-0.175,0.07,7647.222222222223
-0.185,0.045,7650.0
-0.18,0.05,7652.777777777777
-0.155,0.05,7655.555555555556
-0.14,0.07,7658.333333333333
-0.155,0.07,7661.111111111111
-0.145,0.065,7663.888888888889
-0.125,0.06,7666.666666666667
-0.12,0.055,7669.444444444444
-0.12,0.065,7672.222222222223
-0.105,0.07,7675.0
-0.1,0.1,7677.777777777777
-0.095,0.1,7680.555555555556
-0.1,0.125,7683.333333333333
-0.095,0.12,7686.111111111111
-0.07,0.13,7688.888888888889
-0.035,0.11,7691.666666666667
-0.035,0.095,7694.444444444444
-0.035,0.085,7697.222222222223
-0.025,0.07,7700.0
-0.02,0.055,7702.777777777777
0.015,0.075,7705.555555555556
0.035,0.07,7708.333333333333
0.04,0.07,7711.111111111111
0.045,0.065,7713.888888888889
0.025,0.09,7716.666666666667
0.04,0.105,7719.444444444444
0.065,0.125,7722.222222222223
0.055,0.125,7725.0
0.065,0.125,7727.777777777777
0.055,0.125,7730.555555555556
0.045,0.115,7733.333333333333
0.07,0.13,7736.111111111111
0.08,0.13,7738.888888888889
0.075,0.135,7741.666666666667
0.07,0.145,7744.444444444444
0.07,0.165,7747.222222222223
0.065,0.165,7750.0
0.07,0.155,7752.777777777777
0.065,0.13,7755.555555555556
0.065,0.105,7758.333333333333
0.065,0.1,7761.111111111111
0.05,0.105,7763.888888888889
0.04,0.09,7766.666666666667
0.045,0.085,7769.444444444444
0.04,0.1,7772.222222222223
0.03,0.095,7775.0
0.025,0.115,7777.777777777777
0.0,0.13,7780.555555555556
-0.025,0.125,7783.333333333333
-0.03,0.13,7786.111111111111
-0.03,0.145,7788.888888888889
-0.04,0.12,7791.666666666667
-0.05,0.11,7794.444444444444
-0.085,0.08,7797.222222222223
-0.095,0.055,7800.0
-0.105,0.065,7802.777777777777
-0.11,0.09,7805.555555555556
-0.115,0.09,7808.333333333333
-0.115,0.08,7811.111111111111
-0.14,0.08,7813.888888888889
-0.165,0.085,7816.666666666667
-0.16,0.12,7819.444444444444
-0.15,0.14,7822.222222222223
-0.15,0.145,7825.0
-0.165,0.11,7827.777777777777
-0.17,0.07,7830.555555555556
-0.175,0.08,7833.333333333333
-0.175,0.09,7836.111111111111
-0.155,0.11,7838.888888888889
-0.15,0.12,7841.666666666667
-0.155,0.12,7844.444444444444
-0.165,0.075,7847.222222222223
-0.18,0.06,7850.0
-0.185,0.085,7852.777777777777
-0.18,0.1,7855.555555555556
-0.16,0.1,7858.333333333333
-0.16,0.095,7861.111111111111
-0.165,0.075,7863.888888888889
-0.175,0.065,7866.666666666667
-0.175,0.075,7869.444444444444
-0.155,0.095,7872.222222222223
-0.14,0.105,7875.0
-0.145,0.11,7877.777777777777
-0.15,0.095,7880.555555555556
-0.155,0.1,7883.333333333333
-0.155,0.105,7886.111111111111
-0.16,0.11,7888.888888888889
-0.15,0.11,7891.666666666667
-0.14,0.1,7894.444444444444
-0.16,0.095,7897.222222222223
-0.175,0.115,7900.0
-0.155,0.13,7902.777777777777
-0.14,0.145,7905.555555555556
-0.125,0.135,7908.333333333333
-0.11,0.105,7911.111111111111
-0.135,0.08,7913.888888888889
-0.15,0.09,7916.666666666667
-0.15,0.095,7919.444444444444
-0.14,0.12,7922.222222222223
-0.135,0.135,7925.0
-0.12,0.12,7927.777777777777
-0.125,0.09,7930.555555555556
-0.13,0.085,7933.333333333333
-0.14,0.1,7936.111111111111
-0.13,0.1,7938.888888888889
-0.13,0.085,7941.666666666667
-0.12,0.075,7944.444444444444
-0.14,0.095,7947.222222222223
-0.135,0.075,7950.0
-0.135,0.085,7952.777777777777
-0.115,0.115,7955.555555555556
-0.1,0.12,7958.333333333333
-0.075,0.12,7961.111111111111
-0.08,0.085,7963.888888888889
-0.08,0.095,7966.666666666667
-0.08,0.115,7969.444444444444
-0.075,0.14,7972.222222222223
-0.07,0.16,7975.0
-0.075,0.135,7977.777777777777
-0.065,0.11,7980.555555555556
-0.07,0.11,7983.333333333333
-0.065,0.115,7986.111111111111
-0.055,0.125,7988.888888888889
-0.055,0.12,7991.666666666667
-0.065,0.11,7994.444444444444
-0.08,0.095,7997.222222222223
-0.095,0.1,8000.0
-0.09,0.1,8002.777777777777
-0.08,0.095,8005.555555555556
-0.075,0.09,8008.333333333333
-0.065,0.08,8011.111111111111
-0.08,0.085,8013.888888888889
-0.095,0.09,8016.666666666667
-0.095,0.095,8019.444444444444
-0.09,0.085,8022.222222222223
-0.1,0.055,8025.0
-0.1,0.03,8027.777777777777
-0.13,0.03,8030.555555555556
-0.13,0.04,8033.333333333333
-0.135,0.065,8036.111111111111
-0.115,0.09,8038.888888888889
-0.095,0.105,8041.666666666667
-0.075,0.11,8044.444444444444
-0.07,0.1,8047.222222222223
-0.085,0.07,8050.0
-0.105,0.05,8052.777777777777
-0.125,0.065,8055.555555555556
-0.145,0.085,8058.333333333333
-0.16,0.085,8061.111111111111
-0.18,0.095,8063.888888888889
-0.185,0.115,8066.666666666667
-0.195,0.135,8069.444444444444
-0.165,0.165,8072.222222222223
-0.16,0.155,8075.0
-0.16,0.14,8077.777777777777
-0.18,0.11,8080.555555555556
-0.175,0.09,8083.333333333333
-0.175,0.12,8086.111111111111
-0.175,0.115,8088.888888888889
-0.16,0.12,8091.666666666667
-0.165,0.115,8094.444444444444
-0.18,0.105,8097.222222222223
-0.2,0.105,8100.0
-0.195,0.12,8102.777777777777
-0.18,0.145,8105.555555555556
-0.17,0.125,8108.333333333333
-0.165,0.12,8111.111111111111
-0.185,0.12,8113.888888888889
-0.2,0.14,8116.666666666667
-0.215,0.165,8119.444444444444
-0.225,0.19,8122.222222222223
-0.225,0.205,8125.0
-0.21,0.235,8127.777777777777
-0.155,0.26,8130.555555555556
-0.045,0.26,8133.333333333333
0.135,0.25,8136.111111111111
0.335,0.26,8138.888888888889
0.595,0.28,8141.666666666667
0.87,0.295,8144.444444444444
1.12,0.3,8147.222222222223
1.31,0.25,8150.0
1.355,0.165,8152.777777777777
1.195,0.05,8155.555555555556
0.835,-0.04,8158.333333333333
0.365,-0.09,8161.111111111111
-0.175,-0.09,8163.888888888889
-0.63,-0.09,8166.666666666667
-0.8,-0.095,8169.444444444444
-0.73,-0.11,8172.222222222223
-0.595,-0.11,8175.0
-0.465,-0.08,8177.777777777777
-0.38,-0.045,8180.555555555556
-0.335,0.0,8183.333333333333
-0.29,0.035,8186.111111111111
-0.24,0.085,8188.888888888889
-0.22,0.095,8191.666666666667
-0.22,0.12,8194.444444444445
-0.23,0.13,8197.222222222223
-0.245,0.155,8200.0
-0.225,0.155,8202.777777777777
-0.22,0.15,8205.555555555555
-0.21,0.13,8208.333333333334
-0.195,0.11,8211.111111111111
-0.205,0.095,8213.888888888889
-0.215,0.1,8216.666666666666
-0.225,0.125,8219.444444444445
-0.215,0.13,8222.222222222223
-0.2,0.14,8225.0
-0.2,0.15,8227.777777777777
-0.205,0.15,8230.555555555555
-0.205,0.155,8233.333333333334
-0.21,0.155,8236.111111111111
-0.2,0.135,8238.888888888889
-0.175,0.14,8241.666666666666
-0.17,0.14,8244.444444444445
-0.175,0.14,8247.222222222223
-0.165,0.12,8250.0
-0.155,0.1,8252.777777777777
-0.135,0.08,8255.555555555555
-0.13,0.095,8258.333333333334
-0.14,0.105,8261.111111111111
-0.15,0.105,8263.888888888889
-0.14,0.105,8266.666666666666
-0.14,0.115,8269.444444444445
-0.13,0.135,8272.222222222223
-0.12,0.135,8275.0
-0.115,0.155,8277.777777777777
-0.11,0.14,8280.555555555555
-0.11,0.145,8283.333333333334
-0.095,0.16,8286.111111111111
-0.095,0.185,8288.888888888889
-0.085,0.195,8291.666666666666
-0.075,0.185,8294.444444444445
-0.08,0.165,8297.222222222223
-0.07,0.145,8300.0
-0.065,0.14,8302.777777777777
-0.055,0.155,8305.555555555555
-0.035,0.165,8308.333333333334
-0.01,0.175,8311.111111111111
-0.005,0.17,8313.888888888889
-0.005,0.175,8316.666666666666
0.005,0.19,8319.444444444445
0.03,0.19,8322.222222222223
0.06,0.175,8325.0
0.065,0.165,8327.777777777777
0.055,0.17,8330.555555555555
0.045,0.175,8333.333333333334
0.05,0.2,8336.111111111111
0.085,0.195,8338.888888888889
0.1,0.175,8341.666666666666
0.11,0.155,8344.444444444445
0.105,0.14,8347.222222222223
0.1,0.155,8350.0
0.105,0.155,8352.777777777777
0.105,0.18,8355.555555555555
0.11,0.205,8358.333333333334
0.115,0.215,8361.111111111111
0.115,0.195,8363.888888888889
0.115,0.2,8366.666666666666
0.115,0.21,8369.444444444445
0.12,0.205,8372.222222222223
0.135,0.195,8375.0
0.14,0.2,8377.777777777777
0.135,0.19,8380.555555555555
0.12,0.165,8383.333333333334
0.105,0.145,8386.111111111111
0.12,0.15,8388.888888888889
0.115,0.165,8391.666666666666
0.12,0.175,8394.444444444445
0.075,0.175,8397.222222222223
0.055,0.18,8400.0
0.045,0.2,8402.777777777777
0.055,0.195,8405.555555555555
0.06,0.195,8408.333333333334
0.035,0.175,8411.111111111111
0.0,0.16,8413.888888888889
-0.035,0.155,8416.666666666666
-0.055,0.17,8419.444444444445
-0.035,0.185,8422.222222222223
-0.04,0.175,8425.0
-0.045,0.17,8427.777777777777
-0.065,0.15,8430.555555555555
-0.09,0.135,8433.333333333334
-0.095,0.13,8436.111111111111
-0.105,0.135,8438.888888888889
-0.08,0.15,8441.666666666666
-0.095,0.16,8444.444444444445
-0.12,0.155,8447.222222222223
-0.135,0.135,8450.0
-0.13,0.155,8452.777777777777
-0.115,0.17,8455.555555555555
-0.115,0.155,8458.333333333334
-0.115,0.14,8461.111111111111
-0.12,0.13,8463.888888888889
-0.14,0.13,8466.666666666666
-0.14,0.135,8469.444444444445
-0.12,0.135,8472.222222222223
-0.12,0.13,8475.0
-0.13,0.135,8477.777777777777
-0.13,0.135,8480.555555555555
-0.135,0.15,8483.333333333334
-0.15,0.165,8486.111111111111
-0.135,0.185,8488.888888888889
-0.135,0.185,8491.666666666666
-0.13,0.16,8494.444444444445
-0.135,0.155,8497.222222222223
-0.14,0.155,8500.0
-0.15,0.155,8502.777777777777
-0.145,0.155,8505.555555555555
-0.14,0.16,8508.333333333334
-0.14,0.155,8511.111111111111
-0.15,0.13,8513.888888888889
-0.15,0.125,8516.666666666666
-0.165,0.135,8519.444444444445
-0.15,0.165,8522.222222222223
-0.14,0.165,8525.0
-0.145,0.16,8527.777777777777
-0.135,0.16,8530.555555555555
-0.16,0.165,8533.333333333334
-0.17,0.175,8536.111111111111
-0.14,0.18,8538.888888888889
-0.155,0.165,8541.666666666666
-0.125,0.155,8544.444444444445
-0.135,0.12,8547.222222222223
-0.155,0.12,8550.0
-0.165,0.13,8552.777777777777
-0.145,0.14,8555.555555555555
-0.125,0.125,8558.333333333334
-0.14,0.12,8561.111111111111
-0.15,0.12,8563.888888888889
-0.155,0.11,8566.666666666666
-0.16,0.14,8569.444444444445
-0.15,0.19,8572.222222222223
-0.145,0.225,8575.0
-0.14,0.22,8577.777777777777
-0.135,0.2,8580.555555555555
-0.135,0.12,8583.333333333334
-0.125,0.08,8586.111111111111
-0.135,0.075,8588.888888888889
-0.12,0.11,8591.666666666666
-0.125,0.13,8594.444444444445
-0.11,0.14,8597.222222222223
-0.11,0.155,8600.0
-0.1,0.19,8602.777777777777
-0.09,0.195,8605.555555555555
-0.08,0.21,8608.333333333334
-0.075,0.205,8611.111111111111
-0.07,0.195,8613.888888888889
-0.07,0.195,8616.666666666666
-0.075,0.16,8619.444444444445
-0.055,0.165,8622.222222222223
-0.055,0.15,8625.0
-0.07,0.13,8627.777777777777
-0.08,0.12,8630.555555555555
-0.08,0.12,8633.333333333334
-0.07,0.125,8636.111111111111
-0.07,0.125,8638.888888888889
-0.07,0.105,8641.666666666666
-0.09,0.09,8644.444444444445
-0.1,0.075,8647.222222222223
-0.11,0.07,8650.0
-0.11,0.07,8652.777777777777
-0.14,0.085,8655.555555555555
-0.13,0.09,8658.333333333334
-0.135,0.115,8661.111111111111
-0.155,0.1,8663.888888888889
-0.145,0.09,8666.666666666666
-0.14,0.085,8669.444444444445
-0.135,0.075,8672.222222222223
-0.135,0.07,8675.0
-0.125,0.08,8677.777777777777
-0.145,0.06,8680.555555555555
-0.135,0.08,8683.333333333334
-0.14,0.1,8686.111111111111
-0.13,0.125,8688.888888888889
-0.14,0.14,8691.666666666666
-0.165,0.14,8694.444444444445
-0.185,0.135,8697.222222222223
-0.205,0.145,8700.0
-0.22,0.17,8702.777777777777
-0.22,0.175,8705.555555555555
-0.2,0.155,8708.333333333334
-0.21,0.13,8711.111111111111
-0.215,0.125,8713.888888888889
-0.23,0.115,8716.666666666666
-0.21,0.125,8719.444444444445
-0.21,0.12,8722.222222222223
-0.21,0.145,8725.0
-0.205,0.15,8727.777777777777
-0.205,0.14,8730.555555555555
-0.205,0.14,8733.333333333334
-0.21,0.11,8736.111111111111
-0.2,0.115,8738.888888888889
-0.2,0.12,8741.666666666666
-0.195,0.13,8744.444444444445
-0.215,0.135,8747.222222222223
-0.24,0.15,8750.0
-0.215,0.145,8752.777777777777
-0.215,0.145,8755.555555555555
-0.23,0.135,8758.333333333334
-0.27,0.155,8761.111111111111
-0.29,0.175,8763.888888888889
-0.28,0.21,8766.666666666666
-0.24,0.24,8769.444444444445
-0.125,0.275,8772.222222222223
0.015,0.28,8775.0
0.185,0.255,8777.777777777777
0.385,0.265,8780.555555555555
0.63,0.29,8783.333333333334
0.89,0.275,8786.111111111111
1.135,0.255,8788.888888888889
1.235,0.175,8791.666666666666
1.145,0.04,8794.444444444445
0.845,-0.07,8797.222222222223
0.465,-0.105,8800.0
0.05,-0.095,8802.777777777777
-0.395,-0.085,8805.555555555555
-0.725,-0.1,8808.333333333334
-0.825,-0.115,8811.111111111111
-0.77,-0.13,8813.888888888889
-0.68,-0.115,8816.666666666666
-0.57,-0.055,8819.444444444445
-0.46,0.0,8822.222222222223
-0.38,0.045,8825.0
-0.32,0.045,8827.777777777777
-0.285,0.04,8830.555555555555
-0.265,0.045,8833.333333333334
-0.255,0.07,8836.111111111111
-0.24,0.105,8838.888888888889
-0.23,0.13,8841.666666666666
-0.22,0.135,8844.444444444445
-0.23,0.12,8847.222222222223
-0.245,0.125,8850.0
-0.245,0.115,8852.777777777777
-0.24,0.115,8855.555555555555
-0.245,0.125,8858.333333333334
-0.245,0.13,8861.111111111111
-0.23,0.13,8863.888888888889
-0.23,0.135,8866.666666666666
-0.215,0.135,8869.444444444445
-0.21,0.135,8872.222222222223
-0.215,0.135,8875.0
-0.215,0.14,8877.777777777777
-0.225,0.15,8880.555555555555
-0.225,0.125,8883.333333333334
-0.215,0.125,8886.111111111111
-0.195,0.145,8888.888888888889
-0.195,0.16,8891.666666666666
-0.195,0.16,8894.444444444445
-0.205,0.145,8897.222222222223
-0.2,0.14,8900.0
-0.19,0.165,8902.777777777777
-0.18,0.17,8905.555555555555
-0.16,0.155,8908.333333333334
-0.155,0.1,8911.111111111111
-0.17,0.075,8913.888888888889
-0.155,0.095,8916.666666666666
-0.16,0.125,8919.444444444445
-0.155,0.155,8922.222222222223
-0.14,0.18,8925.0
-0.12,0.175,8927.777777777777
-0.135,0.14,8930.555555555555
-0.12,0.13,8933.333333333334
-0.11,0.14,8936.111111111111
-0.105,0.175,8938.888888888889
-0.085,0.205,8941.666666666666
-0.09,0.17,8944.444444444445
-0.07,0.145,8947.222222222223
-0.065,0.13,8950.0
-0.05,0.16,8952.777777777777
-0.035,0.18,8955.555555555555
-0.005,0.205,8958.333333333334
-0.005,0.2,8961.111111111111
-0.01,0.19,8963.888888888889
-0.01,0.185,8966.666666666666
0.015,0.17,8969.444444444445
0.03,0.165,8972.222222222223
0.05,0.18,8975.0
0.07,0.19,8977.777777777777
0.065,0.205,8980.555555555555
0.06,0.205,8983.333333333334
0.065,0.21,8986.111111111111
0.09,0.21,8988.888888888889
0.095,0.18,8991.666666666666
0.1,0.165,8994.444444444445
0.1,0.16,8997.222222222223
0.08,0.19,9000.0
0.095,0.2,9002.777777777777
0.115,0.215,9005.555555555555
0.12,0.24,9008.333333333334
0.125,0.235,9011.111111111111
0.12,0.21,9013.888888888889
0.105,0.215,9016.666666666666
0.105,0.22,9019.444444444445
0.12,0.215,9022.222222222223
0.11,0.205,9025.0
0.125,0.2,9027.777777777777
0.09,0.18,9030.555555555555
0.09,0.165,9033.333333333334
0.085,0.16,9036.111111111111
0.075,0.165,9038.888888888889
0.085,0.19,9041.666666666666
0.065,0.19,9044.444444444445
0.045,0.195,9047.222222222223
0.01,0.19,9050.0
-0.005,0.19,9052.777777777777
-0.015,0.2,9055.555555555555
-0.02,0.18,9058.333333333334
-0.045,0.16,9061.111111111111
-0.055,0.15,9063.888888888889
-0.09,0.155,9066.666666666666
-0.09,0.17,9069.444444444445
-0.1,0.19,9072.222222222223
-0.085,0.195,9075.0
-0.1,0.175,9077.777777777777
-0.13,0.15,9080.555555555555
-0.145,0.14,9083.333333333334
-0.155,0.155,9086.111111111111
-0.15,0.185,9088.888888888889
-0.135,0.19,9091.666666666666
-0.13,0.17,9094.444444444445
-0.14,0.145,9097.222222222223
-0.15,0.14,9100.0
-0.155,0.165,9102.777777777777
-0.155,0.18,9105.555555555555
-0.14,0.165,9108.333333333334
-0.135,0.135,9111.111111111111
-0.15,0.13,9113.888888888889
-0.165,0.135,9116.666666666666
-0.17,0.135,9119.444444444445
-0.155,0.15,9122.222222222223
-0.15,0.15,9125.0
-0.15,0.14,9127.777777777777
-0.165,0.165,9130.555555555555
-0.165,0.155,9133.333333333334
-0.155,0.17,9136.111111111111
-0.15,0.165,9138.888888888889
-0.145,0.145,9141.666666666666
-0.15,0.115,9144.444444444445
-0.17,0.11,9147.222222222223
-0.17,0.12,9150.0
-0.18,0.15,9152.777777777777
-0.165,0.15,9155.555555555555
-0.155,0.145,9158.333333333334
-0.15,0.145,9161.111111111111
-0.165,0.135,9163.888888888889
-0.165,0.15,9166.666666666666
-0.175,0.145,9169.444444444445
-0.165,0.14,9172.222222222223
-0.145,0.15,9175.0
-0.155,0.155,9177.777777777777
-0.165,0.145,9180.555555555555
-0.17,0.14,9183.333333333334
-0.16,0.155,9186.111111111111
-0.145,0.165,9188.888888888889
-0.15,0.18,9191.666666666666
-0.14,0.15,9194.444444444445
-0.15,0.13,9197.222222222223
-0.17,0.125,9200.0
-0.165,0.135,9202.777777777777
-0.155,0.14,9205.555555555555
-0.13,0.18,9208.333333333334
-0.145,0.17,9211.111111111111
-0.145,0.175,9213.888888888889
-0.14,0.11,9216.666666666666
-0.145,0.055,9219.444444444445
-0.115,0.065,9222.222222222223
-0.1,0.1,9225.0
-0.09,0.155,9227.777777777777
-0.095,0.165,9230.555555555555
-0.105,0.175,9233.333333333334
-0.11,0.17,9236.111111111111
-0.09,0.185,9238.888888888889
-0.07,0.185,9241.666666666666
-0.06,0.17,9244.444444444445
-0.055,0.145,9247.222222222223
-0.075,0.115,9250.0
-0.075,0.115,9252.777777777777
-0.075,0.12,9255.555555555555
-0.08,0.125,9258.333333333334
-0.065,0.105,9261.111111111111
-0.075,0.09,9263.888888888889
-0.08,0.07,9266.666666666666
-0.085,0.09,9269.444444444445
-0.075,0.105,9272.222222222223
-0.09,0.09,9275.0
-0.11,0.085,9277.777777777777
-0.125,0.09,9280.555555555555
-0.12,0.11,9283.333333333334
-0.135,0.115,9286.111111111111
-0.135,0.125,9288.888888888889
-0.13,0.135,9291.666666666666
-0.13,0.11,9294.444444444445
-0.145,0.07,9297.222222222223
-0.16,0.055,9300.0
-0.16,0.065,9302.777777777777
-0.135,0.075,9305.555555555555
-0.12,0.105,9308.333333333334
-0.125,0.125,9311.111111111111
-0.15,0.15,9313.888888888889
-0.18,0.16,9316.666666666666
-0.18,0.16,9319.444444444445
-0.185,0.145,9322.222222222223
-0.19,0.11,9325.0
-0.205,0.095,9327.777777777777
-0.22,0.11,9330.555555555555
-0.22,0.13,9333.333333333334
-0.22,0.14,9336.111111111111
-0.21,0.17,9338.888888888889
-0.205,0.17,9341.666666666666
-0.2,0.12,9344.444444444445
-0.22,0.095,9347.222222222223
-0.22,0.08,9350.0
-0.205,0.095,9352.777777777777
-0.205,0.11,9355.555555555555
-0.21,0.13,9358.333333333334
-0.2,0.14,9361.111111111111
-0.205,0.14,9363.888888888889
-0.21,0.135,9366.666666666666
-0.2,0.135,9369.444444444445
-0.19,0.13,9372.222222222223
-0.205,0.15,9375.0
-0.215,0.175,9377.777777777777
-0.23,0.18,9380.555555555555
-0.255,0.195,9383.333333333334
-0.29,0.22,9386.111111111111
-0.29,0.245,9388.888888888889
-0.26,0.245,9391.666666666666
-0.19,0.24,9394.444444444445
-0.095,0.22,9397.222222222223
0.045,0.24,9400.0
0.225,0.275,9402.777777777777
0.465,0.3,9405.555555555555
0.725,0.31,9408.333333333334
0.985,0.26,9411.111111111111
1.155,0.2,9413.888888888889
1.18,0.1,9416.666666666666
0.995,0.005,9419.444444444445
0.69,-0.05,9422.222222222223
0.31,-0.075,9425.0
-0.135,-0.08,9427.777777777777
-0.595,-0.1,9430.555555555555
-0.855,-0.14,9433.333333333334
-0.85,-0.145,9436.111111111111
-0.725,-0.13,9438.888888888889
-0.575,-0.09,9441.666666666666
-0.475,-0.075,9444.444444444445
-0.38,-0.04,9447.222222222223
-0.34,0.025,9450.0
-0.31,0.075,9452.777777777777
-0.26,0.13,9455.555555555555
-0.225,0.135,9458.333333333334
-0.22,0.105,9461.111111111111
-0.235,0.115,9463.888888888889
-0.24,0.12,9466.666666666666
-0.23,0.105,9469.444444444445
-0.22,0.12,9472.222222222223
-0.22,0.13,9475.0
-0.235,0.15,9477.777777777777
-0.245,0.145,9480.555555555555
-0.24,0.125,9483.333333333334
-0.235,0.105,9486.111111111111
-0.23,0.115,9488.888888888889
-0.21,0.14,9491.666666666666
-0.2,0.15,9494.444444444445
-0.21,0.125,9497.222222222223
-0.225,0.115,9500.0
-0.225,0.12,9502.777777777777
-0.21,0.145,9505.555555555555
-0.195,0.14,9508.333333333334
-0.2,0.135,9511.111111111111
-0.21,0.125,9513.888888888889
-0.2,0.105,9516.666666666666
-0.205,0.115,9519.444444444445
-0.185,0.145,9522.222222222223
-0.18,0.15,9525.0
-0.17,0.155,9527.777777777777
-0.17,0.135,9530.555555555555
-0.175,0.135,9533.333333333334
-0.17,0.14,9536.111111111111
-0.16,0.16,9538.888888888889
-0.145,0.18,9541.666666666666
-0.14,0.175,9544.444444444445
-0.145,0.175,9547.222222222223
-0.14,0.18,9550.0
-0.135,0.18,9552.777777777777
-0.11,0.175,9555.555555555555
-0.085,0.16,9558.333333333334
-0.07,0.135,9561.111111111111
-0.08,0.115,9563.888888888889
-0.065,0.125,9566.666666666666
-0.055,0.14,9569.444444444445
-0.035,0.16,9572.222222222223
-0.025,0.155,9575.0
-0.025,0.155,9577.777777777777
-0.035,0.135,9580.555555555555
-0.005,0.14,9583.333333333334
0.0,0.15,9586.111111111111
0.015,0.18,9588.888888888889
0.035,0.18,9591.666666666666
0.03,0.185,9594.444444444445
0.05,0.17,9597.222222222223
0.035,0.165,9600.0
0.05,0.18,9602.777777777777
0.06,0.19,9605.555555555555
0.08,0.175,9608.333333333334
0.075,0.165,9611.111111111111
0.08,0.16,9613.888888888889
0.075,0.175,9616.666666666666
0.065,0.19,9619.444444444445
0.095,0.215,9622.222222222223
0.11,0.215,9625.0
0.12,0.21,9627.777777777777
0.115,0.19,9630.555555555555
0.1,0.19,9633.333333333334
0.1,0.195,9636.111111111111
0.11,0.215,9638.888888888889
0.125,0.22,9641.666666666666
0.13,0.205,9644.444444444445
0.12,0.19,9647.222222222223
0.105,0.165,9650.0
0.11,0.15,9652.777777777777
0.12,0.145,9655.555555555555
0.115,0.16,9658.333333333334
0.095,0.17,9661.111111111111
0.085,0.155,9663.888888888889
0.055,0.155,9666.666666666666
0.04,0.165,9669.444444444445
0.04,0.19,9672.222222222223
0.045,0.175,9675.0
0.025,0.18,9677.777777777777
0.005,0.17,9680.555555555555
-0.01,0.17,9683.333333333334
-0.04,0.17,9686.111111111111
-0.04,0.195,9688.888888888889
-0.045,0.18,9691.666666666666
-0.045,0.175,9694.444444444445
-0.07,0.15,9697.222222222223
-0.09,0.135,9700.0
-0.105,0.155,9702.777777777777
-0.095,0.165,9705.555555555555
-0.09,0.17,9708.333333333334
-0.1,0.15,9711.111111111111
-0.125,0.125,9713.888888888889
-0.145,0.13,9716.666666666666
-0.145,0.14,9719.444444444445
-0.145,0.155,9722.222222222223
-0.12,0.16,9725.0
-0.12,0.14,9727.777777777777
-0.155,0.11,9730.555555555555
-0.17,0.125,9733.333333333334
-0.175,0.145,9736.111111111111
-0.17,0.175,9738.888888888889
-0.155,0.195,9741.666666666666
-0.155,0.185,9744.444444444445
-0.15,0.16,9747.222222222223
-0.15,0.145,9750.0
-0.175,0.14,9752.777777777777
-0.155,0.125,9755.555555555555
-0.14,0.13,9758.333333333334
-0.135,0.12,9761.111111111111
-0.14,0.115,9763.888888888889
-0.145,0.1,9766.666666666666
-0.15,0.12,9769.444444444445
-0.15,0.125,9772.222222222223
-0.135,0.13,9775.0
-0.13,0.135,9777.777777777777
-0.15,0.145,9780.555555555555
-0.15,0.135,9783.333333333334
-0.155,0.135,9786.111111111111
-0.15,0.11,9788.888888888889
-0.14,0.12,9791.666666666666
-0.125,0.135,9794.444444444445
-0.135,0.12,9797.222222222223
-0.14,0.115,9800.0
-0.155,0.105,9802.777777777777
-0.155,0.12,9805.555555555555
-0.15,0.13,9808.333333333334
-0.14,0.125,9811.111111111111
-0.16,0.1,9813.888888888889
-0.165,0.1,9816.666666666666
-0.16,0.095,9819.444444444445
-0.15,0.115,9822.222222222223
-0.135,0.13,9825.0
-0.145,0.11,9827.777777777777
-0.155,0.115,9830.555555555555
-0.165,0.11,9833.333333333334
-0.16,0.105,9836.111111111111
-0.15,0.125,9838.888888888889
-0.145,0.15,9841.666666666666
-0.155,0.135,9844.444444444445
-0.15,0.11,9847.222222222223
-0.18,0.105,9850.0
-0.18,0.11,9852.777777777777
-0.155,0.13,9855.555555555555
-0.14,0.145,9858.333333333334
-0.115,0.165,9861.111111111111
-0.115,0.14,9863.888888888889
-0.115,0.14,9866.666666666666
-0.095,0.165,9869.444444444445
-0.09,0.18,9872.222222222223
-0.09,0.155,9875.0
-0.075,0.135,9877.777777777777
-0.075,0.15,9880.555555555555
-0.08,0.155,9883.333333333334
-0.065,0.15,9886.111111111111
-0.05,0.13,9888.888888888889
-0.055,0.115,9891.666666666666
-0.065,0.08,9894.444444444445
-0.07,0.075,9897.222222222223
-0.09,0.075,9900.0
-0.1,0.07,9902.777777777777
-0.09,0.09,9905.555555555555
-0.055,0.08,9908.333333333334
-0.075,0.065,9911.111111111111
-0.105,0.06,9913.888888888889
-0.115,0.065,9916.666666666666
-0.135,0.08,9919.444444444445
-0.13,0.085,9922.222222222223
-0.135,0.075,9925.0
-0.125,0.04,9927.777777777777
-0.14,0.01,9930.555555555555
-0.14,0.01,9933.333333333334
-0.15,0.04,9936.111111111111
-0.16,0.06,9938.888888888889
-0.135,0.095,9941.666666666666
-0.12,0.1,9944.444444444445
-0.13,0.105,9947.222222222223
-0.15,0.115,9950.0
-0.16,0.14,9952.777777777777
-0.175,0.145,9955.555555555555
-0.18,0.125,9958.333333333334
-0.19,0.11,9961.111111111111
-0.215,0.09,9963.888888888889
-0.235,0.09,9966.666666666666
-0.235,0.115,9969.444444444445
-0.215,0.12,9972.222222222223
-0.21,0.155,9975.0
-0.22,0.17,9977.777777777777
-0.235,0.205,9980.555555555555
-0.245,0.195,9983.333333333334
-0.24,0.165,9986.111111111111
-0.22,0.12,9988.888888888889
-0.215,0.1,9991.666666666666
-0.215,0.095,9994.444444444445
-0.215,0.115,9997.222222222223
-0.22,0.105,10000.0
-0.225,0.095,10002.777777777777
-0.225,0.08,10005.555555555555
-0.2,0.085,10008.333333333334
-0.2,0.095,10011.111111111111
-0.225,0.095,10013.888888888889
-0.25,0.095,10016.666666666666
-0.265,0.125,10019.444444444445
-0.28,0.165,10022.222222222223
-0.285,0.205,10025.0
-0.27,0.22,10027.777777777777
-0.25,0.22,10030.555555555555
-0.19,0.22,10033.333333333334
-0.075,0.215,10036.111111111111
0.085,0.235,10038.888888888889
0.3,0.265,10041.666666666666
0.565,0.275,10044.444444444445
0.82,0.265,10047.222222222223
1.04,0.215,10050.0
1.145,0.155,10052.777777777777
1.07,0.05,10055.555555555555
0.8,-0.065,10058.333333333334
0.425,-0.135,10061.111111111111
-0.02,-0.14,10063.888888888889
-0.495,-0.11,10066.666666666666
-0.82,-0.105,10069.444444444445
-0.89,-0.1,10072.222222222223
-0.775,-0.09,10075.0
-0.645,-0.08,10077.777777777777
-0.535,-0.06,10080.555555555555
-0.425,-0.04,10083.333333333334
-0.345,-0.02,10086.111111111111
-0.3,-0.025,10088.888888888889
-0.255,0.0,10091.666666666666
-0.24,0.045,10094.444444444445
-0.235,0.07,10097.222222222223
-0.245,0.09,10100.0
-0.245,0.09,10102.777777777777
-0.235,0.09,10105.555555555555
-0.23,0.085,10108.333333333334
-0.23,0.1,10111.111111111111
-0.23,0.105,10113.888888888889
-0.235,0.11,10116.666666666666
-0.235,0.105,10119.444444444445
-0.225,0.115,10122.222222222223
-0.22,0.13,10125.0
-0.21,0.13,10127.777777777777
-0.22,0.13,10130.555555555555
-0.22,0.115,10133.333333333334
-0.21,0.12,10136.111111111111
-0.19,0.13,10138.888888888889
-0.18,0.125,10141.666666666666
-0.175,0.13,10144.444444444445
-0.185,0.14,10147.222222222223
-0.195,0.135,10150.0
-0.195,0.16,10152.777777777777
-0.175,0.19,10155.555555555555
-0.16,0.205,10158.333333333334
-0.165,0.24,10161.111111111111
-0.165,0.24,10163.888888888889
-0.165,0.23,10166.666666666666
-0.155,0.185,10169.444444444445
-0.135,0.125,10172.222222222223
-0.135,0.095,10175.0
-0.14,0.06,10177.777777777777
-0.15,0.045,10180.555555555555
-0.15,0.07,10183.333333333334
-0.15,0.1,10186.111111111111
-0.13,0.115,10188.888888888889
-0.105,0.11,10191.666666666666
-0.115,0.115,10194.444444444445
-0.105,0.125,10197.222222222223
-0.115,0.12,10200.0
-0.085,0.13,10202.777777777777
-0.055,0.135,10205.555555555555
-0.035,0.13,10208.333333333334
-0.015,0.105,10211.111111111111
-0.035,0.12,10213.888888888889
-0.03,0.13,10216.666666666666
-0.025,0.15,10219.444444444445
0.0,0.17,10222.222222222223
0.01,0.19,10225.0
0.03,0.195,10227.777777777777
0.03,0.185,10230.555555555555
0.035,0.175,10233.333333333334
0.045,0.175,10236.111111111111
0.035,0.195,10238.888888888889
0.065,0.21,10241.666666666666
0.08,0.21,10244.444444444445
0.075,0.225,10247.222222222223
0.085,0.215,10250.0
0.09,0.21,10252.777777777777
0.105,0.19,10255.555555555555
0.115,0.18,10258.333333333334
0.095,0.15,10261.111111111111
0.12,0.125,10263.888888888889
0.105,0.1,10266.666666666666
0.1,0.095,10269.444444444445
0.105,0.13,10272.222222222223
0.105,0.145,10275.0
0.1,0.15,10277.777777777777
0.095,0.135,10280.555555555555
0.1,0.15,10283.333333333334
0.085,0.15,10286.111111111111
0.085,0.165,10288.888888888889
0.085,0.17,10291.666666666666
0.08,0.175,10294.444444444445
0.055,0.175,10297.222222222223
0.045,0.165,10300.0
0.025,0.16,10302.777777777777
0.02,0.16,10305.555555555555
0.01,0.165,10308.333333333334
0.0,0.16,10311.111111111111
-0.01,0.155,10313.888888888889
-0.03,0.155,10316.666666666666
-0.04,0.175,10319.444444444445
-0.07,0.19,10322.222222222223
-0.07,0.21,10325.0
-0.09,0.185,10327.777777777777
-0.095,0.115,10330.555555555555
-0.115,0.085,10333.333333333334
-0.11,0.1,10336.111111111111
-0.105,0.13,10338.888888888889
-0.11,0.13,10341.666666666666
-0.12,0.115,10344.444444444445
-0.135,0.08,10347.222222222223
-0.155,0.06,10350.0
-0.16,0.095,10352.777777777777
-0.155,0.115,10355.555555555555
-0.165,0.115,10358.333333333334
-0.165,0.105,10361.111111111111
-0.185,0.1,10363.888888888889
-0.2,0.1,10366.666666666666
-0.205,0.12,10369.444444444445
-0.19,0.135,10372.222222222223
-0.175,0.14,10375.0
-0.175,0.12,10377.777777777777
-0.2,0.09,10380.555555555555
-0.21,0.095,10383.333333333334
-0.205,0.11,10386.111111111111
-0.185,0.14,10388.888888888889
-0.155,0.14,10391.666666666666
-0.145,0.145,10394.444444444445
-0.16,0.13,10397.222222222223
-0.18,0.145,10400.0
-0.175,0.165,10402.777777777777
-0.175,0.175,10405.555555555555
-0.16,0.17,10408.333333333334
-0.155,0.145,10411.111111111111
-0.18,0.1,10413.888888888889
-0.185,0.07,10416.666666666666
-0.165,0.085,10419.444444444445
-0.145,0.08,10422.222222222223
-0.13,0.07,10425.0
-0.135,0.09,10427.777777777777
-0.175,0.1,10430.555555555555
-0.18,0.085,10433.333333333334
-0.19,0.09,10436.111111111111
-0.165,0.095,10438.888888888889
-0.145,0.095,10441.666666666666
-0.15,0.08,10444.444444444445
-0.145,0.075,10447.222222222223
-0.175,0.065,10450.0
-0.18,0.1,10452.777777777777
-0.175,0.13,10455.555555555555
-0.16,0.14,10458.333333333334
-0.14,0.135,10461.111111111111
-0.145,0.095,10463.888888888889
-0.165,0.085,10466.666666666666
-0.175,0.11,10469.444444444445
-0.175,0.125,10472.222222222223
-0.16,0.115,10475.0
-0.17,0.115,10477.777777777777
-0.185,0.105,10480.555555555555
-0.185,0.11,10483.333333333334
-0.165,0.135,10486.111111111111
-0.125,0.185,10488.888888888889
-0.115,0.215,10491.666666666666
-0.11,0.205,10494.444444444445
-0.12,0.145,10497.222222222223
-0.115,0.1,10500.0
-0.12,0.105,10502.777777777777
-0.115,0.12,10505.555555555555
-0.09,0.13,10508.333333333334
-0.09,0.1,10511.111111111111
-0.095,0.09,10513.888888888889
-0.105,0.075,10516.666666666666
-0.105,0.06,10519.444444444445
-0.095,0.045,10522.222222222223
-0.095,0.04,10525.0
-0.105,0.04,10527.777777777777
-0.12,0.04,10530.555555555555
-0.135,0.04,10533.333333333334
-0.135,0.07,10536.111111111111
-0.125,0.08,10538.888888888889
-0.115,0.07,10541.666666666666
-0.135,0.055,10544.444444444445
-0.175,0.055,10547.222222222223
-0.21,0.055,10550.0
-0.205,0.075,10552.777777777777
-0.165,0.055,10555.555555555555
-0.13,0.065,10558.333333333334
-0.14,0.06,10561.111111111111
-0.17,0.07,10563.888888888889
-0.2,0.085,10566.666666666666
-0.185,0.09,10569.444444444445
-0.16,0.1,10572.222222222223
-0.145,0.085,10575.0
-0.155,0.075,10577.777777777777
-0.185,0.055,10580.555555555555
-0.215,0.065,10583.333333333334
-0.23,0.095,10586.111111111111
-0.23,0.12,10588.888888888889
-0.22,0.115,10591.666666666666
-0.23,0.1,10594.444444444445
-0.24,0.06,10597.222222222223
-0.23,0.035,10600.0
-0.23,0.04,10602.777777777777
-0.215,0.055,10605.555555555555
-0.23,0.07,10608.333333333334
-0.23,0.08,10611.111111111111
-0.245,0.075,10613.888888888889
-0.26,0.065,10616.666666666666
-0.255,0.08,10619.444444444445
-0.24,0.115,10622.222222222223
-0.23,0.13,10625.0
-0.225,0.125,10627.777777777777
-0.22,0.115,10630.555555555555
-0.215,0.12,10633.333333333334
-0.235,0.11,10636.111111111111
-0.235,0.12,10638.888888888889
-0.255,0.115,10641.666666666666
-0.275,0.1,10644.444444444445
-0.275,0.1,10647.222222222223
-0.305,0.105,10650.0
-0.33,0.15,10652.777777777777
-0.3,0.19,10655.555555555555
-0.245,0.225,10658.333333333334
-0.175,0.225,10661.111111111111
-0.055,0.235,10663.888888888889
0.09,0.215,10666.666666666666
0.305,0.24,10669.444444444445
0.57,0.255,10672.222222222223
0.835,0.275,10675.0
1.03,0.255,10677.777777777777
1.13,0.18,10680.555555555555
1.035,0.1,10683.333333333334
0.83,0.01,10686.111111111111
0.55,-0.075,10688.888888888889
0.215,-0.095,10691.666666666666
-0.245,-0.09,10694.444444444445
-0.67,-0.085,10697.222222222223
-0.86,-0.06,10700.0
-0.83,-0.04,10702.777777777777
-0.75,-0.04,10705.555555555555
-0.675,-0.06,10708.333333333334
-0.595,-0.065,10711.111111111111
-0.5,-0.055,10713.888888888889
-0.43,-0.025,10716.666666666666
-0.375,0.01,10719.444444444445
-0.33,0.03,10722.222222222223
-0.29,0.045,10725.0
-0.295,0.05,10727.777777777777
-0.285,0.07,10730.555555555555
-0.28,0.05,10733.333333333334
-0.26,0.06,10736.111111111111
-0.26,0.085,10738.888888888889
-0.245,0.09,10741.666666666666
-0.26,0.105,10744.444444444445
-0.275,0.11,10747.222222222223
-0.29,0.105,10750.0
-0.295,0.115,10752.777777777777
-0.29,0.125,10755.555555555555
-0.245,0.15,10758.333333333334
-0.235,0.135,10761.111111111111
-0.235,0.115,10763.888888888889
-0.235,0.105,10766.666666666666
-0.25,0.095,10769.444444444445
-0.255,0.09,10772.222222222223
-0.26,0.11,10775.0
-0.255,0.115,10777.777777777777
-0.245,0.095,10780.555555555555
-0.235,0.075,10783.333333333334
-0.23,0.075,10786.111111111111
-0.215,0.105,10788.888888888889
-0.2,0.115,10791.666666666666
-0.21,0.13,10794.444444444445
-0.22,0.1,10797.222222222223
-0.215,0.08,10800.0
-0.195,0.07,10802.777777777777
-0.185,0.07,10805.555555555555
-0.175,0.08,10808.333333333334
-0.17,0.075,10811.111111111111
-0.18,0.06,10813.888888888889
-0.165,0.06,10816.666666666666
-0.16,0.09,10819.444444444445
-0.14,0.11,10822.222222222223
-0.11,0.125,10825.0
-0.095,0.135,10827.777777777777
-0.105,0.115,10830.555555555555
-0.095,0.105,10833.333333333334
-0.1,0.1,10836.111111111111
-0.08,0.1,10838.888888888889
-0.04,0.12,10841.666666666666
-0.04,0.115,10844.444444444445
-0.045,0.13,10847.222222222223
-0.04,0.115,10850.0
-0.02,0.15,10852.777777777777
-0.015,0.145,10855.555555555555
0.01,0.15,10858.333333333334
0.015,0.155,10861.111111111111
0.015,0.16,10863.888888888889
0.01,0.15,10866.666666666666
0.015,0.13,10869.444444444445
0.04,0.135,10872.222222222223
0.06,0.135,10875.0
0.065,0.175,10877.777777777777
0.05,0.19,10880.555555555555
0.035,0.17,10883.333333333334
0.05,0.13,10886.111111111111
0.07,0.1,10888.888888888889
0.085,0.09,10891.666666666666
0.065,0.085,10894.444444444445
0.05,0.1,10897.222222222223
0.04,0.115,10900.0
0.055,0.15,10902.777777777777
0.065,0.15,10905.555555555555
0.085,0.155,10908.333333333334
0.07,0.12,10911.111111111111
0.065,0.095,10913.888888888889
0.05,0.11,10916.666666666666
0.04,0.165,10919.444444444445
0.04,0.18,10922.222222222223
0.045,0.175,10925.0
0.04,0.135,10927.777777777777
0.01,0.115,10930.555555555555
-0.015,0.115,10933.333333333334
-0.03,0.13,10936.111111111111
-0.04,0.165,10938.888888888889
-0.045,0.17,10941.666666666666
-0.07,0.16,10944.444444444445
-0.09,0.155,10947.222222222223
-0.105,0.15,10950.0
-0.14,0.155,10952.777777777777
-0.155,0.14,10955.555555555555
-0.16,0.12,10958.333333333334
-0.16,0.115,10961.111111111111
-0.18,0.095,10963.888888888889
-0.2,0.09,10966.666666666666
-0.205,0.13,10969.444444444445
-0.2,0.15,10972.222222222223
-0.205,0.165,10975.0
-0.215,0.145,10977.777777777777
-0.205,0.14,10980.555555555555
-0.22,0.105,10983.333333333334
-0.23,0.105,10986.111111111111
-0.225,0.12,10988.888888888889
-0.21,0.145,10991.666666666666
-0.205,0.165,10994.444444444445
-0.225,0.175,10997.222222222223
-0.225,0.175,11000.0
-0.21,0.15,11002.777777777777
-0.195,0.125,11005.555555555555
-0.19,0.125,11008.333333333334
-0.21,0.14,11011.111111111111
-0.215,0.13,11013.888888888889
-0.225,0.115,11016.666666666666
-0.22,0.12,11019.444444444445
-0.21,0.135,11022.222222222223
-0.185,0.14,11025.0
-0.195,0.15,11027.777777777777
-0.205,0.145,11030.555555555555
-0.22,0.14,11033.333333333334
-0.21,0.145,11036.111111111111
-0.18,0.145,11038.888888888889
-0.165,0.12,11041.666666666666
-0.175,0.11,11044.444444444445
-0.18,0.095,11047.222222222223
-0.185,0.09,11050.0
-0.185,0.105,11052.777777777777
-0.185,0.125,11055.555555555555
-0.185,0.155,11058.333333333334
-0.19,0.16,11061.111111111111
-0.195,0.16,11063.888888888889
-0.2,0.155,11066.666666666666
-0.195,0.185,11069.444444444445
-0.18,0.195,11072.222222222223
-0.16,0.18,11075.0
-0.15,0.145,11077.777777777777
-0.16,0.12,11080.555555555555
-0.175,0.115,11083.333333333334
-0.18,0.12,11086.111111111111
-0.165,0.11,11088.888888888889
-0.155,0.125,11091.666666666666
-0.135,0.155,11094.444444444445
-0.13,0.15,11097.222222222223
-0.145,0.145,11100.0
-0.15,0.15,11102.777777777777
-0.135,0.18,11105.555555555555
-0.125,0.185,11108.333333333334
-0.125,0.18,11111.111111111111
-0.145,0.155,11113.888888888889
-0.16,0.125,11116.666666666666
-0.155,0.125,11119.444444444445
-0.145,0.125,11122.222222222223
-0.145,0.11,11125.0
-0.15,0.09,11127.777777777777
-0.175,0.085,11130.555555555555
-0.18,0.115,11133.333333333334
-0.18,0.125,11136.111111111111
-0.165,0.13,11138.888888888889
-0.155,0.125,11141.666666666666
-0.165,0.105,11144.444444444445
-0.195,0.065,11147.222222222223
-0.215,0.045,11150.0
-0.225,0.07,11152.777777777777
-0.23,0.08,11155.555555555555
-0.205,0.11,11158.333333333334
-0.205,0.105,11161.111111111111
-0.225,0.105,11163.888888888889
-0.22,0.1,11166.666666666666
-0.215,0.11,11169.444444444445
-0.2,0.115,11172.222222222223
-0.2,0.125,11175.0
-0.205,0.12,11177.777777777777
-0.23,0.115,11180.555555555555
-0.245,0.115,11183.333333333334
-0.27,0.13,11186.111111111111
-0.27,0.135,11188.888888888889
-0.255,0.13,11191.666666666666
-0.26,0.135,11194.444444444445
-0.28,0.15,11197.222222222223
-0.295,0.165,11200.0
-0.28,0.175,11202.777777777777
-0.26,0.17,11205.555555555555
-0.26,0.175,11208.333333333334
-0.27,0.165,11211.111111111111
-0.285,0.165,11213.888888888889
-0.275,0.15,11216.666666666666
-0.265,0.165,11219.444444444445
-0.25,0.155,11222.222222222223
-0.23,0.15,11225.0
-0.235,0.125,11227.777777777777
-0.275,0.14,11230.555555555555
-0.27,0.155,11233.333333333334
-0.27,0.175,11236.111111111111
-0.265,0.185,11238.888888888889
-0.25,0.22,11241.666666666666
-0.255,0.22,11244.444444444445
-0.3,0.21,11247.222222222223
-0.33,0.165,11250.0
-0.36,0.16,11252.777777777777
-0.335,0.19,11255.555555555555
-0.265,0.225,11258.333333333334
-0.185,0.255,11261.111111111111
-0.055,0.26,11263.888888888889
0.105,0.28,11266.666666666666
0.335,0.3,11269.444444444445
0.62,0.325,11272.222222222223
0.89,0.32,11275.0
1.095,0.28,11277.777777777777
1.16,0.2,11280.555555555555
1.03,0.085,11283.333333333334
0.745,0.005,11286.111111111111
0.37,-0.01,11288.888888888889
-0.06,0.025,11291.666666666666
-0.54,0.02,11294.444444444445
-0.855,-0.02,11297.222222222223
-0.925,-0.065,11300.0
-0.855,-0.07,11302.777777777777
-0.74,-0.05,11305.555555555555
-0.63,0.0,11308.333333333334
-0.525,0.025,11311.111111111111
-0.435,0.07,11313.888888888889
-0.37,0.1,11316.666666666666
-0.335,0.105,11319.444444444445
-0.295,0.085,11322.222222222223
-0.27,0.09,11325.0
-0.255,0.12,11327.777777777777
-0.26,0.125,11330.555555555555
-0.26,0.115,11333.333333333334
-0.26,0.11,11336.111111111111
-0.25,0.13,11338.888888888889
-0.24,0.145,11341.666666666666
-0.245,0.14,11344.444444444445
-0.26,0.13,11347.222222222223
-0.26,0.14,11350.0
-0.26,0.145,11352.777777777777
-0.24,0.16,11355.555555555555
-0.24,0.18,11358.333333333334
-0.245,0.185,11361.111111111111
-0.245,0.175,11363.888888888889
-0.245,0.165,11366.666666666666
-0.245,0.18,11369.444444444445
-0.235,0.2,11372.222222222223
-0.235,0.205,11375.0
-0.23,0.21,11377.777777777777
-0.23,0.195,11380.555555555555
-0.22,0.165,11383.333333333334
-0.205,0.185,11386.111111111111
-0.19,0.205,11388.888888888889
-0.175,0.2,11391.666666666666
-0.18,0.19,11394.444444444445
-0.185,0.175,11397.222222222223
-0.19,0.16,11400.0
-0.185,0.175,11402.777777777777
-0.165,0.185,11405.555555555555
-0.16,0.185,11408.333333333334
-0.155,0.195,11411.111111111111
-0.155,0.2,11413.888888888889
-0.14,0.21,11416.666666666666
-0.145,0.205,11419.444444444445
-0.14,0.205,11422.222222222223
-0.11,0.215,11425.0
-0.095,0.215,11427.777777777777
-0.095,0.2,11430.555555555555
-0.075,0.195,11433.333333333334
-0.06,0.19,11436.111111111111
-0.035,0.185,11438.888888888889
-0.03,0.205,11441.666666666666
-0.02,0.215,11444.444444444445
-0.015,0.21,11447.222222222223
-0.005,0.205,11450.0
0.015,0.195,11452.777777777777
0.02,0.22,11455.555555555555
0.025,0.225,11458.333333333334
0.025,0.235,11461.111111111111
0.035,0.22,11463.888888888889
0.03,0.22,11466.666666666666
0.04,0.24,11469.444444444445
0.06,0.245,11472.222222222223
0.08,0.24,11475.0
0.07,0.23,11477.777777777777
0.065,0.205,11480.555555555555
0.055,0.215,11483.333333333334
0.06,0.24,11486.111111111111
0.08,0.235,11488.888888888889
0.105,0.235,11491.666666666666
0.11,0.225,11494.444444444445
0.09,0.215,11497.222222222223
0.09,0.225,11500.0
0.085,0.23,11502.777777777777
0.1,0.25,11505.555555555555
0.1,0.275,11508.333333333334
0.085,0.255,11511.111111111111
