MLII,V1,time_ms
-0.065,0.135,0.0
-0.065,0.135,2.7777777777777777
-0.065,0.135,5.555555555555555
-0.065,0.135,8.333333333333334
-0.065,0.135,11.11111111111111
-0.065,0.135,13.88888888888889
-0.065,0.135,16.666666666666668
-0.065,0.135,19.444444444444443
-0.045,0.135,22.22222222222222
-0.035,0.13,25.0
-0.04,0.12,27.77777777777778
-0.06,0.115,30.555555555555557
-0.075,0.105,33.333333333333336
-0.055,0.12,36.111111111111114
-0.04,0.13,38.888888888888886
-0.04,0.12,41.666666666666664
-0.05,0.115,44.44444444444444
-0.065,0.115,47.22222222222222
-0.07,0.105,50.0
-0.065,0.1,52.77777777777778
-0.06,0.115,55.55555555555556
-0.06,0.115,58.333333333333336
-0.06,0.105,61.111111111111114
-0.07,0.085,63.888888888888886
-0.075,0.065,66.66666666666667
-0.075,0.08,69.44444444444444
-0.065,0.095,72.22222222222223
-0.07,0.08,75.0
-0.075,0.06,77.77777777777777
-0.08,0.05,80.55555555555556
-0.085,0.06,83.33333333333333
-0.075,0.06,86.11111111111111
-0.07,0.06,88.88888888888889
-0.075,0.06,91.66666666666667
-0.08,0.04,94.44444444444444
-0.085,0.04,97.22222222222223
-0.09,0.025,100.0
-0.09,0.045,102.77777777777777
-0.08,0.06,105.55555555555556
-0.07,0.065,108.33333333333333
-0.075,0.055,111.11111111111111
-0.085,0.06,113.88888888888889
-0.09,0.065,116.66666666666667
-0.07,0.09,119.44444444444444
-0.055,0.1,122.22222222222223
-0.04,0.09,125.0
-0.02,0.06,127.77777777777777
0.025,0.035,130.55555555555554
0.105,0.02,133.33333333333334
0.235,0.0,136.11111111111111
0.35,-0.015,138.88888888888889
0.475,-0.05,141.66666666666666
0.585,-0.09,144.44444444444446
0.685,-0.125,147.22222222222223
0.805,-0.13,150.0
0.915,-0.165,152.77777777777777
1.035,-0.22,155.55555555555554
1.08,-0.275,158.33333333333334
1.08,-0.3,161.11111111111111
1.025,-0.305,163.88888888888889
0.96,-0.285,166.66666666666666
0.86,-0.21,169.44444444444446
0.715,-0.14,172.22222222222223
0.51,-0.09,175.0
0.305,-0.06,177.77777777777777
0.145,-0.03,180.55555555555554
0.08,-0.02,183.33333333333334
0.03,0.025,186.11111111111111
-0.015,0.055,188.88888888888889
-0.055,0.07,191.66666666666666
-0.095,0.065,194.44444444444446
-0.11,0.07,197.22222222222223
-0.12,0.075,200.0
-0.135,0.1,202.77777777777777
-0.14,0.105,205.55555555555554
-0.15,0.09,208.33333333333334
-0.165,0.085,211.11111111111111
-0.185,0.07,213.88888888888889
-0.2,0.055,216.66666666666666
-0.195,0.07,219.44444444444446
-0.195,0.07,222.22222222222223
-0.195,0.06,225.0
-0.215,0.035,227.77777777777777
-0.225,0.015,230.55555555555554
-0.235,0.01,233.33333333333334
-0.25,0.005,236.11111111111111
-0.23,0.03,238.88888888888889
-0.235,0.04,241.66666666666666
-0.25,0.04,244.44444444444446
-0.24,0.04,247.22222222222223
-0.26,0.03,250.0
-0.255,0.05,252.77777777777777
-0.245,0.07,255.55555555555554
-0.24,0.075,258.3333333333333
-0.26,0.07,261.1111111111111
-0.275,0.07,263.8888888888889
-0.28,0.085,266.6666666666667
-0.28,0.12,269.44444444444446
-0.255,0.135,272.22222222222223
-0.255,0.13,275.0
-0.25,0.13,277.77777777777777
-0.27,0.12,280.55555555555554
-0.275,0.115,283.3333333333333
-0.275,0.125,286.1111111111111
-0.255,0.14,288.8888888888889
-0.245,0.14,291.6666666666667
-0.24,0.12,294.44444444444446
-0.27,0.11,297.22222222222223
-0.265,0.11,300.0
-0.255,0.125,302.77777777777777
-0.245,0.135,305.55555555555554
-0.24,0.135,308.3333333333333
-0.24,0.13,311.1111111111111
-0.225,0.14,313.8888888888889
-0.245,0.12,316.6666666666667
-0.235,0.13,319.44444444444446
-0.23,0.145,322.22222222222223
-0.21,0.135,325.0
-0.225,0.135,327.77777777777777
-0.225,0.125,330.55555555555554
-0.24,0.105,333.3333333333333
-0.24,0.095,336.1111111111111
-0.225,0.09,338.8888888888889
-0.215,0.06,341.6666666666667
-0.235,0.015,344.44444444444446
-0.23,-0.005,347.22222222222223
-0.235,-0.035,350.0
-0.245,-0.02,352.77777777777777
-0.215,-0.005,355.55555555555554
-0.195,-0.015,358.3333333333333
-0.19,-0.025,361.1111111111111
-0.2,-0.03,363.8888888888889
-0.215,-0.035,366.6666666666667
-0.18,-0.02,369.44444444444446
-0.165,0.01,372.22222222222223
-0.16,0.025,375.0
-0.14,0.015,377.77777777777777
-0.145,0.005,380.55555555555554
-0.145,0.015,383.3333333333333
-0.13,0.045,386.1111111111111
-0.12,0.055,388.8888888888889
-0.125,0.065,391.6666666666667
-0.125,0.055,394.44444444444446
-0.135,0.06,397.22222222222223
-0.125,0.05,400.0
-0.105,0.08,402.77777777777777
-0.08,0.1,405.55555555555554
-0.085,0.105,408.3333333333333
-0.09,0.095,411.1111111111111
-0.09,0.085,413.8888888888889
-0.095,0.085,416.6666666666667
-0.095,0.09,419.44444444444446
-0.075,0.115,422.22222222222223
-0.075,0.095,425.0
-0.07,0.085,427.77777777777777
-0.075,0.07,430.55555555555554
-0.095,0.075,433.3333333333333
-0.095,0.095,436.1111111111111
-0.08,0.11,438.8888888888889
-0.065,0.105,441.6666666666667
-0.08,0.1,444.44444444444446
-0.1,0.08,447.22222222222223
-0.085,0.095,450.0
-0.1,0.1,452.77777777777777
-0.085,0.125,455.55555555555554
-0.065,0.12,458.3333333333333
-0.08,0.1,461.1111111111111
-0.1,0.075,463.8888888888889
-0.115,0.045,466.6666666666667
-0.1,0.055,469.44444444444446
-0.095,0.055,472.22222222222223
-0.09,0.035,475.0
-0.085,0.03,477.77777777777777
-0.105,0.025,480.55555555555554
-0.115,0.015,483.3333333333333
-0.11,0.03,486.1111111111111
-0.11,0.05,488.8888888888889
-0.105,0.04,491.6666666666667
-0.105,0.035,494.44444444444446
-0.11,0.02,497.22222222222223
-0.11,0.02,500.0
-0.1,0.045,502.77777777777777
-0.11,0.05,505.55555555555554
-0.105,0.05,508.3333333333333
-0.105,0.04,511.1111111111111
-0.12,0.025,513.8888888888889
-0.125,0.035,516.6666666666666
-0.12,0.045,519.4444444444445
-0.11,0.075,522.2222222222222
-0.11,0.07,525.0
-0.115,0.065,527.7777777777778
-0.125,0.06,530.5555555555555
-0.125,0.075,533.3333333333334
-0.125,0.09,536.1111111111111
-0.1,0.11,538.8888888888889
-0.1,0.12,541.6666666666666
-0.105,0.105,544.4444444444445
-0.1,0.105,547.2222222222222
-0.1,0.095,550.0
-0.105,0.11,552.7777777777778
-0.1,0.12,555.5555555555555
-0.085,0.105,558.3333333333334
-0.095,0.095,561.1111111111111
-0.11,0.085,563.8888888888889
-0.11,0.07,566.6666666666666
-0.095,0.085,569.4444444444445
-0.085,0.1,572.2222222222222
-0.085,0.09,575.0
-0.1,0.06,577.7777777777778
-0.11,0.045,580.5555555555555
-0.1,0.02,583.3333333333334
-0.085,0.025,586.1111111111111
-0.09,0.035,588.8888888888889
-0.08,0.03,591.6666666666666
-0.085,0.015,594.4444444444445
-0.095,0.0,597.2222222222222
-0.115,0.005,600.0
-0.09,0.01,602.7777777777778
-0.08,0.02,605.5555555555555
-0.08,0.02,608.3333333333334
-0.095,0.01,611.1111111111111
-0.105,-0.005,613.8888888888889
-0.11,-0.01,616.6666666666666
-0.12,0.0,619.4444444444445
-0.11,0.015,622.2222222222222
-0.1,0.005,625.0
-0.12,0.005,627.7777777777778
-0.12,-0.005,630.5555555555555
-0.135,-0.01,633.3333333333334
-0.13,0.005,636.1111111111111
-0.11,0.025,638.8888888888889
-0.105,0.02,641.6666666666666
-0.105,0.015,644.4444444444445
-0.125,0.005,647.2222222222222
-0.14,0.015,650.0
-0.125,0.03,652.7777777777778
-0.105,0.06,655.5555555555555
-0.11,0.05,658.3333333333334
-0.105,0.045,661.1111111111111
-0.065,0.015,663.8888888888889
-0.005,-0.01,666.6666666666666
0.095,-0.01,669.4444444444445
0.215,-0.04,672.2222222222222
0.335,-0.075,675.0
0.44,-0.105,677.7777777777778
0.56,-0.155,680.5555555555555
0.685,-0.16,683.3333333333334
0.805,-0.15,686.1111111111111
0.91,-0.185,688.8888888888889
1.0,-0.235,691.6666666666666
1.035,-0.275,694.4444444444445
1.015,-0.295,697.2222222222222
0.955,-0.29,700.0
0.87,-0.26,702.7777777777778
0.735,-0.195,705.5555555555555
0.57,-0.15,708.3333333333334
0.335,-0.135,711.1111111111111
0.13,-0.115,713.8888888888889
-0.005,-0.095,716.6666666666666
-0.06,-0.075,719.4444444444445
-0.085,-0.04,722.2222222222222
-0.11,-0.02,725.0
-0.145,-0.03,727.7777777777778
-0.19,-0.025,730.5555555555555
-0.19,-0.02,733.3333333333334
-0.2,0.0,736.1111111111111
-0.19,0.015,738.8888888888889
-0.2,0.01,741.6666666666666
-0.225,0.005,744.4444444444445
-0.245,0.01,747.2222222222222
-0.26,0.005,750.0
-0.27,0.005,752.7777777777778
-0.255,0.015,755.5555555555555
-0.25,0.015,758.3333333333334
-0.26,0.005,761.1111111111111
-0.295,-0.01,763.8888888888889
-0.31,0.0,766.6666666666666
-0.3,0.0,769.4444444444445
-0.29,0.015,772.2222222222222
-0.285,0.0,775.0
-0.3,0.01,777.7777777777778
-0.32,0.0,780.5555555555555
-0.34,0.0,783.3333333333334
-0.335,0.025,786.1111111111111
-0.32,0.03,788.8888888888889
-0.325,0.035,791.6666666666666
-0.33,0.035,794.4444444444445
-0.34,0.025,797.2222222222222
-0.35,0.035,800.0
-0.345,0.05,802.7777777777778
-0.35,0.065,805.5555555555555
-0.355,0.07,808.3333333333334
-0.36,0.065,811.1111111111111
-0.365,0.06,813.8888888888889
-0.37,0.07,816.6666666666666
-0.375,0.08,819.4444444444445
-0.365,0.095,822.2222222222222
-0.36,0.085,825.0
-0.36,0.09,827.7777777777778
-0.375,0.085,830.5555555555555
-0.375,0.085,833.3333333333334
-0.36,0.08,836.1111111111111
-0.345,0.11,838.8888888888889
-0.33,0.105,841.6666666666666
-0.345,0.085,844.4444444444445
-0.35,0.075,847.2222222222222
-0.345,0.045,850.0
-0.345,0.05,852.7777777777778
-0.345,0.07,855.5555555555555
-0.325,0.04,858.3333333333334
-0.335,0.035,861.1111111111111
-0.345,0.03,863.8888888888889
-0.34,0.03,866.6666666666666
-0.33,0.04,869.4444444444445
-0.315,0.055,872.2222222222222
-0.305,0.055,875.0
-0.295,0.035,877.7777777777778
-0.3,0.02,880.5555555555555
-0.315,0.025,883.3333333333334
-0.305,0.035,886.1111111111111
-0.29,0.035,888.8888888888889
-0.285,0.03,891.6666666666666
-0.295,0.03,894.4444444444445
-0.305,0.03,897.2222222222222
-0.305,0.025,900.0
-0.28,0.03,902.7777777777778
-0.26,0.04,905.5555555555555
-0.255,0.03,908.3333333333334
-0.26,0.025,911.1111111111111
-0.265,0.01,913.8888888888889
-0.27,0.015,916.6666666666666
-0.26,0.03,919.4444444444445
-0.24,0.035,922.2222222222222
-0.225,0.035,925.0
-0.22,0.02,927.7777777777778
-0.22,0.02,930.5555555555555
-0.23,0.01,933.3333333333334
-0.205,0.025,936.1111111111111
-0.19,0.035,938.8888888888889
-0.175,0.03,941.6666666666666
-0.175,0.025,944.4444444444445
-0.195,0.01,947.2222222222222
-0.18,0.0,950.0
-0.18,0.0,952.7777777777778
-0.175,0.015,955.5555555555555
-0.17,0.015,958.3333333333334
-0.165,0.01,961.1111111111111
-0.175,0.005,963.8888888888889
-0.17,0.0,966.6666666666666
-0.18,0.035,969.4444444444445
-0.175,0.04,972.2222222222222
-0.18,0.045,975.0
-0.175,0.05,977.7777777777778
-0.185,0.03,980.5555555555555
-0.18,0.04,983.3333333333334
-0.185,0.055,986.1111111111111
-0.17,0.07,988.8888888888889
-0.165,0.07,991.6666666666666
-0.19,0.05,994.4444444444445
-0.19,0.04,997.2222222222222
-0.19,0.035,1000.0
-0.175,0.05,1002.7777777777778
-0.165,0.075,1005.5555555555555
-0.165,0.075,1008.3333333333334
-0.16,0.06,1011.1111111111111
-0.165,0.06,1013.8888888888889
-0.185,0.05,1016.6666666666666
-0.18,0.065,1019.4444444444445
-0.17,0.085,1022.2222222222222
-0.175,0.09,1025.0
-0.175,0.085,1027.7777777777778
-0.18,0.08,1030.5555555555557
-0.19,0.08,1033.3333333333333
-0.18,0.095,1036.111111111111
-0.16,0.1,1038.888888888889
-0.14,0.095,1041.6666666666667
-0.16,0.09,1044.4444444444443
-0.15,0.075,1047.2222222222222
-0.165,0.075,1050.0
-0.155,0.09,1052.7777777777778
-0.145,0.1,1055.5555555555557
-0.145,0.085,1058.3333333333333
-0.15,0.08,1061.111111111111
-0.165,0.075,1063.888888888889
-0.145,0.07,1066.6666666666667
-0.145,0.07,1069.4444444444443
-0.125,0.075,1072.2222222222222
-0.13,0.07,1075.0
-0.145,0.045,1077.7777777777778
-0.155,0.035,1080.5555555555557
-0.16,0.015,1083.3333333333333
-0.16,0.02,1086.111111111111
-0.135,0.035,1088.888888888889
-0.14,0.035,1091.6666666666667
-0.14,0.025,1094.4444444444443
-0.155,0.01,1097.2222222222222
-0.18,0.0,1100.0
-0.16,0.005,1102.7777777777778
-0.145,0.03,1105.5555555555557
-0.135,0.025,1108.3333333333333
-0.145,0.02,1111.111111111111
-0.165,0.02,1113.888888888889
-0.17,0.015,1116.6666666666667
-0.165,0.035,1119.4444444444443
-0.165,0.04,1122.2222222222222
-0.155,0.035,1125.0
-0.17,0.045,1127.7777777777778
-0.17,0.025,1130.5555555555557
-0.18,0.035,1133.3333333333333
-0.175,0.05,1136.111111111111
-0.155,0.055,1138.888888888889
-0.16,0.05,1141.6666666666667
-0.17,0.035,1144.4444444444443
-0.17,0.03,1147.2222222222222
-0.185,0.03,1150.0
-0.175,0.05,1152.7777777777778
-0.165,0.06,1155.5555555555557
-0.17,0.065,1158.3333333333333
-0.18,0.05,1161.111111111111
-0.195,0.04,1163.888888888889
-0.205,0.045,1166.6666666666667
-0.205,0.045,1169.4444444444443
-0.18,0.07,1172.2222222222222
-0.17,0.07,1175.0
-0.17,0.07,1177.7777777777778
-0.19,0.055,1180.5555555555557
-0.19,0.065,1183.3333333333333
-0.18,0.075,1186.111111111111
-0.16,0.095,1188.888888888889
-0.145,0.095,1191.6666666666667
-0.145,0.08,1194.4444444444443
-0.165,0.055,1197.2222222222222
-0.16,0.05,1200.0
-0.15,0.06,1202.7777777777778
-0.14,0.055,1205.5555555555557
-0.125,0.06,1208.3333333333333
-0.145,0.035,1211.111111111111
-0.145,0.03,1213.888888888889
-0.155,0.03,1216.6666666666667
-0.155,0.03,1219.4444444444443
-0.14,0.035,1222.2222222222222
-0.145,0.025,1225.0
-0.145,0.005,1227.7777777777778
-0.16,0.0,1230.5555555555557
-0.16,0.005,1233.3333333333333
-0.175,0.005,1236.111111111111
-0.16,0.015,1238.888888888889
-0.145,0.025,1241.6666666666667
-0.155,0.015,1244.4444444444443
-0.155,0.0,1247.2222222222222
-0.16,0.005,1250.0
-0.15,0.01,1252.7777777777778
-0.14,0.04,1255.5555555555557
-0.13,0.035,1258.3333333333333
-0.135,0.025,1261.111111111111
-0.16,0.025,1263.888888888889
-0.17,0.035,1266.6666666666667
-0.15,0.06,1269.4444444444443
-0.145,0.07,1272.2222222222222
-0.115,0.04,1275.0
-0.085,0.025,1277.7777777777778
-0.035,0.0,1280.5555555555557
0.07,-0.04,1283.3333333333333
0.18,-0.04,1286.111111111111
0.3,-0.065,1288.888888888889
0.415,-0.09,1291.6666666666667
0.51,-0.12,1294.4444444444443
0.625,-0.145,1297.2222222222222
0.745,-0.15,1300.0
0.855,-0.17,1302.7777777777778
0.94,-0.22,1305.5555555555557
0.96,-0.265,1308.3333333333333
0.965,-0.31,1311.111111111111
0.91,-0.34,1313.888888888889
0.85,-0.335,1316.6666666666667
0.765,-0.3,1319.4444444444443
0.64,-0.25,1322.2222222222222
0.46,-0.195,1325.0
0.235,-0.155,1327.7777777777778
0.035,-0.115,1330.5555555555557
-0.07,-0.075,1333.3333333333333
-0.11,-0.05,1336.111111111111
-0.145,0.005,1338.888888888889
-0.17,0.02,1341.6666666666667
-0.205,0.015,1344.4444444444443
-0.235,0.015,1347.2222222222222
-0.25,0.025,1350.0
-0.25,0.045,1352.7777777777778
-0.255,0.05,1355.5555555555557
-0.26,0.05,1358.3333333333333
-0.265,0.04,1361.111111111111
-0.29,0.035,1363.888888888889
-0.305,0.035,1366.6666666666667
-0.315,0.045,1369.4444444444443
-0.3,0.06,1372.2222222222222
-0.295,0.04,1375.0
-0.305,0.03,1377.7777777777778
-0.33,0.02,1380.5555555555557
-0.36,0.03,1383.3333333333333
-0.37,0.03,1386.111111111111
-0.37,0.045,1388.888888888889
-0.34,0.045,1391.6666666666667
-0.35,0.025,1394.4444444444443
-0.37,0.03,1397.2222222222222
-0.37,0.02,1400.0
-0.38,0.035,1402.7777777777778
-0.365,0.045,1405.5555555555557
-0.36,0.04,1408.3333333333333
-0.375,0.05,1411.111111111111
-0.38,0.035,1413.888888888889
-0.385,0.035,1416.6666666666667
-0.39,0.055,1419.4444444444443
-0.38,0.07,1422.2222222222222
-0.375,0.07,1425.0
-0.395,0.07,1427.7777777777778
-0.41,0.07,1430.5555555555557
-0.42,0.065,1433.3333333333333
-0.405,0.075,1436.111111111111
-0.395,0.095,1438.888888888889
-0.385,0.09,1441.6666666666667
-0.395,0.07,1444.4444444444443
-0.4,0.05,1447.2222222222222
-0.395,0.065,1450.0
-0.39,0.075,1452.7777777777778
-0.39,0.08,1455.5555555555557
-0.37,0.085,1458.3333333333333
-0.375,0.07,1461.111111111111
-0.405,0.065,1463.888888888889
-0.41,0.065,1466.6666666666667
-0.405,0.075,1469.4444444444443
-0.375,0.08,1472.2222222222222
-0.36,0.085,1475.0
-0.385,0.065,1477.7777777777778
-0.39,0.06,1480.5555555555557
-0.39,0.07,1483.3333333333333
-0.39,0.07,1486.111111111111
-0.36,0.075,1488.888888888889
-0.345,0.085,1491.6666666666667
-0.355,0.075,1494.4444444444443
-0.36,0.075,1497.2222222222222
-0.37,0.075,1500.0
-0.345,0.08,1502.7777777777778
-0.335,0.105,1505.5555555555557
-0.33,0.09,1508.3333333333333
-0.335,0.08,1511.111111111111
-0.36,0.075,1513.888888888889
-0.335,0.075,1516.6666666666667
-0.33,0.075,1519.4444444444443
-0.33,0.08,1522.2222222222222
-0.32,0.08,1525.0
-0.315,0.065,1527.7777777777778
-0.325,0.055,1530.5555555555557
-0.335,0.05,1533.3333333333333
-0.325,0.05,1536.111111111111
-0.3,0.055,1538.888888888889
-0.295,0.055,1541.6666666666667
-0.29,0.035,1544.4444444444443
-0.29,0.02,1547.2222222222222
-0.305,0.015,1550.0
-0.295,0.02,1552.7777777777778
-0.275,0.035,1555.5555555555557
-0.24,0.035,1558.3333333333333
-0.245,0.025,1561.111111111111
-0.26,0.015,1563.888888888889
-0.255,0.02,1566.6666666666667
-0.26,0.02,1569.4444444444443
-0.24,0.04,1572.2222222222222
-0.235,0.035,1575.0
-0.23,0.04,1577.7777777777778
-0.235,0.025,1580.5555555555557
-0.235,0.015,1583.3333333333333
-0.235,0.03,1586.111111111111
-0.23,0.05,1588.888888888889
-0.225,0.05,1591.6666666666667
-0.23,0.05,1594.4444444444443
-0.245,0.045,1597.2222222222222
-0.25,0.05,1600.0
-0.245,0.065,1602.7777777777778
-0.23,0.085,1605.5555555555557
-0.235,0.09,1608.3333333333333
-0.24,0.085,1611.111111111111
-0.24,0.08,1613.888888888889
-0.245,0.085,1616.6666666666667
-0.26,0.1,1619.4444444444443
-0.245,0.12,1622.2222222222222
-0.235,0.115,1625.0
-0.25,0.105,1627.7777777777778
-0.255,0.1,1630.5555555555557
-0.255,0.095,1633.3333333333333
-0.25,0.095,1636.111111111111
-0.245,0.115,1638.888888888889
-0.235,0.105,1641.6666666666667
-0.26,0.105,1644.4444444444443
-0.26,0.095,1647.2222222222222
-0.255,0.095,1650.0
-0.25,0.095,1652.7777777777778
-0.23,0.12,1655.5555555555557
-0.23,0.115,1658.3333333333333
-0.235,0.12,1661.111111111111
-0.24,0.095,1663.888888888889
-0.235,0.09,1666.6666666666667
-0.245,0.1,1669.4444444444443
-0.225,0.095,1672.2222222222222
-0.23,0.085,1675.0
-0.23,0.07,1677.7777777777778
-0.25,0.055,1680.5555555555557
-0.245,0.045,1683.3333333333333
-0.25,0.02,1686.111111111111
-0.245,0.025,1688.888888888889
-0.23,0.015,1691.6666666666667
-0.23,-0.015,1694.4444444444443
-0.235,-0.04,1697.2222222222222
-0.23,-0.06,1700.0
-0.19,-0.06,1702.7777777777778
-0.145,-0.045,1705.5555555555557
-0.145,-0.03,1708.3333333333333
-0.24,-0.005,1711.111111111111
-0.425,0.025,1713.888888888889
-0.625,0.06,1716.6666666666667
-0.76,0.115,1719.4444444444443
-0.83,0.16,1722.2222222222222
-0.88,0.21,1725.0
-0.905,0.245,1727.7777777777778
-0.935,0.295,1730.5555555555557
-0.93,0.365,1733.3333333333333
-0.935,0.44,1736.111111111111
-0.935,0.52,1738.888888888889
-0.955,0.575,1741.6666666666667
-0.945,0.6,1744.4444444444443
-0.925,0.625,1747.2222222222222
-0.905,0.645,1750.0
-0.875,0.66,1752.7777777777778
-0.835,0.615,1755.5555555555557
-0.795,0.56,1758.3333333333333
-0.755,0.51,1761.111111111111
-0.725,0.51,1763.888888888889
-0.695,0.53,1766.6666666666667
-0.66,0.56,1769.4444444444443
-0.63,0.61,1772.2222222222222
-0.62,0.635,1775.0
-0.62,0.63,1777.7777777777778
-0.635,0.665,1780.5555555555557
-0.61,0.675,1783.3333333333333
-0.575,0.7,1786.111111111111
-0.53,0.725,1788.888888888889
-0.525,0.715,1791.6666666666667
-0.475,0.675,1794.4444444444443
-0.46,0.6,1797.2222222222222
-0.42,0.51,1800.0
-0.36,0.42,1802.7777777777778
-0.305,0.36,1805.5555555555557
-0.28,0.295,1808.3333333333333
-0.275,0.2,1811.111111111111
-0.255,0.125,1813.888888888889
-0.24,0.07,1816.6666666666667
-0.215,0.035,1819.4444444444443
-0.195,0.01,1822.2222222222222
-0.18,-0.005,1825.0
-0.175,-0.02,1827.7777777777778
-0.19,-0.035,1830.5555555555557
-0.185,-0.035,1833.3333333333333
-0.175,-0.045,1836.111111111111
-0.145,-0.03,1838.888888888889
-0.14,-0.05,1841.6666666666667
-0.14,-0.06,1844.4444444444443
-0.155,-0.09,1847.2222222222222
-0.15,-0.08,1850.0
-0.15,-0.095,1852.7777777777778
-0.145,-0.09,1855.5555555555557
-0.125,-0.1,1858.3333333333333
-0.13,-0.1,1861.111111111111
-0.14,-0.11,1863.888888888889
-0.15,-0.125,1866.6666666666667
-0.135,-0.115,1869.4444444444443
-0.105,-0.115,1872.2222222222222
-0.105,-0.12,1875.0
-0.09,-0.13,1877.7777777777778
-0.09,-0.145,1880.5555555555557
-0.07,-0.14,1883.3333333333333
-0.06,-0.135,1886.111111111111
-0.055,-0.13,1888.888888888889
-0.04,-0.155,1891.6666666666667
-0.035,-0.16,1894.4444444444443
-0.025,-0.18,1897.2222222222222
-0.035,-0.19,1900.0
-0.01,-0.18,1902.7777777777778
0.005,-0.17,1905.5555555555557
0.015,-0.165,1908.3333333333333
0.015,-0.185,1911.111111111111
0.0,-0.205,1913.888888888889
0.025,-0.205,1916.6666666666667
0.045,-0.21,1919.4444444444443
0.06,-0.205,1922.2222222222222
0.085,-0.2,1925.0
0.08,-0.22,1927.7777777777778
0.085,-0.22,1930.5555555555557
0.08,-0.225,1933.3333333333333
0.095,-0.215,1936.111111111111
0.11,-0.215,1938.888888888889
0.13,-0.225,1941.6666666666667
0.14,-0.24,1944.4444444444443
0.145,-0.255,1947.2222222222222
0.14,-0.27,1950.0
0.15,-0.27,1952.7777777777778
0.16,-0.27,1955.5555555555557
0.165,-0.27,1958.3333333333333
0.165,-0.285,1961.111111111111
0.165,-0.295,1963.888888888889
0.155,-0.295,1966.6666666666667
0.155,-0.28,1969.4444444444443
0.18,-0.265,1972.2222222222222
0.18,-0.26,1975.0
0.17,-0.27,1977.7777777777778
0.16,-0.29,1980.5555555555557
0.14,-0.29,1983.3333333333333
0.14,-0.27,1986.111111111111
0.15,-0.255,1988.888888888889
0.14,-0.245,1991.6666666666667
0.125,-0.255,1994.4444444444443
0.095,-0.26,1997.2222222222222
0.08,-0.255,2000.0
0.085,-0.24,2002.7777777777778
0.065,-0.22,2005.5555555555557
0.065,-0.22,2008.3333333333333
0.04,-0.235,2011.111111111111
0.015,-0.22,2013.888888888889
-0.015,-0.225,2016.6666666666667
-0.035,-0.21,2019.4444444444443
-0.05,-0.195,2022.2222222222222
-0.05,-0.195,2025.0
-0.055,-0.185,2027.7777777777778
-0.08,-0.19,2030.5555555555557
-0.09,-0.185,2033.3333333333333
-0.1,-0.17,2036.111111111111
-0.11,-0.155,2038.888888888889
-0.105,-0.135,2041.6666666666667
-0.125,-0.145,2044.4444444444443
-0.15,-0.145,2047.2222222222222
-0.16,-0.135,2050.0
-0.165,-0.115,2052.777777777778
-0.155,-0.085,2055.5555555555557
-0.16,-0.075,2058.3333333333335
-0.16,-0.08,2061.1111111111113
-0.195,-0.08,2063.8888888888887
-0.205,-0.07,2066.6666666666665
-0.21,-0.04,2069.4444444444443
-0.19,-0.02,2072.222222222222
-0.19,-0.01,2075.0
-0.205,-0.005,2077.777777777778
-0.215,-0.01,2080.5555555555557
-0.215,0.015,2083.3333333333335
-0.22,0.03,2086.1111111111113
-0.2,0.05,2088.8888888888887
-0.205,0.06,2091.6666666666665
-0.2,0.06,2094.4444444444443
-0.215,0.04,2097.222222222222
-0.215,0.05,2100.0
-0.235,0.055,2102.777777777778
-0.215,0.085,2105.5555555555557
-0.205,0.065,2108.3333333333335
-0.215,0.065,2111.1111111111113
-0.225,0.045,2113.8888888888887
-0.23,0.045,2116.6666666666665
-0.235,0.065,2119.4444444444443
-0.215,0.08,2122.222222222222
-0.205,0.08,2125.0
-0.21,0.08,2127.777777777778
-0.215,0.075,2130.5555555555557
-0.21,0.07,2133.3333333333335
-0.21,0.085,2136.1111111111113
-0.195,0.075,2138.8888888888887
-0.195,0.08,2141.6666666666665
-0.2,0.07,2144.4444444444443
-0.22,0.035,2147.222222222222
-0.215,0.03,2150.0
-0.21,0.035,2152.777777777778
-0.2,0.045,2155.5555555555557
-0.195,0.05,2158.3333333333335
-0.205,0.025,2161.1111111111113
-0.22,0.025,2163.8888888888887
-0.23,0.01,2166.6666666666665
-0.24,0.01,2169.4444444444443
-0.24,0.02,2172.222222222222
-0.23,0.0,2175.0
-0.235,-0.01,2177.777777777778
-0.255,-0.015,2180.5555555555557
-0.26,-0.03,2183.3333333333335
-0.26,-0.005,2186.1111111111113
-0.255,0.005,2188.8888888888887
-0.24,0.005,2191.6666666666665
-0.245,-0.01,2194.4444444444443
-0.28,-0.01,2197.222222222222
-0.28,-0.005,2200.0
-0.275,0.01,2202.777777777778
-0.27,0.02,2205.5555555555557
-0.265,0.035,2208.3333333333335
-0.27,0.04,2211.1111111111113
-0.275,0.03,2213.8888888888887
-0.29,0.045,2216.6666666666665
-0.28,0.055,2219.4444444444443
-0.265,0.065,2222.222222222222
-0.265,0.075,2225.0
-0.265,0.08,2227.777777777778
-0.265,0.07,2230.5555555555557
-0.275,0.075,2233.3333333333335
-0.27,0.09,2236.1111111111113
-0.26,0.115,2238.8888888888887
-0.25,0.105,2241.6666666666665
-0.26,0.1,2244.4444444444443
-0.275,0.08,2247.222222222222
-0.28,0.07,2250.0
-0.255,0.09,2252.777777777778
-0.25,0.095,2255.5555555555557
-0.245,0.09,2258.3333333333335
-0.265,0.07,2261.1111111111113
-0.27,0.075,2263.8888888888887
-0.265,0.07,2266.6666666666665
-0.255,0.075,2269.4444444444443
-0.23,0.09,2272.222222222222
-0.235,0.09,2275.0
-0.245,0.07,2277.777777777778
-0.245,0.07,2280.5555555555557
-0.25,0.08,2283.3333333333335
-0.255,0.09,2286.1111111111113
-0.245,0.09,2288.8888888888887
-0.23,0.085,2291.6666666666665
-0.23,0.08,2294.4444444444443
-0.235,0.05,2297.222222222222
-0.245,0.055,2300.0
-0.235,0.07,2302.777777777778
-0.235,0.07,2305.5555555555557
-0.235,0.07,2308.3333333333335
-0.235,0.055,2311.1111111111113
-0.24,0.02,2313.8888888888887
-0.255,-0.005,2316.6666666666665
-0.25,-0.005,2319.4444444444443
-0.265,-0.02,2322.222222222222
-0.26,-0.025,2325.0
-0.265,-0.045,2327.777777777778
-0.265,-0.06,2330.5555555555557
-0.26,-0.085,2333.3333333333335
-0.245,-0.065,2336.1111111111113
-0.245,-0.06,2338.8888888888887
-0.235,-0.06,2341.6666666666665
-0.245,-0.06,2344.4444444444443
-0.245,-0.055,2347.222222222222
-0.23,-0.055,2350.0
-0.22,-0.04,2352.777777777778
-0.215,-0.02,2355.5555555555557
-0.205,-0.01,2358.3333333333335
-0.21,-0.025,2361.1111111111113
-0.21,-0.025,2363.8888888888887
-0.22,-0.02,2366.6666666666665
-0.205,0.0,2369.4444444444443
-0.19,0.0,2372.222222222222
-0.15,0.0,2375.0
-0.075,-0.035,2377.777777777778
0.01,-0.045,2380.5555555555557
0.1,-0.065,2383.3333333333335
0.21,-0.08,2386.1111111111113
0.315,-0.105,2388.8888888888887
0.425,-0.11,2391.6666666666665
0.54,-0.125,2394.4444444444443
0.645,-0.155,2397.222222222222
0.715,-0.21,2400.0
0.805,-0.26,2402.777777777778
0.85,-0.295,2405.5555555555557
0.85,-0.33,2408.3333333333335
0.79,-0.345,2411.1111111111113
0.68,-0.3,2413.8888888888887
0.55,-0.235,2416.6666666666665
0.375,-0.17,2419.4444444444443
0.18,-0.125,2422.222222222222
0.025,-0.085,2425.0
-0.065,-0.06,2427.777777777778
-0.11,-0.045,2430.5555555555557
-0.16,-0.025,2433.3333333333335
-0.2,-0.01,2436.1111111111113
-0.225,0.01,2438.8888888888887
-0.23,0.02,2441.6666666666665
-0.245,0.01,2444.4444444444443
-0.28,0.0,2447.222222222222
-0.295,0.015,2450.0
-0.295,0.02,2452.777777777778
-0.32,0.02,2455.5555555555557
-0.305,0.01,2458.3333333333335
-0.315,-0.005,2461.1111111111113
-0.335,-0.035,2463.8888888888887
-0.35,-0.045,2466.6666666666665
-0.35,-0.045,2469.4444444444443
-0.35,-0.035,2472.222222222222
-0.36,-0.04,2475.0
-0.365,-0.045,2477.777777777778
-0.375,-0.06,2480.5555555555557
-0.375,-0.07,2483.3333333333335
-0.385,-0.04,2486.1111111111113
-0.365,-0.025,2488.8888888888887
-0.365,-0.025,2491.6666666666665
-0.37,-0.025,2494.4444444444443
-0.38,-0.04,2497.222222222222
-0.385,-0.03,2500.0
-0.375,-0.005,2502.777777777778
-0.355,0.01,2505.5555555555557
-0.345,0.02,2508.3333333333335
-0.36,0.02,2511.1111111111113
-0.37,0.015,2513.8888888888887
-0.38,0.03,2516.6666666666665
-0.38,0.035,2519.4444444444443
-0.375,0.06,2522.222222222222
-0.37,0.06,2525.0
-0.385,0.065,2527.777777777778
-0.39,0.055,2530.5555555555557
-0.38,0.055,2533.3333333333335
-0.39,0.09,2536.1111111111113
-0.365,0.085,2538.8888888888887
-0.355,0.085,2541.6666666666665
-0.365,0.085,2544.4444444444443
-0.375,0.07,2547.222222222222
-0.375,0.075,2550.0
-0.375,0.07,2552.777777777778
-0.36,0.09,2555.5555555555557
-0.365,0.08,2558.3333333333335
-0.355,0.065,2561.1111111111113
-0.375,0.04,2563.8888888888887
-0.38,0.035,2566.6666666666665
-0.37,0.045,2569.4444444444443
-0.355,0.06,2572.222222222222
-0.35,0.055,2575.0
-0.355,0.05,2577.777777777778
-0.37,0.03,2580.5555555555557
-0.375,0.02,2583.3333333333335
-0.355,0.01,2586.1111111111113
-0.34,0.02,2588.8888888888887
-0.34,0.005,2591.6666666666665
-0.345,-0.01,2594.4444444444443
-0.38,-0.03,2597.222222222222
-0.36,-0.03,2600.0
-0.35,-0.025,2602.777777777778
-0.345,-0.025,2605.5555555555557
-0.335,-0.025,2608.3333333333335
-0.335,-0.025,2611.1111111111113
-0.345,-0.035,2613.8888888888887
-0.355,-0.035,2616.6666666666665
-0.345,-0.04,2619.4444444444443
-0.34,-0.025,2622.222222222222
-0.325,-0.02,2625.0
-0.335,-0.03,2627.777777777778
-0.32,-0.03,2630.5555555555557
-0.32,-0.04,2633.3333333333335
-0.315,-0.02,2636.1111111111113
-0.28,-0.01,2638.8888888888887
-0.27,-0.015,2641.6666666666665
-0.27,-0.01,2644.4444444444443
-0.27,-0.025,2647.222222222222
-0.265,-0.005,2650.0
-0.245,-0.005,2652.777777777778
-0.23,0.03,2655.5555555555557
-0.22,0.035,2658.3333333333335
-0.215,0.035,2661.1111111111113
-0.215,0.015,2663.8888888888887
-0.215,0.02,2666.6666666666665
-0.2,0.025,2669.4444444444443
-0.19,0.045,2672.222222222222
-0.17,0.045,2675.0
-0.175,0.055,2677.777777777778
-0.185,0.04,2680.5555555555557
-0.19,0.045,2683.3333333333335
-0.18,0.065,2686.1111111111113
-0.17,0.07,2688.8888888888887
-0.16,0.07,2691.6666666666665
-0.18,0.06,2694.4444444444443
-0.165,0.05,2697.222222222222
-0.16,0.04,2700.0
-0.16,0.04,2702.777777777778
-0.14,0.055,2705.5555555555557
-0.15,0.04,2708.3333333333335
-0.155,0.025,2711.1111111111113
-0.155,-0.005,2713.8888888888887
-0.16,-0.02,2716.6666666666665
-0.16,-0.015,2719.4444444444443
-0.155,-0.01,2722.222222222222
-0.155,-0.01,2725.0
-0.125,-0.02,2727.777777777778
-0.15,-0.035,2730.5555555555557
-0.16,-0.045,2733.3333333333335
-0.145,-0.04,2736.1111111111113
-0.115,-0.015,2738.8888888888887
-0.105,-0.015,2741.6666666666665
-0.115,-0.03,2744.4444444444443
-0.12,-0.025,2747.222222222222
-0.14,-0.015,2750.0
-0.115,-0.005,2752.777777777778
-0.105,0.01,2755.5555555555557
-0.1,0.02,2758.3333333333335
-0.11,0.0,2761.1111111111113
-0.125,-0.005,2763.8888888888887
-0.13,-0.005,2766.6666666666665
-0.13,0.01,2769.4444444444443
-0.115,0.01,2772.222222222222
-0.115,0.005,2775.0
-0.135,0.0,2777.777777777778
-0.135,0.0,2780.5555555555557
-0.13,0.01,2783.3333333333335
-0.12,0.0,2786.1111111111113
-0.115,0.02,2788.8888888888887
-0.12,0.01,2791.6666666666665
-0.135,0.01,2794.4444444444443
-0.13,0.015,2797.222222222222
-0.125,0.01,2800.0
-0.125,0.035,2802.777777777778
-0.105,0.025,2805.5555555555557
-0.115,0.03,2808.3333333333335
-0.12,0.025,2811.1111111111113
-0.13,0.025,2813.8888888888887
-0.135,0.04,2816.6666666666665
-0.12,0.065,2819.4444444444443
-0.125,0.055,2822.222222222222
-0.13,0.055,2825.0
-0.13,0.065,2827.777777777778
-0.145,0.06,2830.5555555555557
-0.13,0.07,2833.3333333333335
-0.135,0.065,2836.1111111111113
-0.115,0.065,2838.8888888888887
-0.12,0.035,2841.6666666666665
-0.12,0.02,2844.4444444444443
-0.135,0.01,2847.222222222222
-0.125,0.01,2850.0
-0.115,0.02,2852.777777777778
-0.09,0.005,2855.5555555555557
-0.11,-0.01,2858.3333333333335
-0.11,-0.025,2861.1111111111113
-0.125,-0.02,2863.8888888888887
-0.105,-0.025,2866.6666666666665
-0.09,0.0,2869.4444444444443
-0.085,-0.005,2872.222222222222
-0.085,-0.01,2875.0
-0.1,-0.015,2877.777777777778
-0.095,-0.015,2880.5555555555557
-0.09,0.01,2883.3333333333335
-0.075,0.015,2886.1111111111113
-0.06,0.015,2888.8888888888887
-0.08,0.005,2891.6666666666665
-0.08,0.005,2894.4444444444443
-0.09,0.01,2897.222222222222
-0.09,0.01,2900.0
-0.075,0.045,2902.777777777778
-0.07,0.03,2905.5555555555557
-0.08,0.025,2908.3333333333335
-0.085,0.015,2911.1111111111113
-0.09,0.01,2913.8888888888887
-0.09,0.02,2916.6666666666665
-0.065,0.025,2919.4444444444443
-0.06,0.03,2922.222222222222
-0.065,0.01,2925.0
-0.085,0.0,2927.777777777778
-0.095,0.0,2930.5555555555557
-0.09,0.005,2933.3333333333335
-0.075,0.01,2936.1111111111113
-0.055,0.005,2938.8888888888887
-0.065,0.005,2941.6666666666665
-0.095,-0.02,2944.4444444444443
-0.095,-0.005,2947.222222222222
-0.095,-0.01,2950.0
-0.075,0.0,2952.777777777778
-0.065,-0.015,2955.5555555555557
-0.075,-0.04,2958.3333333333335
-0.075,-0.045,2961.1111111111113
-0.085,-0.05,2963.8888888888887
-0.075,-0.045,2966.6666666666665
-0.05,-0.04,2969.4444444444443
0.0,-0.055,2972.222222222222
0.075,-0.08,2975.0
0.15,-0.125,2977.777777777778
0.24,-0.15,2980.5555555555557
0.355,-0.17,2983.3333333333335
0.465,-0.19,2986.1111111111113
0.585,-0.21,2988.8888888888887
0.685,-0.21,2991.6666666666665
0.78,-0.245,2994.4444444444443
0.875,-0.275,2997.222222222222
0.945,-0.335,3000.0
1.005,-0.37,3002.777777777778
0.995,-0.375,3005.5555555555557
0.92,-0.38,3008.3333333333335
0.84,-0.375,3011.1111111111113
0.735,-0.335,3013.8888888888887
0.575,-0.27,3016.6666666666665
0.41,-0.205,3019.4444444444443
0.255,-0.165,3022.222222222222
0.135,-0.14,3025.0
0.055,-0.115,3027.777777777778
-0.01,-0.1,3030.5555555555557
-0.045,-0.06,3033.3333333333335
-0.08,-0.03,3036.1111111111113
-0.085,-0.025,3038.8888888888887
-0.11,-0.02,3041.6666666666665
-0.125,-0.015,3044.4444444444443
-0.14,-0.005,3047.222222222222
-0.14,-0.005,3050.0
-0.145,0.02,3052.777777777778
-0.15,0.025,3055.5555555555557
-0.155,0.035,3058.3333333333335
-0.18,0.02,3061.1111111111113
-0.205,0.025,3063.8888888888887
-0.21,0.04,3066.6666666666665
-0.2,0.05,3069.4444444444443
-0.215,0.05,3072.222222222222
-0.235,0.03,3075.0
-0.24,0.02,3077.777777777778
-0.25,0.015,3080.5555555555557
-0.26,0.02,3083.3333333333335
-0.275,0.025,3086.1111111111113
-0.27,0.01,3088.8888888888887
-0.275,-0.01,3091.6666666666665
-0.285,-0.02,3094.4444444444443
-0.315,-0.02,3097.222222222222
-0.315,-0.03,3100.0
-0.315,-0.02,3102.777777777778
-0.3,-0.045,3105.5555555555557
-0.305,-0.03,3108.3333333333335
-0.325,-0.035,3111.1111111111113
-0.325,-0.03,3113.8888888888887
-0.325,-0.02,3116.6666666666665
-0.325,-0.02,3119.4444444444443
-0.325,-0.015,3122.222222222222
-0.32,-0.015,3125.0
-0.335,-0.005,3127.777777777778
-0.34,0.005,3130.5555555555557
-0.335,0.015,3133.3333333333335
-0.32,0.035,3136.1111111111113
-0.315,0.05,3138.8888888888887
-0.315,0.035,3141.6666666666665
-0.32,0.045,3144.4444444444443
-0.335,0.04,3147.222222222222
-0.315,0.06,3150.0
-0.3,0.065,3152.777777777778
-0.295,0.065,3155.5555555555557
-0.3,0.05,3158.3333333333335
-0.305,0.04,3161.1111111111113
-0.32,0.035,3163.8888888888887
-0.32,0.045,3166.6666666666665
-0.29,0.045,3169.4444444444443
-0.28,0.05,3172.222222222222
-0.28,0.06,3175.0
-0.305,0.03,3177.777777777778
-0.295,0.025,3180.5555555555557
-0.285,0.035,3183.3333333333335
-0.26,0.045,3186.1111111111113
-0.26,0.055,3188.8888888888887
-0.245,0.035,3191.6666666666665
-0.255,0.04,3194.4444444444443
-0.255,0.04,3197.222222222222
-0.245,0.055,3200.0
-0.235,0.06,3202.777777777778
-0.22,0.055,3205.5555555555557
-0.22,0.05,3208.3333333333335
-0.235,0.03,3211.1111111111113
-0.225,0.045,3213.8888888888887
-0.22,0.05,3216.6666666666665
-0.205,0.05,3219.4444444444443
-0.19,0.05,3222.222222222222
-0.185,0.01,3225.0
-0.19,-0.02,3227.777777777778
-0.19,-0.06,3230.5555555555557
-0.17,-0.065,3233.3333333333335
-0.155,-0.05,3236.1111111111113
-0.14,-0.06,3238.8888888888887
-0.14,-0.07,3241.6666666666665
-0.145,-0.075,3244.4444444444443
-0.15,-0.075,3247.222222222222
-0.13,-0.055,3250.0
-0.12,-0.04,3252.777777777778
-0.105,-0.035,3255.5555555555557
-0.12,-0.045,3258.3333333333335
-0.115,-0.06,3261.1111111111113
-0.125,-0.035,3263.8888888888887
-0.12,-0.025,3266.6666666666665
-0.11,0.0,3269.4444444444443
-0.105,0.0,3272.222222222222
-0.115,0.005,3275.0
-0.12,0.0,3277.777777777778
-0.125,0.01,3280.5555555555557
-0.13,0.03,3283.3333333333335
-0.11,0.05,3286.1111111111113
-0.085,0.045,3288.8888888888887
-0.085,0.05,3291.6666666666665
-0.1,0.05,3294.4444444444443
-0.11,0.045,3297.222222222222
-0.11,0.055,3300.0
-0.09,0.07,3302.777777777778
-0.075,0.07,3305.5555555555557
-0.075,0.05,3308.3333333333335
-0.095,0.04,3311.1111111111113
-0.11,0.045,3313.8888888888887
-0.1,0.06,3316.6666666666665
-0.09,0.085,3319.4444444444443
-0.08,0.075,3322.222222222222
-0.08,0.075,3325.0
-0.085,0.06,3327.777777777778
-0.085,0.065,3330.5555555555557
-0.085,0.085,3333.3333333333335
-0.075,0.08,3336.1111111111113
-0.065,0.08,3338.8888888888887
-0.075,0.05,3341.6666666666665
-0.085,0.05,3344.4444444444443
-0.1,0.055,3347.222222222222
-0.09,0.05,3350.0
-0.08,0.065,3352.777777777778
-0.075,0.065,3355.5555555555557
-0.08,0.035,3358.3333333333335
-0.09,0.015,3361.1111111111113
-0.11,0.015,3363.8888888888887
-0.105,0.01,3366.6666666666665
-0.1,0.005,3369.4444444444443
-0.085,0.01,3372.222222222222
-0.085,0.0,3375.0
-0.095,-0.005,3377.777777777778
-0.105,-0.01,3380.5555555555557
-0.09,-0.005,3383.3333333333335
-0.11,0.025,3386.1111111111113
-0.09,0.015,3388.8888888888887
-0.08,0.03,3391.6666666666665
-0.08,0.025,3394.4444444444443
-0.105,0.015,3397.222222222222
-0.105,0.03,3400.0
-0.085,0.045,3402.777777777778
-0.075,0.06,3405.5555555555557
-0.085,0.055,3408.3333333333335
-0.105,0.045,3411.1111111111113
-0.105,0.05,3413.8888888888887
-0.1,0.065,3416.6666666666665
-0.08,0.09,3419.4444444444443
-0.075,0.095,3422.222222222222
-0.065,0.08,3425.0
-0.075,0.08,3427.777777777778
-0.085,0.08,3430.5555555555557
-0.085,0.095,3433.3333333333335
-0.085,0.1,3436.1111111111113
-0.07,0.1,3438.8888888888887
-0.055,0.09,3441.6666666666665
-0.07,0.075,3444.4444444444443
-0.09,0.075,3447.222222222222
-0.09,0.08,3450.0
-0.07,0.08,3452.777777777778
-0.06,0.075,3455.5555555555557
-0.055,0.05,3458.3333333333335
-0.07,0.03,3461.1111111111113
-0.08,0.03,3463.8888888888887
-0.075,0.025,3466.6666666666665
-0.075,0.025,3469.4444444444443
-0.045,0.015,3472.222222222222
-0.045,0.01,3475.0
-0.05,-0.01,3477.777777777778
-0.06,-0.005,3480.5555555555557
-0.06,-0.005,3483.3333333333335
-0.055,0.005,3486.1111111111113
-0.045,0.01,3488.8888888888887
-0.055,-0.005,3491.6666666666665
-0.055,-0.01,3494.4444444444443
-0.055,-0.01,3497.222222222222
-0.065,-0.01,3500.0
-0.065,0.005,3502.777777777778
-0.055,0.005,3505.5555555555557
-0.07,-0.01,3508.3333333333335
-0.08,-0.005,3511.1111111111113
-0.105,-0.005,3513.8888888888887
-0.08,-0.01,3516.6666666666665
-0.07,-0.005,3519.4444444444443
-0.07,-0.005,3522.222222222222
-0.075,-0.015,3525.0
-0.085,-0.015,3527.777777777778
-0.1,-0.015,3530.5555555555557
-0.09,0.015,3533.3333333333335
-0.08,0.02,3536.1111111111113
-0.05,0.035,3538.8888888888887
-0.075,0.025,3541.6666666666665
-0.085,0.02,3544.4444444444443
-0.1,0.03,3547.222222222222
-0.08,0.045,3550.0
-0.05,0.055,3552.777777777778
-0.045,0.075,3555.5555555555557
-0.07,0.075,3558.3333333333335
-0.055,0.07,3561.1111111111113
-0.06,0.095,3563.8888888888887
-0.055,0.105,3566.6666666666665
-0.035,0.12,3569.4444444444443
0.0,0.105,3572.222222222222
0.04,0.08,3575.0
0.11,0.035,3577.777777777778
0.21,0.005,3580.5555555555557
0.305,-0.015,3583.3333333333335
0.43,-0.035,3586.1111111111113
0.535,-0.06,3588.8888888888887
0.65,-0.115,3591.6666666666665
0.755,-0.125,3594.4444444444443
0.865,-0.145,3597.222222222222
0.96,-0.21,3600.0
1.02,-0.27,3602.777777777778
1.04,-0.295,3605.5555555555557
1.0,-0.325,3608.3333333333335
0.935,-0.34,3611.1111111111113
0.835,-0.305,3613.8888888888887
0.705,-0.255,3616.6666666666665
0.515,-0.195,3619.4444444444443
0.33,-0.16,3622.222222222222
0.17,-0.135,3625.0
0.09,-0.11,3627.777777777778
0.025,-0.085,3630.5555555555557
-0.01,-0.055,3633.3333333333335
-0.05,-0.03,3636.1111111111113
-0.06,-0.02,3638.8888888888887
-0.09,-0.025,3641.6666666666665
-0.11,-0.02,3644.4444444444443
-0.14,-0.03,3647.222222222222
-0.145,-0.03,3650.0
-0.145,0.0,3652.777777777778
-0.145,0.01,3655.5555555555557
-0.16,-0.005,3658.3333333333335
-0.175,-0.005,3661.1111111111113
-0.2,-0.01,3663.8888888888887
-0.2,0.01,3666.6666666666665
-0.195,0.03,3669.4444444444443
-0.185,0.03,3672.222222222222
-0.2,0.02,3675.0
-0.22,0.01,3677.777777777778
-0.23,0.03,3680.5555555555557
-0.23,0.055,3683.3333333333335
-0.225,0.07,3686.1111111111113
-0.23,0.075,3688.8888888888887
-0.24,0.07,3691.6666666666665
-0.25,0.075,3694.4444444444443
-0.26,0.075,3697.222222222222
-0.27,0.105,3700.0
-0.265,0.12,3702.777777777778
-0.265,0.125,3705.5555555555557
-0.28,0.12,3708.3333333333335
-0.275,0.12,3711.1111111111113
-0.285,0.125,3713.8888888888887
-0.275,0.125,3716.6666666666665
-0.26,0.155,3719.4444444444443
-0.26,0.15,3722.222222222222
-0.26,0.135,3725.0
-0.26,0.125,3727.777777777778
-0.255,0.115,3730.5555555555557
-0.24,0.125,3733.3333333333335
-0.24,0.125,3736.1111111111113
-0.24,0.105,3738.8888888888887
-0.235,0.085,3741.6666666666665
-0.25,0.065,3744.4444444444443
-0.26,0.055,3747.222222222222
-0.25,0.055,3750.0
-0.24,0.065,3752.777777777778
-0.235,0.065,3755.5555555555557
-0.23,0.075,3758.3333333333335
-0.245,0.045,3761.1111111111113
-0.25,0.06,3763.8888888888887
-0.245,0.06,3766.6666666666665
-0.225,0.085,3769.4444444444443
-0.21,0.075,3772.222222222222
-0.205,0.07,3775.0
-0.225,0.065,3777.777777777778
-0.225,0.055,3780.5555555555557
-0.22,0.055,3783.3333333333335
-0.205,0.08,3786.1111111111113
-0.19,0.075,3788.8888888888887
-0.195,0.08,3791.6666666666665
-0.205,0.065,3794.4444444444443
-0.215,0.065,3797.222222222222
-0.21,0.09,3800.0
-0.195,0.08,3802.777777777778
-0.205,0.085,3805.5555555555557
-0.205,0.08,3808.3333333333335
-0.215,0.075,3811.1111111111113
-0.215,0.07,3813.8888888888887
-0.2,0.085,3816.6666666666665
-0.18,0.1,3819.4444444444443
-0.175,0.11,3822.222222222222
-0.18,0.095,3825.0
-0.18,0.09,3827.777777777778
-0.185,0.09,3830.5555555555557
-0.17,0.095,3833.3333333333335
-0.14,0.12,3836.1111111111113
-0.135,0.125,3838.8888888888887
-0.135,0.13,3841.6666666666665
-0.14,0.11,3844.4444444444443
-0.135,0.115,3847.222222222222
-0.13,0.135,3850.0
-0.12,0.14,3852.777777777778
-0.115,0.13,3855.5555555555557
-0.11,0.115,3858.3333333333335
-0.11,0.085,3861.1111111111113
-0.12,0.06,3863.8888888888887
-0.11,0.07,3866.6666666666665
-0.095,0.08,3869.4444444444443
-0.09,0.075,3872.222222222222
-0.075,0.065,3875.0
-0.085,0.045,3877.777777777778
-0.085,0.04,3880.5555555555557
-0.08,0.045,3883.3333333333335
-0.07,0.045,3886.1111111111113
-0.07,0.045,3888.8888888888887
-0.05,0.06,3891.6666666666665
-0.06,0.045,3894.4444444444443
-0.06,0.04,3897.222222222222
-0.05,0.05,3900.0
-0.05,0.06,3902.777777777778
-0.045,0.065,3905.5555555555557
-0.055,0.065,3908.3333333333335
-0.045,0.07,3911.1111111111113
-0.06,0.075,3913.8888888888887
-0.055,0.09,3916.6666666666665
-0.03,0.12,3919.4444444444443
-0.025,0.105,3922.222222222222
-0.025,0.105,3925.0
-0.035,0.105,3927.777777777778
-0.04,0.105,3930.5555555555557
-0.03,0.13,3933.3333333333335
-0.025,0.13,3936.1111111111113
-0.015,0.12,3938.8888888888887
-0.03,0.125,3941.6666666666665
-0.03,0.125,3944.4444444444443
-0.055,0.115,3947.222222222222
-0.04,0.12,3950.0
-0.035,0.14,3952.777777777778
-0.03,0.135,3955.5555555555557
-0.045,0.135,3958.3333333333335
-0.065,0.11,3961.1111111111113
-0.055,0.12,3963.8888888888887
-0.05,0.12,3966.6666666666665
-0.025,0.14,3969.4444444444443
-0.025,0.13,3972.222222222222
-0.025,0.13,3975.0
-0.04,0.12,3977.777777777778
-0.05,0.12,3980.5555555555557
-0.06,0.14,3983.3333333333335
-0.05,0.155,3986.1111111111113
-0.05,0.155,3988.8888888888887
-0.055,0.14,3991.6666666666665
-0.065,0.12,3994.4444444444443
-0.06,0.12,3997.222222222222
-0.075,0.13,4000.0
-0.065,0.13,4002.777777777778
-0.06,0.12,4005.5555555555557
-0.065,0.12,4008.3333333333335
-0.08,0.105,4011.1111111111113
-0.07,0.115,4013.8888888888887
-0.07,0.125,4016.6666666666665
-0.065,0.135,4019.4444444444443
-0.065,0.145,4022.222222222222
-0.055,0.135,4025.0
-0.065,0.115,4027.777777777778
-0.07,0.115,4030.5555555555557
-0.07,0.13,4033.3333333333335
-0.05,0.125,4036.1111111111113
-0.05,0.125,4038.8888888888887
-0.04,0.12,4041.6666666666665
-0.05,0.105,4044.4444444444443
-0.055,0.105,4047.222222222222
-0.05,0.125,4050.0
-0.04,0.135,4052.777777777778
-0.025,0.135,4055.5555555555557
-0.03,0.14,4058.3333333333335
-0.035,0.13,4061.1111111111113
-0.04,0.135,4063.8888888888887
-0.03,0.145,4066.6666666666665
-0.02,0.16,4069.4444444444443
-0.01,0.175,4072.222222222222
-0.01,0.16,4075.0
-0.01,0.155,4077.777777777778
-0.02,0.155,4080.5555555555557
-0.015,0.16,4083.3333333333335
-0.015,0.175,4086.1111111111113
0.005,0.15,4088.8888888888887
-0.005,0.14,4091.6666666666665
-0.01,0.135,4094.4444444444443
-0.025,0.115,4097.222222222223
-0.01,0.12,4100.0
-0.015,0.105,4102.777777777777
0.0,0.095,4105.555555555556
-0.005,0.08,4108.333333333333
-0.02,0.06,4111.111111111111
-0.025,0.05,4113.888888888889
-0.03,0.055,4116.666666666667
-0.02,0.06,4119.444444444444
-0.005,0.065,4122.222222222223
-0.02,0.05,4125.0
-0.035,0.05,4127.777777777777
-0.045,0.06,4130.555555555556
-0.035,0.07,4133.333333333333
-0.02,0.085,4136.111111111111
-0.015,0.095,4138.888888888889
-0.015,0.1,4141.666666666667
-0.04,0.095,4144.444444444444
-0.065,0.09,4147.222222222223
-0.075,0.105,4150.0
-0.055,0.11,4152.777777777777
-0.05,0.1,4155.555555555556
-0.055,0.09,4158.333333333333
-0.075,0.075,4161.111111111111
-0.085,0.1,4163.888888888889
-0.08,0.115,4166.666666666667
-0.075,0.135,4169.444444444444
-0.05,0.12,4172.222222222223
-0.075,0.115,4175.0
-0.06,0.11,4177.777777777777
-0.075,0.115,4180.555555555556
-0.075,0.125,4183.333333333333
-0.075,0.145,4186.111111111111
-0.065,0.135,4188.888888888889
-0.065,0.14,4191.666666666667
-0.09,0.11,4194.444444444444
-0.09,0.115,4197.222222222223
-0.075,0.125,4200.0
-0.07,0.135,4202.777777777777
-0.05,0.14,4205.555555555556
-0.055,0.145,4208.333333333333
-0.065,0.135,4211.111111111111
-0.075,0.135,4213.888888888889
-0.06,0.155,4216.666666666667
-0.04,0.17,4219.444444444444
-0.025,0.17,4222.222222222223
-0.025,0.165,4225.0
-0.04,0.155,4227.777777777777
-0.05,0.165,4230.555555555556
-0.03,0.18,4233.333333333333
-0.02,0.195,4236.111111111111
-0.005,0.185,4238.888888888889
-0.015,0.185,4241.666666666667
-0.035,0.175,4244.444444444444
-0.04,0.18,4247.222222222223
-0.04,0.18,4250.0
-0.035,0.18,4252.777777777777
-0.02,0.18,4255.555555555556
-0.045,0.15,4258.333333333333
-0.065,0.125,4261.111111111111
-0.065,0.115,4263.888888888889
-0.06,0.11,4266.666666666667
-0.055,0.1,4269.444444444444
-0.05,0.085,4272.222222222223
-0.04,0.065,4275.0
-0.055,0.055,4277.777777777777
-0.065,0.055,4280.555555555556
-0.06,0.055,4283.333333333333
-0.055,0.065,4286.111111111111
-0.055,0.065,4288.888888888889
-0.06,0.055,4291.666666666667
-0.085,0.04,4294.444444444444
-0.085,0.055,4297.222222222223
-0.095,0.065,4300.0
-0.07,0.07,4302.777777777777
-0.065,0.075,4305.555555555556
-0.075,0.065,4308.333333333333
-0.085,0.075,4311.111111111111
-0.1,0.065,4313.888888888889
-0.11,0.085,4316.666666666667
-0.105,0.105,4319.444444444444
-0.065,0.115,4322.222222222223
-0.075,0.11,4325.0
-0.085,0.105,4327.777777777777
-0.095,0.11,4330.555555555556
-0.085,0.13,4333.333333333333
-0.075,0.145,4336.111111111111
-0.06,0.145,4338.888888888889
-0.055,0.135,4341.666666666667
-0.07,0.12,4344.444444444444
-0.07,0.125,4347.222222222223
-0.07,0.13,4350.0
-0.055,0.135,4352.777777777777
-0.045,0.135,4355.555555555556
-0.05,0.135,4358.333333333333
-0.055,0.14,4361.111111111111
-0.05,0.145,4363.888888888889
-0.05,0.155,4366.666666666667
-0.03,0.2,4369.444444444444
-0.035,0.19,4372.222222222223
-0.01,0.185,4375.0
0.035,0.155,4377.777777777777
0.105,0.145,4380.555555555556
0.205,0.145,4383.333333333333
0.32,0.135,4386.111111111111
0.445,0.105,4388.888888888889
0.54,0.05,4391.666666666667
0.64,0.015,4394.444444444444
0.755,0.0,4397.222222222223
0.88,-0.03,4400.0
0.965,-0.08,4402.777777777777
1.005,-0.16,4405.555555555556
0.985,-0.205,4408.333333333333
0.92,-0.23,4411.111111111111
0.845,-0.225,4413.888888888889
0.75,-0.2,4416.666666666667
0.635,-0.15,4419.444444444444
0.465,-0.105,4422.222222222223
0.26,-0.075,4425.0
0.105,-0.045,4427.777777777777
0.02,-0.045,4430.555555555556
-0.015,-0.01,4433.333333333333
-0.055,0.025,4436.111111111111
-0.095,0.045,4438.888888888889
-0.14,0.06,4441.666666666667
-0.18,0.06,4444.444444444444
-0.18,0.055,4447.222222222223
-0.18,0.085,4450.0
-0.19,0.095,4452.777777777777
-0.195,0.11,4455.555555555556
-0.205,0.095,4458.333333333333
-0.235,0.09,4461.111111111111
-0.24,0.1,4463.888888888889
-0.235,0.125,4466.666666666667
-0.24,0.14,4469.444444444444
-0.225,0.145,4472.222222222223
-0.23,0.16,4475.0
-0.25,0.15,4477.777777777777
-0.255,0.17,4480.555555555556
-0.265,0.175,4483.333333333333
-0.26,0.2,4486.111111111111
-0.25,0.205,4488.888888888889
-0.26,0.21,4491.666666666667
-0.265,0.2,4494.444444444444
-0.29,0.21,4497.222222222223
-0.275,0.235,4500.0
-0.275,0.24,4502.777777777777
-0.26,0.245,4505.555555555556
-0.265,0.235,4508.333333333333
-0.275,0.225,4511.111111111111
-0.28,0.225,4513.888888888889
-0.295,0.235,4516.666666666667
-0.285,0.255,4519.444444444444
-0.275,0.26,4522.222222222223
-0.28,0.255,4525.0
-0.295,0.24,4527.777777777777
-0.29,0.245,4530.555555555556
-0.29,0.275,4533.333333333333
-0.275,0.285,4536.111111111111
-0.26,0.285,4538.888888888889
-0.265,0.26,4541.666666666667
-0.27,0.225,4544.444444444444
-0.275,0.195,4547.222222222223
-0.28,0.19,4550.0
-0.26,0.175,4552.777777777777
-0.255,0.165,4555.555555555556
-0.26,0.145,4558.333333333333
-0.275,0.125,4561.111111111111
-0.28,0.115,4563.888888888889
-0.28,0.115,4566.666666666667
-0.26,0.135,4569.444444444444
-0.27,0.13,4572.222222222223
-0.27,0.125,4575.0
-0.295,0.095,4577.777777777777
-0.3,0.1,4580.555555555556
-0.295,0.115,4583.333333333333
-0.28,0.125,4586.111111111111
-0.275,0.125,4588.888888888889
-0.275,0.115,4591.666666666667
-0.29,0.095,4594.444444444444
-0.285,0.105,4597.222222222223
-0.29,0.11,4600.0
-0.275,0.145,4602.777777777777
-0.26,0.14,4605.555555555556
-0.265,0.14,4608.333333333333
-0.27,0.13,4611.111111111111
-0.28,0.13,4613.888888888889
-0.28,0.135,4616.666666666667
-0.28,0.16,4619.444444444444
-0.27,0.155,4622.222222222223
-0.28,0.18,4625.0
-0.285,0.185,4627.777777777777
-0.275,0.195,4630.555555555556
-0.26,0.2,4633.333333333333
-0.245,0.225,4636.111111111111
-0.245,0.215,4638.888888888889
-0.25,0.225,4641.666666666667
-0.245,0.215,4644.444444444444
-0.24,0.215,4647.222222222223
-0.245,0.225,4650.0
-0.21,0.23,4652.777777777777
-0.205,0.235,4655.555555555556
-0.2,0.225,4658.333333333333
-0.19,0.205,4661.111111111111
-0.18,0.195,4663.888888888889
-0.165,0.21,4666.666666666667
-0.165,0.21,4669.444444444444
-0.155,0.2,4672.222222222223
-0.15,0.18,4675.0
-0.15,0.17,4677.777777777777
-0.155,0.155,4680.555555555556
-0.15,0.175,4683.333333333333
-0.12,0.175,4686.111111111111
-0.105,0.18,4688.888888888889
-0.1,0.16,4691.666666666667
-0.115,0.145,4694.444444444444
-0.115,0.145,4697.222222222223
-0.11,0.145,4700.0
-0.095,0.15,4702.777777777777
-0.08,0.165,4705.555555555556
-0.105,0.165,4708.333333333333
-0.095,0.14,4711.111111111111
-0.12,0.15,4713.888888888889
-0.11,0.165,4716.666666666667
-0.1,0.175,4719.444444444444
-0.1,0.18,4722.222222222223
-0.1,0.165,4725.0
-0.105,0.165,4727.777777777777
-0.11,0.17,4730.555555555556
-0.125,0.175,4733.333333333333
-0.11,0.19,4736.111111111111
-0.1,0.205,4738.888888888889
-0.11,0.195,4741.666666666667
-0.12,0.205,4744.444444444444
-0.14,0.205,4747.222222222223
-0.135,0.225,4750.0
-0.12,0.235,4752.777777777777
-0.105,0.235,4755.555555555556
-0.13,0.24,4758.333333333333
-0.135,0.225,4761.111111111111
-0.135,0.235,4763.888888888889
-0.13,0.235,4766.666666666667
-0.135,0.25,4769.444444444444
-0.115,0.24,4772.222222222223
-0.125,0.245,4775.0
-0.14,0.22,4777.777777777777
-0.14,0.235,4780.555555555556
-0.125,0.24,4783.333333333333
-0.115,0.245,4786.111111111111
-0.115,0.245,4788.888888888889
-0.12,0.23,4791.666666666667
-0.12,0.21,4794.444444444444
-0.13,0.215,4797.222222222223
-0.12,0.215,4800.0
-0.11,0.21,4802.777777777777
-0.1,0.2,4805.555555555556
-0.095,0.19,4808.333333333333
-0.095,0.15,4811.111111111111
-0.11,0.15,4813.888888888889
-0.115,0.165,4816.666666666667
-0.11,0.175,4819.444444444444
-0.1,0.175,4822.222222222223
-0.095,0.17,4825.0
-0.09,0.16,4827.777777777777
-0.09,0.155,4830.555555555556
-0.115,0.175,4833.333333333333
-0.09,0.195,4836.111111111111
-0.085,0.2,4838.888888888889
-0.08,0.185,4841.666666666667
-0.085,0.175,4844.444444444444
-0.08,0.17,4847.222222222223
-0.085,0.18,4850.0
-0.08,0.175,4852.777777777777
-0.09,0.19,4855.555555555556
-0.09,0.195,4858.333333333333
-0.105,0.17,4861.111111111111
-0.1,0.165,4863.888888888889
-0.12,0.165,4866.666666666667
-0.095,0.18,4869.444444444444
-0.105,0.175,4872.222222222223
-0.095,0.175,4875.0
-0.1,0.17,4877.777777777777
-0.105,0.155,4880.555555555556
-0.11,0.185,4883.333333333333
-0.1,0.195,4886.111111111111
-0.1,0.19,4888.888888888889
-0.115,0.185,4891.666666666667
-0.125,0.19,4894.444444444444
-0.135,0.185,4897.222222222223
-0.135,0.185,4900.0
-0.12,0.195,4902.777777777777
-0.115,0.18,4905.555555555556
-0.105,0.155,4908.333333333333
-0.125,0.135,4911.111111111111
-0.125,0.135,4913.888888888889
-0.12,0.15,4916.666666666667
-0.11,0.16,4919.444444444444
-0.08,0.15,4922.222222222223
-0.095,0.145,4925.0
-0.095,0.14,4927.777777777777
-0.115,0.135,4930.555555555556
-0.12,0.135,4933.333333333333
-0.085,0.145,4936.111111111111
-0.07,0.155,4938.888888888889
-0.07,0.14,4941.666666666667
-0.09,0.13,4944.444444444444
-0.1,0.125,4947.222222222223
-0.1,0.125,4950.0
-0.095,0.135,4952.777777777777
-0.06,0.145,4955.555555555556
-0.06,0.14,4958.333333333333
-0.08,0.13,4961.111111111111
-0.105,0.14,4963.888888888889
-0.085,0.14,4966.666666666667
-0.07,0.15,4969.444444444444
-0.065,0.16,4972.222222222223
-0.06,0.155,4975.0
-0.065,0.155,4977.777777777777
-0.07,0.15,4980.555555555556
-0.09,0.17,4983.333333333333
-0.07,0.17,4986.111111111111
-0.08,0.18,4988.888888888889
-0.065,0.18,4991.666666666667
-0.065,0.165,4994.444444444444
-0.075,0.165,4997.222222222223
-0.07,0.175,5000.0
-0.06,0.185,5002.777777777777
-0.05,0.175,5005.555555555556
-0.07,0.17,5008.333333333333
-0.07,0.17,5011.111111111111
-0.095,0.155,5013.888888888889
-0.075,0.17,5016.666666666667
-0.045,0.165,5019.444444444444
0.01,0.145,5022.222222222223
0.09,0.12,5025.0
0.175,0.075,5027.777777777777
0.28,0.04,5030.555555555556
0.39,0.01,5033.333333333333
0.535,-0.025,5036.111111111111
0.675,-0.065,5038.888888888889
0.79,-0.11,5041.666666666667
0.89,-0.15,5044.444444444444
0.94,-0.205,5047.222222222223
0.95,-0.245,5050.0
0.915,-0.23,5052.777777777777
0.865,-0.215,5055.555555555556
0.755,-0.185,5058.333333333333
0.61,-0.145,5061.111111111111
0.405,-0.075,5063.888888888889
0.21,-0.015,5066.666666666667
0.075,0.03,5069.444444444444
0.02,0.065,5072.222222222223
-0.04,0.08,5075.0
-0.09,0.105,5077.777777777777
-0.145,0.11,5080.555555555556
-0.15,0.13,5083.333333333333
-0.14,0.145,5086.111111111111
-0.135,0.135,5088.888888888889
-0.145,0.145,5091.666666666667
-0.175,0.115,5094.444444444444
-0.185,0.125,5097.222222222223
-0.185,0.145,5100.0
-0.195,0.17,5102.777777777777
-0.18,0.17,5105.555555555556
-0.18,0.18,5108.333333333333
-0.19,0.165,5111.111111111111
-0.195,0.155,5113.888888888889
-0.2,0.175,5116.666666666667
-0.19,0.195,5119.444444444444
-0.195,0.205,5122.222222222223
-0.21,0.195,5125.0
-0.22,0.185,5127.777777777777
-0.215,0.185,5130.555555555556
-0.215,0.2,5133.333333333333
-0.23,0.22,5136.111111111111
-0.22,0.21,5138.888888888889
-0.22,0.22,5141.666666666667
-0.23,0.195,5144.444444444444
-0.24,0.165,5147.222222222223
-0.26,0.17,5150.0
-0.26,0.155,5152.777777777777
-0.25,0.135,5155.555555555556
-0.255,0.125,5158.333333333333
-0.26,0.11,5161.111111111111
-0.27,0.12,5163.888888888889
-0.26,0.125,5166.666666666667
-0.26,0.135,5169.444444444444
-0.26,0.14,5172.222222222223
-0.24,0.13,5175.0
-0.27,0.125,5177.777777777777
-0.275,0.11,5180.555555555556
-0.255,0.12,5183.333333333333
-0.245,0.145,5186.111111111111
-0.245,0.145,5188.888888888889
-0.255,0.135,5191.666666666667
-0.26,0.115,5194.444444444444
-0.27,0.105,5197.222222222223
-0.285,0.13,5200.0
-0.27,0.15,5202.777777777777
-0.27,0.155,5205.555555555556
-0.265,0.15,5208.333333333333
-0.275,0.145,5211.111111111111
-0.28,0.15,5213.888888888889
-0.275,0.165,5216.666666666667
-0.26,0.175,5219.444444444444
-0.24,0.175,5222.222222222223
-0.235,0.165,5225.0
-0.245,0.175,5227.777777777777
-0.255,0.165,5230.555555555556
-0.25,0.185,5233.333333333333
-0.235,0.205,5236.111111111111
-0.23,0.215,5238.888888888889
-0.23,0.2,5241.666666666667
-0.225,0.2,5244.444444444444
-0.22,0.185,5247.222222222223
-0.23,0.205,5250.0
-0.21,0.2,5252.777777777777
-0.195,0.195,5255.555555555556
-0.185,0.175,5258.333333333333
-0.175,0.155,5261.111111111111
-0.175,0.145,5263.888888888889
-0.165,0.13,5266.666666666667
-0.15,0.15,5269.444444444444
-0.13,0.145,5272.222222222223
-0.125,0.135,5275.0
-0.135,0.105,5277.777777777777
-0.115,0.105,5280.555555555556
-0.11,0.12,5283.333333333333
-0.1,0.13,5286.111111111111
-0.08,0.115,5288.888888888889
-0.085,0.105,5291.666666666667
-0.1,0.095,5294.444444444444
-0.095,0.09,5297.222222222223
-0.1,0.105,5300.0
-0.085,0.115,5302.777777777777
-0.065,0.115,5305.555555555556
-0.055,0.12,5308.333333333333
-0.075,0.12,5311.111111111111
-0.08,0.1,5313.888888888889
-0.075,0.125,5316.666666666667
-0.065,0.135,5319.444444444444
-0.05,0.14,5322.222222222223
-0.045,0.13,5325.0
-0.055,0.13,5327.777777777777
-0.08,0.13,5330.555555555556
-0.085,0.155,5333.333333333333
-0.065,0.15,5336.111111111111
-0.065,0.17,5338.888888888889
-0.075,0.165,5341.666666666667
-0.075,0.16,5344.444444444444
-0.08,0.155,5347.222222222223
-0.085,0.175,5350.0
-0.09,0.195,5352.777777777777
-0.065,0.2,5355.555555555556
-0.065,0.21,5358.333333333333
-0.07,0.21,5361.111111111111
-0.075,0.21,5363.888888888889
-0.07,0.205,5366.666666666667
-0.075,0.235,5369.444444444444
-0.065,0.225,5372.222222222223
-0.05,0.215,5375.0
-0.065,0.19,5377.777777777777
-0.07,0.165,5380.555555555556
-0.055,0.165,5383.333333333333
-0.06,0.155,5386.111111111111
-0.035,0.145,5388.888888888889
-0.04,0.135,5391.666666666667
-0.045,0.13,5394.444444444444
-0.05,0.125,5397.222222222223
-0.05,0.155,5400.0
-0.035,0.16,5402.777777777777
-0.015,0.185,5405.555555555556
-0.015,0.175,5408.333333333333
-0.015,0.16,5411.111111111111
-0.025,0.165,5413.888888888889
-0.02,0.165,5416.666666666667
-0.01,0.18,5419.444444444444
0.005,0.18,5422.222222222223
0.005,0.165,5425.0
-0.01,0.155,5427.777777777777
-0.03,0.145,5430.555555555556
-0.025,0.16,5433.333333333333
-0.005,0.165,5436.111111111111
0.0,0.155,5438.888888888889
-0.01,0.145,5441.666666666667
-0.015,0.13,5444.444444444444
-0.04,0.115,5447.222222222223
-0.035,0.13,5450.0
-0.025,0.15,5452.777777777777
-0.02,0.145,5455.555555555556
-0.02,0.14,5458.333333333333
-0.03,0.14,5461.111111111111
-0.045,0.13,5463.888888888889
-0.05,0.135,5466.666666666667
-0.045,0.165,5469.444444444444
-0.03,0.175,5472.222222222223
-0.035,0.17,5475.0
-0.04,0.17,5477.777777777777
-0.055,0.175,5480.555555555556
-0.065,0.19,5483.333333333333
-0.07,0.195,5486.111111111111
-0.065,0.205,5488.888888888889
-0.06,0.19,5491.666666666667
-0.075,0.18,5494.444444444444
-0.085,0.195,5497.222222222223
-0.075,0.185,5500.0
-0.065,0.205,5502.777777777777
-0.055,0.2,5505.555555555556
-0.05,0.19,5508.333333333333
-0.065,0.185,5511.111111111111
-0.07,0.175,5513.888888888889
-0.055,0.17,5516.666666666667
-0.06,0.19,5519.444444444444
-0.045,0.175,5522.222222222223
-0.035,0.165,5525.0
-0.055,0.145,5527.777777777777
-0.055,0.145,5530.555555555556
-0.055,0.16,5533.333333333333
-0.035,0.175,5536.111111111111
-0.01,0.175,5538.888888888889
-0.02,0.17,5541.666666666667
-0.04,0.155,5544.444444444444
-0.035,0.155,5547.222222222223
-0.035,0.165,5550.0
-0.02,0.17,5552.777777777777
-0.005,0.18,5555.555555555556
0.0,0.175,5558.333333333333
-0.02,0.155,5561.111111111111
-0.035,0.16,5563.888888888889
-0.03,0.16,5566.666666666667
-0.005,0.17,5569.444444444444
0.0,0.16,5572.222222222223
-0.005,0.155,5575.0
0.0,0.145,5577.777777777777
-0.015,0.13,5580.555555555556
-0.03,0.135,5583.333333333333
-0.02,0.13,5586.111111111111
0.0,0.125,5588.888888888889
-0.005,0.12,5591.666666666667
-0.025,0.105,5594.444444444444
-0.03,0.095,5597.222222222223
-0.035,0.1,5600.0
-0.01,0.095,5602.777777777777
0.015,0.065,5605.555555555556
0.08,0.04,5608.333333333333
0.16,0.01,5611.111111111111
0.255,-0.025,5613.888888888889
0.39,-0.045,5616.666666666667
0.505,-0.07,5619.444444444444
0.655,-0.085,5622.222222222223
0.77,-0.075,5625.0
0.88,-0.11,5627.777777777777
0.975,-0.16,5630.555555555556
1.03,-0.2,5633.333333333333
1.03,-0.22,5636.111111111111
1.0,-0.22,5638.888888888889
0.895,-0.18,5641.666666666667
0.76,-0.135,5644.444444444444
0.585,-0.075,5647.222222222223
0.37,-0.01,5650.0
0.21,0.035,5652.777777777777
0.1,0.08,5655.555555555556
0.025,0.095,5658.333333333333
-0.025,0.1,5661.111111111111
-0.075,0.12,5663.888888888889
-0.1,0.145,5666.666666666667
-0.11,0.17,5669.444444444444
-0.125,0.155,5672.222222222223
-0.125,0.16,5675.0
-0.15,0.155,5677.777777777777
-0.175,0.16,5680.555555555556
-0.175,0.17,5683.333333333333
-0.17,0.18,5686.111111111111
-0.17,0.18,5688.888888888889
-0.18,0.17,5691.666666666667
-0.19,0.18,5694.444444444444
-0.21,0.18,5697.222222222223
-0.195,0.18,5700.0
-0.195,0.17,5702.777777777777
-0.185,0.165,5705.555555555556
-0.185,0.155,5708.333333333333
-0.195,0.15,5711.111111111111
-0.22,0.125,5713.888888888889
-0.225,0.13,5716.666666666667
-0.225,0.125,5719.444444444444
-0.205,0.12,5722.222222222223
-0.205,0.09,5725.0
-0.22,0.075,5727.777777777777
-0.245,0.075,5730.555555555556
-0.255,0.065,5733.333333333333
-0.245,0.075,5736.111111111111
-0.235,0.065,5738.888888888889
-0.235,0.045,5741.666666666667
-0.25,0.04,5744.444444444444
-0.255,0.05,5747.222222222223
-0.255,0.065,5750.0
-0.255,0.09,5752.777777777777
-0.26,0.09,5755.555555555556
-0.245,0.11,5758.333333333333
-0.25,0.1,5761.111111111111
-0.27,0.1,5763.888888888889
-0.265,0.115,5766.666666666667
-0.255,0.12,5769.444444444444
-0.255,0.155,5772.222222222223
-0.25,0.15,5775.0
-0.27,0.14,5777.777777777777
-0.265,0.15,5780.555555555556
-0.265,0.165,5783.333333333333
-0.255,0.18,5786.111111111111
-0.245,0.185,5788.888888888889
-0.245,0.195,5791.666666666667
-0.26,0.18,5794.444444444444
-0.265,0.19,5797.222222222223
-0.25,0.2,5800.0
-0.25,0.21,5802.777777777777
-0.23,0.195,5805.555555555556
-0.245,0.195,5808.333333333333
-0.235,0.185,5811.111111111111
-0.245,0.17,5813.888888888889
-0.24,0.165,5816.666666666667
-0.225,0.175,5819.444444444444
-0.21,0.17,5822.222222222223
-0.21,0.16,5825.0
-0.21,0.135,5827.777777777777
-0.215,0.125,5830.555555555556
-0.195,0.13,5833.333333333333
-0.185,0.125,5836.111111111111
-0.16,0.115,5838.888888888889
-0.145,0.11,5841.666666666667
-0.145,0.09,5844.444444444444
-0.135,0.085,5847.222222222223
-0.12,0.105,5850.0
-0.1,0.095,5852.777777777777
-0.085,0.1,5855.555555555556
-0.08,0.08,5858.333333333333
-0.085,0.07,5861.111111111111
-0.105,0.085,5863.888888888889
-0.11,0.08,5866.666666666667
-0.09,0.1,5869.444444444444
-0.075,0.095,5872.222222222223
-0.07,0.09,5875.0
-0.075,0.085,5877.777777777777
-0.08,0.085,5880.555555555556
-0.075,0.105,5883.333333333333
-0.065,0.12,5886.111111111111
-0.04,0.13,5888.888888888889
-0.055,0.135,5891.666666666667
-0.06,0.135,5894.444444444444
-0.07,0.135,5897.222222222223
-0.07,0.145,5900.0
-0.065,0.175,5902.777777777777
-0.05,0.17,5905.555555555556
-0.045,0.16,5908.333333333333
-0.065,0.15,5911.111111111111
-0.08,0.165,5913.888888888889
-0.085,0.175,5916.666666666667
-0.085,0.2,5919.444444444444
-0.075,0.19,5922.222222222223
-0.075,0.185,5925.0
-0.07,0.18,5927.777777777777
-0.085,0.175,5930.555555555556
-0.1,0.175,5933.333333333333
-0.095,0.18,5936.111111111111
-0.08,0.165,5938.888888888889
-0.065,0.16,5941.666666666667
-0.075,0.125,5944.444444444444
-0.085,0.115,5947.222222222223
-0.08,0.11,5950.0
-0.09,0.12,5952.777777777777
-0.075,0.13,5955.555555555556
-0.08,0.125,5958.333333333333
-0.085,0.115,5961.111111111111
-0.085,0.115,5963.888888888889
-0.085,0.14,5966.666666666667
-0.065,0.145,5969.444444444444
-0.055,0.14,5972.222222222223
-0.04,0.14,5975.0
-0.045,0.125,5977.777777777777
-0.05,0.12,5980.555555555556
-0.05,0.135,5983.333333333333
-0.04,0.145,5986.111111111111
-0.035,0.145,5988.888888888889
-0.045,0.155,5991.666666666667
-0.07,0.12,5994.444444444444
-0.065,0.125,5997.222222222223
-0.065,0.13,6000.0
-0.055,0.12,6002.777777777777
-0.06,0.14,6005.555555555556
-0.055,0.135,6008.333333333333
-0.06,0.125,6011.111111111111
-0.075,0.11,6013.888888888889
-0.085,0.125,6016.666666666667
-0.065,0.125,6019.444444444444
-0.06,0.125,6022.222222222223
-0.07,0.125,6025.0
-0.09,0.115,6027.777777777777
-0.1,0.095,6030.555555555556
-0.095,0.115,6033.333333333333
-0.085,0.14,6036.111111111111
-0.07,0.125,6038.888888888889
-0.08,0.125,6041.666666666667
-0.09,0.105,6044.444444444444
-0.1,0.105,6047.222222222223
-0.09,0.115,6050.0
-0.1,0.145,6052.777777777777
-0.095,0.125,6055.555555555556
-0.09,0.125,6058.333333333333
-0.095,0.125,6061.111111111111
-0.1,0.115,6063.888888888889
-0.095,0.13,6066.666666666667
-0.075,0.135,6069.444444444444
-0.075,0.13,6072.222222222223
-0.065,0.115,6075.0
-0.075,0.115,6077.777777777777
-0.08,0.11,6080.555555555556
-0.09,0.115,6083.333333333333
-0.075,0.125,6086.111111111111
-0.085,0.12,6088.888888888889
-0.075,0.125,6091.666666666667
-0.075,0.11,6094.444444444444
-0.08,0.12,6097.222222222223
-0.08,0.125,6100.0
-0.07,0.145,6102.777777777777
-0.065,0.15,6105.555555555556
-0.06,0.145,6108.333333333333
-0.055,0.145,6111.111111111111
-0.07,0.145,6113.888888888889
-0.08,0.15,6116.666666666667
-0.055,0.15,6119.444444444444
-0.055,0.155,6122.222222222223
-0.06,0.15,6125.0
-0.075,0.14,6127.777777777777
-0.065,0.13,6130.555555555556
-0.065,0.14,6133.333333333333
-0.055,0.15,6136.111111111111
-0.055,0.15,6138.888888888889
-0.055,0.14,6141.666666666667
-0.07,0.105,6144.444444444444
-0.085,0.085,6147.222222222223
-0.085,0.065,6150.0
-0.075,0.065,6152.777777777777
-0.07,0.05,6155.555555555556
-0.06,0.04,6158.333333333333
-0.07,0.03,6161.111111111111
-0.08,0.025,6163.888888888889
-0.075,0.03,6166.666666666667
-0.075,0.05,6169.444444444444
-0.055,0.045,6172.222222222223
-0.05,0.045,6175.0
-0.065,0.045,6177.777777777777
-0.075,0.04,6180.555555555556
-0.075,0.06,6183.333333333333
-0.065,0.055,6186.111111111111
-0.06,0.055,6188.888888888889
-0.07,0.05,6191.666666666667
-0.07,0.05,6194.444444444444
-0.08,0.04,6197.222222222223
-0.09,0.06,6200.0
-0.07,0.085,6202.777777777777
-0.065,0.085,6205.555555555556
-0.065,0.095,6208.333333333333
-0.09,0.11,6211.111111111111
-0.085,0.105,6213.888888888889
-0.075,0.12,6216.666666666667
-0.03,0.115,6219.444444444444
0.04,0.09,6222.222222222223
0.145,0.065,6225.0
0.26,0.015,6227.777777777777
0.375,-0.005,6230.555555555556
0.485,-0.045,6233.333333333333
0.6,-0.06,6236.111111111111
0.725,-0.05,6238.888888888889
0.855,-0.09,6241.666666666667
0.925,-0.175,6244.444444444444
0.955,-0.225,6247.222222222223
0.945,-0.235,6250.0
0.905,-0.215,6252.777777777777
0.825,-0.19,6255.555555555556
0.7,-0.145,6258.333333333333
0.505,-0.095,6261.111111111111
0.27,-0.05,6263.888888888889
0.105,0.0,6266.666666666667
0.02,0.035,6269.444444444444
-0.02,0.045,6272.222222222223
-0.09,0.045,6275.0
-0.12,0.025,6277.777777777777
-0.16,0.02,6280.555555555556
-0.175,0.025,6283.333333333333
-0.165,0.035,6286.111111111111
-0.195,0.045,6288.888888888889
-0.21,0.05,6291.666666666667
-0.22,0.025,6294.444444444444
-0.23,0.025,6297.222222222223
-0.24,0.035,6300.0
-0.235,0.065,6302.777777777777
-0.245,0.075,6305.555555555556
-0.255,0.075,6308.333333333333
-0.26,0.065,6311.111111111111
-0.27,0.06,6313.888888888889
-0.27,0.09,6316.666666666667
-0.265,0.1,6319.444444444444
-0.265,0.09,6322.222222222223
-0.285,0.1,6325.0
-0.305,0.1,6327.777777777777
-0.305,0.09,6330.555555555556
-0.305,0.105,6333.333333333333
-0.31,0.14,6336.111111111111
-0.29,0.15,6338.888888888889
-0.29,0.15,6341.666666666667
-0.29,0.14,6344.444444444444
-0.29,0.145,6347.222222222223
-0.28,0.155,6350.0
-0.27,0.155,6352.777777777777
-0.26,0.16,6355.555555555556
-0.285,0.16,6358.333333333333
-0.275,0.145,6361.111111111111
-0.295,0.135,6363.888888888889
-0.29,0.14,6366.666666666667
-0.27,0.165,6369.444444444444
-0.275,0.165,6372.222222222223
-0.275,0.155,6375.0
-0.275,0.14,6377.777777777777
-0.28,0.14,6380.555555555556
-0.275,0.145,6383.333333333333
-0.27,0.135,6386.111111111111
-0.255,0.13,6388.888888888889
-0.26,0.11,6391.666666666667
-0.28,0.1,6394.444444444444
-0.27,0.09,6397.222222222223
-0.265,0.105,6400.0
-0.245,0.12,6402.777777777777
-0.245,0.1,6405.555555555556
-0.245,0.095,6408.333333333333
-0.25,0.075,6411.111111111111
-0.26,0.075,6413.888888888889
-0.26,0.09,6416.666666666667
-0.25,0.1,6419.444444444444
-0.24,0.1,6422.222222222223
-0.25,0.095,6425.0
-0.25,0.06,6427.777777777777
-0.26,0.07,6430.555555555556
-0.25,0.07,6433.333333333333
-0.23,0.085,6436.111111111111
-0.22,0.085,6438.888888888889
-0.215,0.085,6441.666666666667
-0.215,0.055,6444.444444444444
-0.215,0.065,6447.222222222223
-0.21,0.07,6450.0
-0.19,0.07,6452.777777777777
-0.175,0.065,6455.555555555556
-0.175,0.07,6458.333333333333
-0.18,0.065,6461.111111111111
-0.2,0.05,6463.888888888889
-0.2,0.08,6466.666666666667
-0.18,0.105,6469.444444444444
-0.165,0.11,6472.222222222223
-0.155,0.12,6475.0
-0.155,0.11,6477.777777777777
-0.15,0.115,6480.555555555556
-0.145,0.14,6483.333333333333
-0.135,0.155,6486.111111111111
-0.125,0.16,6488.888888888889
-0.135,0.145,6491.666666666667
-0.115,0.13,6494.444444444444
-0.13,0.135,6497.222222222223
-0.115,0.14,6500.0
-0.11,0.16,6502.777777777777
-0.11,0.15,6505.555555555556
-0.105,0.15,6508.333333333333
-0.11,0.15,6511.111111111111
-0.13,0.14,6513.888888888889
-0.11,0.155,6516.666666666667
-0.1,0.16,6519.444444444444
-0.09,0.16,6522.222222222223
-0.09,0.155,6525.0
-0.09,0.15,6527.777777777777
-0.11,0.14,6530.555555555556
-0.1,0.145,6533.333333333333
-0.09,0.14,6536.111111111111
-0.08,0.135,6538.888888888889
-0.085,0.13,6541.666666666667
-0.095,0.11,6544.444444444444
-0.12,0.1,6547.222222222223
-0.11,0.1,6550.0
-0.105,0.095,6552.777777777777
-0.1,0.08,6555.555555555556
-0.105,0.07,6558.333333333333
-0.115,0.05,6561.111111111111
-0.12,0.05,6563.888888888889
-0.125,0.065,6566.666666666667
-0.115,0.06,6569.444444444444
-0.1,0.075,6572.222222222223
-0.1,0.075,6575.0
-0.12,0.07,6577.777777777777
-0.135,0.07,6580.555555555556
-0.14,0.08,6583.333333333333
-0.145,0.1,6586.111111111111
-0.125,0.095,6588.888888888889
-0.13,0.105,6591.666666666667
-0.13,0.09,6594.444444444444
-0.16,0.09,6597.222222222223
-0.16,0.1,6600.0
-0.14,0.135,6602.777777777777
-0.13,0.14,6605.555555555556
-0.135,0.145,6608.333333333333
-0.145,0.145,6611.111111111111
-0.15,0.155,6613.888888888889
-0.14,0.165,6616.666666666667
-0.14,0.185,6619.444444444444
-0.13,0.19,6622.222222222223
-0.13,0.195,6625.0
-0.14,0.18,6627.777777777777
-0.14,0.185,6630.555555555556
-0.145,0.21,6633.333333333333
-0.135,0.21,6636.111111111111
-0.11,0.2,6638.888888888889
-0.115,0.195,6641.666666666667
-0.125,0.18,6644.444444444444
-0.13,0.17,6647.222222222223
-0.13,0.17,6650.0
-0.125,0.195,6652.777777777777
-0.1,0.185,6655.555555555556
-0.1,0.175,6658.333333333333
-0.105,0.155,6661.111111111111
-0.115,0.14,6663.888888888889
-0.105,0.145,6666.666666666667
-0.09,0.145,6669.444444444444
-0.075,0.135,6672.222222222223
-0.09,0.135,6675.0
-0.095,0.11,6677.777777777777
-0.105,0.1,6680.555555555556
-0.1,0.1,6683.333333333333
-0.085,0.105,6686.111111111111
-0.065,0.1,6688.888888888889
-0.07,0.1,6691.666666666667
-0.095,0.075,6694.444444444444
-0.11,0.075,6697.222222222223
-0.1,0.085,6700.0
-0.1,0.095,6702.777777777777
-0.085,0.075,6705.555555555556
-0.095,0.08,6708.333333333333
-0.105,0.06,6711.111111111111
-0.12,0.065,6713.888888888889
-0.13,0.075,6716.666666666667
-0.115,0.085,6719.444444444444
-0.125,0.085,6722.222222222223
-0.115,0.095,6725.0
-0.125,0.075,6727.777777777777
-0.14,0.1,6730.555555555556
-0.13,0.11,6733.333333333333
-0.135,0.115,6736.111111111111
-0.14,0.12,6738.888888888889
-0.135,0.12,6741.666666666667
-0.15,0.11,6744.444444444444
-0.155,0.12,6747.222222222223
-0.16,0.14,6750.0
-0.15,0.14,6752.777777777777
-0.14,0.145,6755.555555555556
-0.145,0.16,6758.333333333333
-0.16,0.15,6761.111111111111
-0.17,0.14,6763.888888888889
-0.165,0.145,6766.666666666667
-0.145,0.16,6769.444444444444
-0.13,0.16,6772.222222222223
-0.145,0.14,6775.0
-0.15,0.135,6777.777777777777
-0.17,0.125,6780.555555555556
-0.17,0.13,6783.333333333333
-0.165,0.145,6786.111111111111
-0.15,0.145,6788.888888888889
-0.155,0.135,6791.666666666667
-0.17,0.115,6794.444444444444
-0.165,0.12,6797.222222222223
-0.165,0.115,6800.0
-0.145,0.125,6802.777777777777
-0.135,0.135,6805.555555555556
-0.13,0.125,6808.333333333333
-0.145,0.125,6811.111111111111
-0.135,0.105,6813.888888888889
-0.12,0.13,6816.666666666667
-0.12,0.12,6819.444444444444
-0.105,0.13,6822.222222222223
-0.09,0.1,6825.0
-0.11,0.11,6827.777777777777
-0.115,0.1,6830.555555555556
-0.11,0.11,6833.333333333333
-0.11,0.115,6836.111111111111
-0.095,0.115,6838.888888888889
-0.115,0.11,6841.666666666667
-0.11,0.09,6844.444444444444
-0.12,0.085,6847.222222222223
-0.125,0.08,6850.0
-0.11,0.085,6852.777777777777
-0.11,0.09,6855.555555555556
-0.115,0.09,6858.333333333333
-0.135,0.085,6861.111111111111
-0.14,0.075,6863.888888888889
-0.15,0.095,6866.666666666667
-0.13,0.105,6869.444444444444
-0.13,0.115,6872.222222222223
-0.13,0.105,6875.0
-0.14,0.105,6877.777777777777
-0.145,0.1,6880.555555555556
-0.15,0.09,6883.333333333333
-0.14,0.12,6886.111111111111
-0.135,0.12,6888.888888888889
-0.125,0.13,6891.666666666667
-0.155,0.11,6894.444444444444
-0.14,0.115,6897.222222222223
-0.16,0.13,6900.0
-0.145,0.135,6902.777777777777
-0.13,0.135,6905.555555555556
-0.125,0.14,6908.333333333333
-0.15,0.12,6911.111111111111
-0.15,0.12,6913.888888888889
-0.16,0.135,6916.666666666667
-0.135,0.145,6919.444444444444
-0.135,0.16,6922.222222222223
-0.125,0.16,6925.0
-0.135,0.155,6927.777777777777
-0.14,0.14,6930.555555555556
-0.105,0.135,6933.333333333333
-0.05,0.12,6936.111111111111
0.04,0.11,6938.888888888889
0.13,0.075,6941.666666666667
0.225,0.035,6944.444444444444
0.315,-0.01,6947.222222222223
0.42,-0.04,6950.0
0.545,-0.055,6952.777777777777
0.66,-0.06,6955.555555555556
0.78,-0.095,6958.333333333333
0.855,-0.155,6961.111111111111
0.905,-0.21,6963.888888888889
0.92,-0.225,6966.666666666667
0.91,-0.225,6969.444444444444
0.875,-0.22,6972.222222222223
0.805,-0.215,6975.0
0.705,-0.17,6977.777777777777
0.56,-0.115,6980.555555555556
0.36,-0.07,6983.333333333333
0.205,-0.015,6986.111111111111
0.08,0.015,6988.888888888889
0.015,0.03,6991.666666666667
-0.025,0.05,6994.444444444444
-0.075,0.055,6997.222222222223
-0.12,0.095,7000.0
-0.155,0.125,7002.777777777777
-0.17,0.12,7005.555555555556
-0.18,0.12,7008.333333333333
-0.205,0.11,7011.111111111111
-0.235,0.095,7013.888888888889
-0.245,0.085,7016.666666666667
-0.245,0.105,7019.444444444444
-0.245,0.105,7022.222222222223
-0.245,0.11,7025.0
-0.265,0.1,7027.777777777777
-0.29,0.095,7030.555555555556
-0.285,0.09,7033.333333333333
-0.28,0.105,7036.111111111111
-0.27,0.095,7038.888888888889
-0.28,0.1,7041.666666666667
-0.295,0.095,7044.444444444444
-0.305,0.095,7047.222222222223
-0.31,0.105,7050.0
-0.31,0.11,7052.777777777777
-0.305,0.12,7055.555555555556
-0.305,0.105,7058.333333333333
-0.33,0.11,7061.111111111111
-0.35,0.12,7063.888888888889
-0.345,0.125,7066.666666666667
-0.34,0.135,7069.444444444444
-0.33,0.15,7072.222222222223
-0.33,0.145,7075.0
-0.34,0.135,7077.777777777777
-0.35,0.145,7080.555555555556
-0.345,0.16,7083.333333333333
-0.335,0.17,7086.111111111111
-0.34,0.17,7088.888888888889
-0.32,0.16,7091.666666666667
-0.335,0.155,7094.444444444444
-0.345,0.15,7097.222222222223
-0.35,0.155,7100.0
-0.335,0.16,7102.777777777777
-0.33,0.165,7105.555555555556
-0.335,0.155,7108.333333333333
-0.35,0.16,7111.111111111111
-0.34,0.16,7113.888888888889
-0.34,0.175,7116.666666666667
-0.32,0.195,7119.444444444444
-0.315,0.2,7122.222222222223
-0.315,0.19,7125.0
-0.32,0.185,7127.777777777777
-0.315,0.165,7130.555555555556
-0.31,0.16,7133.333333333333
-0.295,0.18,7136.111111111111
-0.29,0.155,7138.888888888889
-0.285,0.155,7141.666666666667
-0.295,0.15,7144.444444444444
-0.315,0.13,7147.222222222223
-0.31,0.135,7150.0
-0.295,0.14,7152.777777777777
-0.285,0.12,7155.555555555556
-0.27,0.12,7158.333333333333
-0.3,0.11,7161.111111111111
-0.305,0.095,7163.888888888889
-0.315,0.105,7166.666666666667
-0.3,0.11,7169.444444444444
-0.27,0.115,7172.222222222223
-0.27,0.1,7175.0
-0.285,0.09,7177.777777777777
-0.285,0.095,7180.555555555556
-0.285,0.095,7183.333333333333
-0.285,0.11,7186.111111111111
-0.27,0.11,7188.888888888889
-0.27,0.12,7191.666666666667
-0.26,0.11,7194.444444444444
-0.265,0.11,7197.222222222223
-0.275,0.125,7200.0
-0.26,0.125,7202.777777777777
-0.245,0.14,7205.555555555556
-0.255,0.135,7208.333333333333
-0.25,0.135,7211.111111111111
-0.24,0.155,7213.888888888889
-0.24,0.155,7216.666666666667
-0.225,0.175,7219.444444444444
-0.215,0.17,7222.222222222223
-0.21,0.19,7225.0
-0.19,0.175,7227.777777777777
-0.205,0.18,7230.555555555556
-0.19,0.18,7233.333333333333
-0.18,0.195,7236.111111111111
-0.17,0.2,7238.888888888889
-0.175,0.185,7241.666666666667
-0.17,0.165,7244.444444444444
-0.17,0.145,7247.222222222223
-0.155,0.145,7250.0
-0.15,0.15,7252.777777777777
-0.14,0.155,7255.555555555556
-0.15,0.14,7258.333333333333
-0.15,0.125,7261.111111111111
-0.16,0.13,7263.888888888889
-0.145,0.135,7266.666666666667
-0.135,0.135,7269.444444444444
-0.12,0.13,7272.222222222223
-0.12,0.13,7275.0
-0.13,0.115,7277.777777777777
-0.15,0.105,7280.555555555556
-0.135,0.115,7283.333333333333
-0.13,0.12,7286.111111111111
-0.13,0.12,7288.888888888889
-0.13,0.105,7291.666666666667
-0.14,0.1,7294.444444444444
-0.165,0.09,7297.222222222223
-0.16,0.1,7300.0
-0.155,0.115,7302.777777777777
-0.145,0.115,7305.555555555556
-0.155,0.125,7308.333333333333
-0.175,0.12,7311.111111111111
-0.185,0.115,7313.888888888889
-0.18,0.14,7316.666666666667
-0.175,0.145,7319.444444444444
-0.18,0.16,7322.222222222223
-0.165,0.16,7325.0
-0.17,0.16,7327.777777777777
-0.185,0.155,7330.555555555556
-0.19,0.165,7333.333333333333
-0.17,0.175,7336.111111111111
-0.17,0.175,7338.888888888889
-0.175,0.18,7341.666666666667
-0.18,0.155,7344.444444444444
-0.19,0.16,7347.222222222223
-0.19,0.17,7350.0
-0.185,0.18,7352.777777777777
-0.175,0.2,7355.555555555556
-0.175,0.18,7358.333333333333
-0.185,0.18,7361.111111111111
-0.195,0.165,7363.888888888889
-0.185,0.17,7366.666666666667
-0.175,0.185,7369.444444444444
-0.155,0.18,7372.222222222223
-0.165,0.16,7375.0
-0.175,0.14,7377.777777777777
-0.185,0.135,7380.555555555556
-0.165,0.14,7383.333333333333
-0.15,0.135,7386.111111111111
-0.14,0.13,7388.888888888889
-0.15,0.115,7391.666666666667
-0.175,0.11,7394.444444444444
-0.17,0.1,7397.222222222223
-0.17,0.105,7400.0
-0.16,0.11,7402.777777777777
-0.155,0.115,7405.555555555556
-0.16,0.115,7408.333333333333
-0.165,0.11,7411.111111111111
-0.165,0.1,7413.888888888889
-0.155,0.12,7416.666666666667
-0.155,0.135,7419.444444444444
-0.145,0.135,7422.222222222223
-0.14,0.13,7425.0
-0.15,0.13,7427.777777777777
-0.15,0.13,7430.555555555556
-0.15,0.155,7433.333333333333
-0.17,0.15,7436.111111111111
-0.15,0.155,7438.888888888889
-0.145,0.15,7441.666666666667
-0.165,0.135,7444.444444444444
-0.185,0.12,7447.222222222223
-0.185,0.14,7450.0
-0.18,0.15,7452.777777777777
-0.165,0.145,7455.555555555556
-0.18,0.135,7458.333333333333
-0.19,0.125,7461.111111111111
-0.185,0.125,7463.888888888889
-0.195,0.13,7466.666666666667
-0.17,0.135,7469.444444444444
-0.16,0.15,7472.222222222223
-0.175,0.135,7475.0
-0.19,0.12,7477.777777777777
-0.195,0.12,7480.555555555556
-0.175,0.135,7483.333333333333
-0.185,0.14,7486.111111111111
-0.175,0.14,7488.888888888889
-0.18,0.135,7491.666666666667
-0.21,0.115,7494.444444444444
-0.21,0.125,7497.222222222223
-0.21,0.12,7500.0
-0.21,0.125,7502.777777777777
-0.19,0.115,7505.555555555556
-0.19,0.12,7508.333333333333
-0.195,0.11,7511.111111111111
-0.21,0.105,7513.888888888889
-0.19,0.11,7516.666666666667
-0.195,0.125,7519.444444444444
-0.185,0.12,7522.222222222223
-0.17,0.115,7525.0
-0.175,0.08,7527.777777777777
-0.195,0.085,7530.555555555556
-0.185,0.09,7533.333333333333
-0.18,0.1,7536.111111111111
-0.16,0.095,7538.888888888889
-0.16,0.085,7541.666666666667
-0.18,0.07,7544.444444444444
-0.185,0.08,7547.222222222223
-0.17,0.095,7550.0
-0.16,0.105,7552.777777777777
-0.15,0.11,7555.555555555556
-0.155,0.105,7558.333333333333
-0.16,0.09,7561.111111111111
-0.18,0.1,7563.888888888889
-0.16,0.1,7566.666666666667
-0.14,0.12,7569.444444444444
-0.135,0.13,7572.222222222223
-0.145,0.13,7575.0
-0.16,0.125,7577.777777777777
-0.15,0.12,7580.555555555556
-0.155,0.12,7583.333333333333
-0.14,0.125,7586.111111111111
-0.13,0.135,7588.888888888889
-0.13,0.14,7591.666666666667
-0.135,0.135,7594.444444444444
-0.15,0.135,7597.222222222223
-0.16,0.135,7600.0
-0.13,0.13,7602.777777777777
-0.085,0.12,7605.555555555556
-0.005,0.08,7608.333333333333
0.08,0.055,7611.111111111111
0.165,0.035,7613.888888888889
0.27,0.02,7616.666666666667
0.385,-0.01,7619.444444444444
0.495,-0.055,7622.222222222223
0.61,-0.075,7625.0
0.715,-0.1,7627.777777777777
0.785,-0.12,7630.555555555556
0.855,-0.165,7633.333333333333
0.88,-0.195,7636.111111111111
0.875,-0.215,7638.888888888889
0.83,-0.235,7641.666666666667
0.745,-0.24,7644.444444444444
0.655,-0.22,7647.222222222223
0.53,-0.175,7650.0
0.375,-0.11,7652.777777777777
0.195,-0.065,7655.555555555556
0.055,-0.04,7658.333333333333
-0.05,-0.01,7661.111111111111
-0.1,0.01,7663.888888888889
-0.15,0.055,7666.666666666667
-0.18,0.09,7669.444444444444
-0.205,0.12,7672.222222222223
-0.215,0.12,7675.0
-0.23,0.125,7677.777777777777
-0.255,0.135,7680.555555555556
-0.265,0.13,7683.333333333333
-0.26,0.14,7686.111111111111
-0.27,0.15,7688.888888888889
-0.26,0.135,7691.666666666667
-0.27,0.12,7694.444444444444
-0.295,0.12,7697.222222222223
-0.315,0.12,7700.0
-0.305,0.12,7702.777777777777
-0.305,0.13,7705.555555555556
-0.3,0.13,7708.333333333333
-0.31,0.115,7711.111111111111
-0.31,0.12,7713.888888888889
-0.32,0.125,7716.666666666667
-0.32,0.135,7719.444444444444
-0.305,0.125,7722.222222222223
-0.305,0.12,7725.0
-0.32,0.105,7727.777777777777
-0.325,0.115,7730.555555555556
-0.325,0.11,7733.333333333333
-0.32,0.125,7736.111111111111
-0.315,0.125,7738.888888888889
-0.34,0.115,7741.666666666667
-0.34,0.115,7744.444444444444
-0.34,0.11,7747.222222222223
-0.335,0.11,7750.0
-0.335,0.125,7752.777777777777
-0.335,0.11,7755.555555555556
-0.33,0.1,7758.333333333333
-0.335,0.075,7761.111111111111
-0.345,0.07,7763.888888888889
-0.355,0.075,7766.666666666667
-0.34,0.08,7769.444444444444
-0.33,0.08,7772.222222222223
-0.335,0.075,7775.0
-0.34,0.06,7777.777777777777
-0.345,0.065,7780.555555555556
-0.35,0.06,7783.333333333333
-0.335,0.085,7786.111111111111
-0.33,0.08,7788.888888888889
-0.34,0.075,7791.666666666667
-0.36,0.07,7794.444444444444
-0.355,0.07,7797.222222222223
-0.355,0.09,7800.0
-0.335,0.1,7802.777777777777
-0.32,0.105,7805.555555555556
-0.335,0.1,7808.333333333333
-0.35,0.095,7811.111111111111
-0.35,0.095,7813.888888888889
-0.365,0.1,7816.666666666667
-0.345,0.11,7819.444444444444
-0.34,0.115,7822.222222222223
-0.335,0.125,7825.0
-0.35,0.115,7827.777777777777
-0.36,0.105,7830.555555555556
-0.355,0.125,7833.333333333333
-0.35,0.14,7836.111111111111
-0.325,0.135,7838.888888888889
-0.315,0.14,7841.666666666667
-0.315,0.125,7844.444444444444
-0.33,0.13,7847.222222222223
-0.32,0.12,7850.0
-0.325,0.125,7852.777777777777
-0.305,0.11,7855.555555555556
-0.305,0.1,7858.333333333333
-0.31,0.065,7861.111111111111
-0.32,0.06,7863.888888888889
-0.31,0.07,7866.666666666667
-0.305,0.08,7869.444444444444
-0.285,0.09,7872.222222222223
-0.27,0.08,7875.0
-0.27,0.065,7877.777777777777
-0.275,0.065,7880.555555555556
-0.255,0.09,7883.333333333333
-0.24,0.11,7886.111111111111
-0.21,0.095,7888.888888888889
-0.2,0.09,7891.666666666667
-0.22,0.075,7894.444444444444
-0.21,0.07,7897.222222222223
-0.195,0.075,7900.0
-0.18,0.09,7902.777777777777
-0.155,0.095,7905.555555555556
-0.15,0.095,7908.333333333333
-0.165,0.07,7911.111111111111
-0.16,0.075,7913.888888888889
-0.165,0.08,7916.666666666667
-0.155,0.08,7919.444444444444
-0.15,0.08,7922.222222222223
-0.145,0.09,7925.0
-0.16,0.075,7927.777777777777
-0.175,0.065,7930.555555555556
-0.18,0.085,7933.333333333333
-0.16,0.09,7936.111111111111
-0.155,0.095,7938.888888888889
-0.16,0.09,7941.666666666667
-0.175,0.085,7944.444444444444
-0.175,0.075,7947.222222222223
-0.175,0.085,7950.0
-0.16,0.095,7952.777777777777
-0.16,0.11,7955.555555555556
-0.17,0.105,7958.333333333333
-0.175,0.105,7961.111111111111
-0.195,0.09,7963.888888888889
-0.195,0.11,7966.666666666667
-0.185,0.105,7969.444444444444
-0.175,0.12,7972.222222222223
-0.18,0.105,7975.0
-0.19,0.09,7977.777777777777
-0.19,0.085,7980.555555555556
-0.205,0.09,7983.333333333333
-0.185,0.1,7986.111111111111
-0.175,0.105,7988.888888888889
-0.17,0.085,7991.666666666667
-0.18,0.075,7994.444444444444
-0.185,0.07,7997.222222222223
-0.18,0.085,8000.0
-0.165,0.09,8002.777777777777
-0.18,0.095,8005.555555555556
-0.165,0.095,8008.333333333333
-0.175,0.08,8011.111111111111
-0.175,0.08,8013.888888888889
-0.165,0.09,8016.666666666667
-0.145,0.09,8019.444444444444
-0.15,0.095,8022.222222222223
-0.15,0.11,8025.0
-0.15,0.105,8027.777777777777
-0.145,0.11,8030.555555555556
-0.145,0.135,8033.333333333333
-0.13,0.145,8036.111111111111
-0.125,0.15,8038.888888888889
-0.12,0.155,8041.666666666667
-0.12,0.14,8044.444444444444
-0.13,0.14,8047.222222222223
-0.12,0.15,8050.0
-0.11,0.165,8052.777777777777
-0.1,0.165,8055.555555555556
-0.11,0.165,8058.333333333333
-0.115,0.145,8061.111111111111
-0.13,0.125,8063.888888888889
-0.135,0.135,8066.666666666667
-0.12,0.125,8069.444444444444
-0.11,0.105,8072.222222222223
-0.12,0.09,8075.0
-0.135,0.07,8077.777777777777
-0.15,0.065,8080.555555555556
-0.16,0.06,8083.333333333333
-0.145,0.065,8086.111111111111
-0.15,0.06,8088.888888888889
-0.135,0.055,8091.666666666667
-0.15,0.035,8094.444444444444
-0.16,0.03,8097.222222222223
-0.18,0.05,8100.0
-0.17,0.045,8102.777777777777
-0.165,0.055,8105.555555555556
-0.17,0.055,8108.333333333333
-0.17,0.045,8111.111111111111
-0.185,0.04,8113.888888888889
-0.185,0.045,8116.666666666667
-0.175,0.07,8119.444444444444
-0.18,0.07,8122.222222222223
-0.16,0.08,8125.0
-0.165,0.065,8127.777777777777
-0.175,0.08,8130.555555555556
-0.17,0.075,8133.333333333333
-0.17,0.105,8136.111111111111
-0.155,0.095,8138.888888888889
-0.16,0.1,8141.666666666667
-0.17,0.1,8144.444444444444
-0.17,0.085,8147.222222222223
-0.175,0.105,8150.0
-0.155,0.1,8152.777777777777
-0.145,0.105,8155.555555555556
-0.145,0.105,8158.333333333333
-0.155,0.085,8161.111111111111
-0.17,0.085,8163.888888888889
-0.17,0.09,8166.666666666667
-0.15,0.105,8169.444444444444
-0.14,0.125,8172.222222222223
-0.145,0.12,8175.0
-0.155,0.11,8177.777777777777
-0.155,0.11,8180.555555555556
-0.175,0.125,8183.333333333333
-0.17,0.125,8186.111111111111
-0.145,0.135,8188.888888888889
-0.14,0.115,8191.666666666667
-0.135,0.1,8194.444444444445
-0.13,0.09,8197.222222222223
-0.14,0.085,8200.0
-0.14,0.095,8202.777777777777
-0.12,0.095,8205.555555555555
-0.125,0.085,8208.333333333334
-0.14,0.07,8211.111111111111
-0.135,0.055,8213.888888888889
-0.135,0.06,8216.666666666666
-0.13,0.07,8219.444444444445
-0.125,0.08,8222.222222222223
-0.13,0.055,8225.0
-0.145,0.035,8227.777777777777
-0.14,0.03,8230.555555555555
-0.145,0.035,8233.333333333334
-0.135,0.045,8236.111111111111
-0.14,0.055,8238.888888888889
-0.13,0.04,8241.666666666666
-0.145,0.035,8244.444444444445
-0.16,0.025,8247.222222222223
-0.17,0.035,8250.0
-0.14,0.055,8252.777777777777
-0.135,0.05,8255.555555555555
-0.145,0.06,8258.333333333334
-0.135,0.04,8261.111111111111
-0.115,0.05,8263.888888888889
-0.06,0.035,8266.666666666666
0.03,0.035,8269.444444444445
0.135,0.01,8272.222222222223
0.23,-0.02,8275.0
0.33,-0.06,8277.777777777777
0.415,-0.085,8280.555555555555
0.525,-0.105,8283.333333333334
0.655,-0.09,8286.111111111111
0.76,-0.085,8288.888888888889
0.845,-0.13,8291.666666666666
0.885,-0.19,8294.444444444445
0.885,-0.23,8297.222222222223
0.855,-0.24,8300.0
0.8,-0.22,8302.777777777777
0.725,-0.205,8305.555555555555
0.61,-0.175,8308.333333333334
0.44,-0.155,8311.111111111111
0.255,-0.12,8313.888888888889
0.105,-0.07,8316.666666666666
-0.005,-0.035,8319.444444444445
-0.045,-0.015,8322.222222222223
-0.095,-0.01,8325.0
-0.155,-0.005,8327.777777777777
-0.205,0.015,8330.555555555555
-0.22,0.035,8333.333333333334
-0.215,0.055,8336.111111111111
-0.215,0.06,8338.888888888889
-0.225,0.07,8341.666666666666
-0.255,0.055,8344.444444444445
-0.275,0.06,8347.222222222223
-0.28,0.07,8350.0
-0.265,0.085,8352.777777777777
-0.255,0.095,8355.555555555555
-0.26,0.075,8358.333333333334
-0.28,0.06,8361.111111111111
-0.29,0.065,8363.888888888889
-0.305,0.08,8366.666666666666
-0.28,0.1,8369.444444444445
-0.27,0.08,8372.222222222223
-0.275,0.07,8375.0
-0.295,0.05,8377.777777777777
-0.31,0.045,8380.555555555555
-0.325,0.06,8383.333333333334
-0.31,0.06,8386.111111111111
-0.305,0.055,8388.888888888889
-0.315,0.045,8391.666666666666
-0.33,0.04,8394.444444444445
-0.35,0.045,8397.222222222223
-0.355,0.055,8400.0
-0.34,0.07,8402.777777777777
-0.33,0.06,8405.555555555555
-0.34,0.065,8408.333333333334
-0.35,0.06,8411.111111111111
-0.365,0.05,8413.888888888889
-0.37,0.06,8416.666666666666
-0.37,0.08,8419.444444444445
-0.36,0.085,8422.222222222223
-0.365,0.075,8425.0
-0.38,0.08,8427.777777777777
-0.39,0.06,8430.555555555555
-0.38,0.06,8433.333333333334
-0.375,0.08,8436.111111111111
-0.385,0.075,8438.888888888889
-0.365,0.07,8441.666666666666
-0.375,0.06,8444.444444444445
-0.39,0.05,8447.222222222223
-0.395,0.05,8450.0
-0.375,0.06,8452.777777777777
-0.365,0.07,8455.555555555555
-0.365,0.065,8458.333333333334
-0.375,0.065,8461.111111111111
-0.365,0.06,8463.888888888889
-0.36,0.075,8466.666666666666
-0.35,0.08,8469.444444444445
-0.345,0.09,8472.222222222223
-0.345,0.065,8475.0
-0.345,0.055,8477.777777777777
-0.355,0.05,8480.555555555555
-0.345,0.05,8483.333333333334
-0.34,0.075,8486.111111111111
-0.33,0.07,8488.888888888889
-0.325,0.065,8491.666666666666
-0.325,0.065,8494.444444444445
-0.34,0.065,8497.222222222223
-0.335,0.07,8500.0
-0.325,0.075,8502.777777777777
-0.305,0.085,8505.555555555555
-0.3,0.08,8508.333333333334
-0.31,0.075,8511.111111111111
-0.315,0.075,8513.888888888889
-0.305,0.095,8516.666666666666
-0.3,0.1,8519.444444444445
-0.285,0.1,8522.222222222223
-0.275,0.105,8525.0
-0.275,0.08,8527.777777777777
-0.265,0.08,8530.555555555555
-0.265,0.095,8533.333333333334
-0.245,0.1,8536.111111111111
-0.235,0.095,8538.888888888889
-0.225,0.085,8541.666666666666
-0.23,0.055,8544.444444444445
-0.23,0.055,8547.222222222223
-0.215,0.055,8550.0
-0.205,0.055,8552.777777777777
-0.195,0.055,8555.555555555555
-0.2,0.025,8558.333333333334
-0.185,0.01,8561.111111111111
-0.2,0.0,8563.888888888889
-0.19,0.015,8566.666666666666
-0.17,0.015,8569.444444444445
-0.16,0.005,8572.222222222223
-0.165,0.005,8575.0
-0.18,0.005,8577.777777777777
-0.19,-0.005,8580.555555555555
-0.18,0.01,8583.333333333334
-0.175,0.025,8586.111111111111
-0.155,0.015,8588.888888888889
-0.16,0.025,8591.666666666666
-0.17,0.015,8594.444444444445
-0.19,0.025,8597.222222222223
-0.195,0.025,8600.0
-0.19,0.045,8602.777777777777
-0.18,0.065,8605.555555555555
-0.18,0.06,8608.333333333334
-0.185,0.065,8611.111111111111
-0.185,0.065,8613.888888888889
-0.175,0.09,8616.666666666666
-0.165,0.1,8619.444444444445
-0.155,0.095,8622.222222222223
-0.165,0.095,8625.0
-0.17,0.09,8627.777777777777
-0.185,0.09,8630.555555555555
-0.19,0.1,8633.333333333334
-0.16,0.105,8636.111111111111
-0.15,0.12,8638.888888888889
-0.15,0.105,8641.666666666666
-0.165,0.075,8644.444444444445
-0.18,0.07,8647.222222222223
-0.18,0.09,8650.0
-0.18,0.1,8652.777777777777
-0.145,0.115,8655.555555555555
-0.145,0.11,8658.333333333334
-0.16,0.105,8661.111111111111
-0.17,0.095,8663.888888888889
-0.165,0.115,8666.666666666666
-0.155,0.12,8669.444444444445
-0.13,0.115,8672.222222222223
-0.12,0.09,8675.0
-0.13,0.07,8677.777777777777
-0.135,0.065,8680.555555555555
-0.145,0.07,8683.333333333334
-0.14,0.07,8686.111111111111
-0.125,0.06,8688.888888888889
-0.13,0.06,8691.666666666666
-0.135,0.04,8694.444444444445
-0.14,0.04,8697.222222222223
-0.14,0.03,8700.0
-0.14,0.045,8702.777777777777
-0.125,0.04,8705.555555555555
-0.14,0.035,8708.333333333334
-0.145,0.02,8711.111111111111
-0.16,0.02,8713.888888888889
-0.15,0.035,8716.666666666666
-0.14,0.04,8719.444444444445
-0.145,0.04,8722.222222222223
-0.16,0.04,8725.0
-0.17,0.035,8727.777777777777
-0.165,0.025,8730.555555555555
-0.17,0.035,8733.333333333334
-0.165,0.055,8736.111111111111
-0.15,0.065,8738.888888888889
-0.16,0.055,8741.666666666666
-0.16,0.06,8744.444444444445
-0.17,0.065,8747.222222222223
-0.19,0.07,8750.0
-0.175,0.07,8752.777777777777
-0.165,0.085,8755.555555555555
-0.165,0.085,8758.333333333334
-0.18,0.075,8761.111111111111
-0.185,0.095,8763.888888888889
-0.2,0.11,8766.666666666666
-0.175,0.11,8769.444444444445
-0.165,0.125,8772.222222222223
-0.17,0.12,8775.0
-0.18,0.115,8777.777777777777
-0.175,0.1,8780.555555555555
-0.185,0.1,8783.333333333334
-0.18,0.095,8786.111111111111
-0.175,0.08,8788.888888888889
-0.17,0.055,8791.666666666666
-0.175,0.025,8794.444444444445
-0.18,0.02,8797.222222222223
-0.185,0.015,8800.0
-0.175,0.03,8802.777777777777
-0.145,0.04,8805.555555555555
-0.145,0.035,8808.333333333334
-0.15,0.02,8811.111111111111
-0.155,0.015,8813.888888888889
-0.15,0.03,8816.666666666666
-0.13,0.04,8819.444444444445
-0.13,0.04,8822.222222222223
-0.135,0.045,8825.0
-0.13,0.02,8827.777777777777
-0.13,0.02,8830.555555555555
-0.15,0.03,8833.333333333334
-0.125,0.04,8836.111111111111
-0.11,0.045,8838.888888888889
-0.125,0.04,8841.666666666666
-0.12,0.03,8844.444444444445
-0.125,0.025,8847.222222222223
-0.115,0.03,8850.0
-0.125,0.045,8852.777777777777
-0.125,0.045,8855.555555555555
-0.11,0.025,8858.333333333334
-0.13,0.0,8861.111111111111
-0.15,0.01,8863.888888888889
-0.145,0.015,8866.666666666666
-0.135,0.025,8869.444444444445
-0.125,0.025,8872.222222222223
-0.145,0.03,8875.0
-0.15,0.005,8877.777777777777
-0.145,0.015,8880.555555555555
-0.15,0.03,8883.333333333334
-0.14,0.035,8886.111111111111
-0.13,0.035,8888.888888888889
-0.14,0.045,8891.666666666666
-0.155,0.05,8894.444444444445
-0.17,0.04,8897.222222222223
-0.175,0.035,8900.0
-0.165,0.035,8902.777777777777
-0.155,0.05,8905.555555555555
-0.17,0.04,8908.333333333334
-0.185,0.025,8911.111111111111
-0.195,0.015,8913.888888888889
-0.19,0.03,8916.666666666666
-0.195,0.045,8919.444444444445
-0.165,0.055,8922.222222222223
-0.16,0.035,8925.0
-0.175,0.03,8927.777777777777
-0.185,0.025,8930.555555555555
-0.19,0.03,8933.333333333334
-0.185,0.03,8936.111111111111
-0.17,0.04,8938.888888888889
-0.16,0.04,8941.666666666666
-0.16,0.025,8944.444444444445
-0.155,0.005,8947.222222222223
-0.17,0.005,8950.0
-0.17,0.01,8952.777777777777
-0.15,0.035,8955.555555555555
-0.15,0.03,8958.333333333334
-0.155,0.015,8961.111111111111
-0.15,0.02,8963.888888888889
-0.15,0.035,8966.666666666666
-0.14,0.045,8969.444444444445
-0.1,0.06,8972.222222222223
-0.105,0.05,8975.0
-0.115,0.035,8977.777777777777
-0.14,0.035,8980.555555555555
-0.13,0.045,8983.333333333334
-0.09,0.045,8986.111111111111
-0.015,0.025,8988.888888888889
0.06,0.0,8991.666666666666
0.145,-0.025,8994.444444444445
0.245,-0.06,8997.222222222223
0.35,-0.07,9000.0
0.47,-0.095,9002.777777777777
0.575,-0.13,9005.555555555555
0.69,-0.15,9008.333333333334
0.78,-0.165,9011.111111111111
0.845,-0.205,9013.888888888889
0.885,-0.25,9016.666666666666
0.88,-0.27,9019.444444444445
0.845,-0.28,9022.222222222223
0.795,-0.28,9025.0
0.705,-0.275,9027.777777777777
0.57,-0.245,9030.555555555555
0.385,-0.205,9033.333333333334
0.195,-0.15,9036.111111111111
0.065,-0.12,9038.888888888889
-0.025,-0.11,9041.666666666666
-0.07,-0.1,9044.444444444445
-0.115,-0.085,9047.222222222223
-0.165,-0.065,9050.0
-0.2,-0.04,9052.777777777777
-0.235,-0.035,9055.555555555555
-0.235,-0.01,9058.333333333334
-0.235,-0.005,9061.111111111111
-0.255,-0.005,9063.888888888889
-0.255,0.015,9066.666666666666
-0.285,0.04,9069.444444444445
-0.275,0.05,9072.222222222223
-0.275,0.03,9075.0
-0.305,0.03,9077.777777777777
-0.3,0.035,9080.555555555555
-0.31,0.05,9083.333333333334
-0.315,0.06,9086.111111111111
-0.3,0.06,9088.888888888889
-0.31,0.06,9091.666666666666
-0.315,0.04,9094.444444444445
-0.32,0.045,9097.222222222223
-0.325,0.05,9100.0
-0.33,0.055,9102.777777777777
-0.315,0.055,9105.555555555555
-0.33,0.06,9108.333333333334
-0.34,0.04,9111.111111111111
-0.345,0.045,9113.888888888889
-0.34,0.06,9116.666666666666
-0.34,0.07,9119.444444444445
-0.32,0.065,9122.222222222223
-0.32,0.07,9125.0
-0.34,0.04,9127.777777777777
-0.355,0.05,9130.555555555555
-0.35,0.065,9133.333333333334
-0.34,0.07,9136.111111111111
-0.32,0.075,9138.888888888889
-0.325,0.065,9141.666666666666
-0.335,0.06,9144.444444444445
-0.34,0.05,9147.222222222223
-0.36,0.065,9150.0
-0.345,0.06,9152.777777777777
-0.345,0.05,9155.555555555555
-0.335,0.045,9158.333333333334
-0.35,0.03,9161.111111111111
-0.35,0.005,9163.888888888889
-0.365,0.02,9166.666666666666
-0.35,0.025,9169.444444444445
-0.33,0.005,9172.222222222223
-0.335,-0.01,9175.0
-0.335,-0.04,9177.777777777777
-0.335,-0.04,9180.555555555555
-0.325,-0.03,9183.333333333334
-0.32,-0.02,9186.111111111111
-0.31,-0.01,9188.888888888889
-0.305,-0.005,9191.666666666666
-0.315,-0.005,9194.444444444445
-0.325,-0.015,9197.222222222223
-0.32,-0.02,9200.0
-0.315,0.005,9202.777777777777
-0.295,0.01,9205.555555555555
-0.3,0.005,9208.333333333334
-0.31,0.015,9211.111111111111
-0.32,0.01,9213.888888888889
-0.32,0.02,9216.666666666666
-0.31,0.045,9219.444444444445
-0.295,0.065,9222.222222222223
-0.285,0.065,9225.0
-0.285,0.055,9227.777777777777
-0.295,0.05,9230.555555555555
-0.3,0.05,9233.333333333334
-0.28,0.07,9236.111111111111
-0.25,0.08,9238.888888888889
-0.26,0.085,9241.666666666666
-0.26,0.065,9244.444444444445
-0.245,0.06,9247.222222222223
-0.245,0.06,9250.0
-0.24,0.065,9252.777777777777
-0.225,0.065,9255.555555555555
-0.215,0.055,9258.333333333334
-0.205,0.045,9261.111111111111
-0.215,0.05,9263.888888888889
-0.215,0.05,9266.666666666666
-0.205,0.05,9269.444444444445
-0.19,0.055,9272.222222222223
-0.17,0.05,9275.0
-0.18,0.025,9277.777777777777
-0.19,0.01,9280.555555555555
-0.185,0.015,9283.333333333334
-0.18,0.035,9286.111111111111
-0.165,0.04,9288.888888888889
-0.18,0.025,9291.666666666666
-0.185,0.02,9294.444444444445
-0.185,0.01,9297.222222222223
-0.18,0.005,9300.0
-0.18,0.02,9302.777777777777
-0.165,0.015,9305.555555555555
-0.17,0.02,9308.333333333334
-0.18,0.01,9311.111111111111
-0.19,-0.005,9313.888888888889
-0.18,0.01,9316.666666666666
-0.185,0.025,9319.444444444445
-0.165,0.025,9322.222222222223
-0.17,0.035,9325.0
-0.18,0.025,9327.777777777777
-0.18,0.025,9330.555555555555
-0.19,0.03,9333.333333333334
-0.175,0.05,9336.111111111111
-0.175,0.065,9338.888888888889
-0.175,0.055,9341.666666666666
-0.19,0.05,9344.444444444445
-0.195,0.05,9347.222222222223
-0.21,0.06,9350.0
-0.195,0.085,9352.777777777777
-0.19,0.1,9355.555555555555
-0.18,0.105,9358.333333333334
-0.2,0.09,9361.111111111111
-0.21,0.1,9363.888888888889
-0.195,0.12,9366.666666666666
-0.175,0.125,9369.444444444445
-0.16,0.14,9372.222222222223
-0.165,0.13,9375.0
-0.175,0.125,9377.777777777777
-0.175,0.125,9380.555555555555
-0.185,0.14,9383.333333333334
-0.17,0.145,9386.111111111111
-0.155,0.145,9388.888888888889
-0.16,0.13,9391.666666666666
-0.17,0.105,9394.444444444445
-0.175,0.09,9397.222222222223
-0.175,0.085,9400.0
-0.16,0.065,9402.777777777777
-0.15,0.04,9405.555555555555
-0.145,0.015,9408.333333333334
-0.155,-0.005,9411.111111111111
-0.155,-0.005,9413.888888888889
-0.15,0.005,9416.666666666666
-0.14,0.005,9419.444444444445
-0.135,0.01,9422.222222222223
-0.125,0.0,9425.0
-0.145,-0.01,9427.777777777777
-0.155,-0.015,9430.555555555555
-0.155,0.0,9433.333333333334
-0.15,-0.005,9436.111111111111
-0.13,0.0,9438.888888888889
-0.13,0.0,9441.666666666666
-0.155,-0.015,9444.444444444445
-0.16,-0.015,9447.222222222223
-0.155,-0.01,9450.0
-0.16,-0.01,9452.777777777777
-0.15,0.0,9455.555555555555
-0.155,-0.015,9458.333333333334
-0.165,-0.025,9461.111111111111
-0.17,-0.02,9463.888888888889
-0.18,-0.01,9466.666666666666
-0.17,-0.01,9469.444444444445
-0.155,-0.005,9472.222222222223
-0.165,0.005,9475.0
-0.175,-0.005,9477.777777777777
-0.18,-0.015,9480.555555555555
-0.185,0.005,9483.333333333334
-0.185,0.02,9486.111111111111
-0.175,0.025,9488.888888888889
-0.17,0.025,9491.666666666666
-0.19,0.005,9494.444444444445
-0.195,0.02,9497.222222222223
-0.195,0.03,9500.0
-0.19,0.055,9502.777777777777
-0.18,0.06,9505.555555555555
-0.18,0.06,9508.333333333334
-0.21,0.06,9511.111111111111
-0.2,0.05,9513.888888888889
-0.2,0.08,9516.666666666666
-0.2,0.09,9519.444444444445
-0.185,0.1,9522.222222222223
-0.2,0.1,9525.0
-0.21,0.1,9527.777777777777
-0.205,0.09,9530.555555555555
-0.2,0.1,9533.333333333334
-0.175,0.08,9536.111111111111
-0.18,0.08,9538.888888888889
-0.165,0.045,9541.666666666666
-0.17,0.035,9544.444444444445
-0.185,0.025,9547.222222222223
-0.17,0.03,9550.0
-0.155,0.025,9552.777777777777
-0.13,0.025,9555.555555555555
-0.13,0.015,9558.333333333334
-0.145,0.005,9561.111111111111
-0.155,0.0,9563.888888888889
-0.145,0.005,9566.666666666666
-0.13,0.005,9569.444444444445
-0.135,0.02,9572.222222222223
-0.13,0.01,9575.0
-0.135,0.005,9577.777777777777
-0.155,-0.01,9580.555555555555
-0.155,0.015,9583.333333333334
-0.145,0.02,9586.111111111111
-0.105,0.005,9588.888888888889
-0.065,-0.005,9591.666666666666
-0.005,-0.035,9594.444444444445
0.09,-0.075,9597.222222222223
0.19,-0.095,9600.0
0.305,-0.125,9602.777777777777
0.425,-0.155,9605.555555555555
0.53,-0.185,9608.333333333334
0.625,-0.205,9611.111111111111
0.715,-0.21,9613.888888888889
0.815,-0.23,9616.666666666666
0.895,-0.255,9619.444444444445
0.91,-0.28,9622.222222222223
0.86,-0.305,9625.0
0.79,-0.31,9627.777777777777
0.72,-0.31,9630.555555555555
0.615,-0.265,9633.333333333334
0.48,-0.22,9636.111111111111
0.315,-0.155,9638.888888888889
0.125,-0.11,9641.666666666666
-0.025,-0.1,9644.444444444445
-0.105,-0.075,9647.222222222223
-0.155,-0.04,9650.0
-0.19,-0.005,9652.777777777777
-0.23,0.01,9655.555555555555
-0.265,0.03,9658.333333333334
-0.29,0.02,9661.111111111111
-0.295,0.02,9663.888888888889
-0.3,0.035,9666.666666666666
-0.32,0.045,9669.444444444445
-0.3,0.05,9672.222222222223
-0.3,0.04,9675.0
-0.335,0.03,9677.777777777777
-0.35,0.02,9680.555555555555
-0.355,0.03,9683.333333333334
-0.345,0.025,9686.111111111111
-0.335,0.025,9688.888888888889
-0.345,0.015,9691.666666666666
-0.375,-0.005,9694.444444444445
-0.35,0.01,9697.222222222223
-0.365,0.02,9700.0
-0.355,0.04,9702.777777777777
-0.345,0.045,9705.555555555555
-0.345,0.035,9708.333333333334
-0.365,0.03,9711.111111111111
-0.365,0.025,9713.888888888889
-0.355,0.025,9716.666666666666
-0.36,0.035,9719.444444444445
-0.35,0.05,9722.222222222223
-0.35,0.05,9725.0
-0.365,0.025,9727.777777777777
-0.385,0.02,9730.555555555555
-0.38,0.04,9733.333333333334
-0.36,0.05,9736.111111111111
-0.355,0.04,9738.888888888889
-0.37,0.045,9741.666666666666
-0.395,0.03,9744.444444444445
-0.395,0.03,9747.222222222223
-0.4,0.025,9750.0
-0.395,0.035,9752.777777777777
-0.385,0.045,9755.555555555555
-0.38,0.04,9758.333333333334
-0.4,0.03,9761.111111111111
-0.395,0.01,9763.888888888889
-0.41,0.02,9766.666666666666
-0.395,0.02,9769.444444444445
-0.375,0.01,9772.222222222223
-0.375,0.0,9775.0
-0.39,0.005,9777.777777777777
-0.4,0.0,9780.555555555555
-0.4,0.01,9783.333333333334
-0.39,0.01,9786.111111111111
-0.385,0.035,9788.888888888889
-0.395,0.03,9791.666666666666
-0.4,0.01,9794.444444444445
-0.41,0.01,9797.222222222223
-0.415,0.025,9800.0
-0.4,0.035,9802.777777777777
-0.395,0.035,9805.555555555555
-0.395,0.045,9808.333333333334
-0.39,0.04,9811.111111111111
-0.39,0.03,9813.888888888889
-0.39,0.05,9816.666666666666
-0.375,0.06,9819.444444444445
-0.365,0.08,9822.222222222223
-0.365,0.065,9825.0
-0.375,0.045,9827.777777777777
-0.38,0.06,9830.555555555555
-0.37,0.055,9833.333333333334
-0.34,0.075,9836.111111111111
-0.32,0.08,9838.888888888889
-0.32,0.07,9841.666666666666
-0.325,0.05,9844.444444444445
-0.325,0.055,9847.222222222223
-0.315,0.075,9850.0
-0.28,0.075,9852.777777777777
-0.27,0.08,9855.555555555555
-0.275,0.07,9858.333333333334
-0.265,0.065,9861.111111111111
-0.255,0.07,9863.888888888889
-0.245,0.065,9866.666666666666
-0.215,0.065,9869.444444444445
-0.2,0.055,9872.222222222223
-0.185,0.05,9875.0
-0.21,0.025,9877.777777777777
-0.205,0.02,9880.555555555555
-0.21,0.005,9883.333333333334
-0.2,0.005,9886.111111111111
-0.2,0.0,9888.888888888889
-0.195,-0.005,9891.666666666666
-0.205,-0.02,9894.444444444445
-0.22,-0.035,9897.222222222223
-0.215,-0.035,9900.0
-0.215,-0.005,9902.777777777777
-0.21,-0.005,9905.555555555555
-0.21,-0.02,9908.333333333334
-0.21,-0.015,9911.111111111111
-0.24,-0.02,9913.888888888889
-0.24,-0.015,9916.666666666666
-0.23,0.005,9919.444444444445
-0.225,0.015,9922.222222222223
-0.215,0.015,9925.0
-0.215,0.01,9927.777777777777
-0.225,0.02,9930.555555555555
-0.235,0.04,9933.333333333334
-0.245,0.045,9936.111111111111
-0.225,0.06,9938.888888888889
-0.235,0.065,9941.666666666666
-0.245,0.075,9944.444444444445
-0.245,0.07,9947.222222222223
-0.255,0.1,9950.0
-0.23,0.115,9952.777777777777
-0.23,0.12,9955.555555555555
-0.23,0.12,9958.333333333334
-0.235,0.105,9961.111111111111
-0.24,0.105,9963.888888888889
-0.23,0.105,9966.666666666666
-0.22,0.125,9969.444444444445
-0.21,0.12,9972.222222222223
-0.21,0.12,9975.0
-0.21,0.1,9977.777777777777
-0.21,0.095,9980.555555555555
-0.205,0.085,9983.333333333334
-0.195,0.09,9986.111111111111
-0.18,0.09,9988.888888888889
-0.175,0.075,9991.666666666666
-0.185,0.06,9994.444444444445
-0.19,0.045,9997.222222222223
-0.195,0.045,10000.0
-0.18,0.05,10002.777777777777
-0.16,0.055,10005.555555555555
-0.16,0.045,10008.333333333334
-0.165,0.025,10011.111111111111
-0.17,0.02,10013.888888888889
-0.18,0.03,10016.666666666666
-0.165,0.03,10019.444444444445
-0.155,0.025,10022.222222222223
-0.15,0.02,10025.0
-0.155,0.015,10027.777777777777
-0.165,0.025,10030.555555555555
-0.18,0.01,10033.333333333334
-0.17,0.015,10036.111111111111
-0.17,0.015,10038.888888888889
-0.175,0.01,10041.666666666666
-0.185,0.0,10044.444444444445
-0.195,-0.005,10047.222222222223
-0.195,0.015,10050.0
-0.195,0.005,10052.777777777777
-0.185,0.015,10055.555555555555
-0.2,0.01,10058.333333333334
-0.21,0.0,10061.111111111111
-0.21,0.0,10063.888888888889
-0.21,0.02,10066.666666666666
-0.215,0.05,10069.444444444445
-0.215,0.055,10072.222222222223
-0.21,0.06,10075.0
-0.22,0.065,10077.777777777777
-0.24,0.055,10080.555555555555
-0.24,0.09,10083.333333333334
-0.23,0.11,10086.111111111111
-0.225,0.13,10088.888888888889
-0.215,0.125,10091.666666666666
-0.21,0.13,10094.444444444445
-0.22,0.125,10097.222222222223
-0.21,0.11,10100.0
-0.195,0.095,10102.777777777777
-0.19,0.11,10105.555555555555
-0.195,0.09,10108.333333333334
-0.215,0.07,10111.111111111111
-0.225,0.065,10113.888888888889
-0.215,0.06,10116.666666666666
-0.2,0.065,10119.444444444445
-0.195,0.065,10122.222222222223
-0.195,0.055,10125.0
-0.205,0.04,10127.777777777777
-0.205,0.035,10130.555555555555
-0.205,0.04,10133.333333333334
-0.2,0.05,10136.111111111111
-0.18,0.045,10138.888888888889
-0.175,0.04,10141.666666666666
-0.175,0.04,10144.444444444445
-0.18,0.03,10147.222222222223
-0.18,0.02,10150.0
-0.165,0.025,10152.777777777777
-0.15,0.03,10155.555555555555
-0.145,0.025,10158.333333333334
-0.155,0.015,10161.111111111111
-0.165,0.01,10163.888888888889
-0.18,0.03,10166.666666666666
-0.175,0.06,10169.444444444445
-0.16,0.055,10172.222222222223
-0.12,0.035,10175.0
-0.08,0.005,10177.777777777777
-0.015,-0.025,10180.555555555555
0.075,-0.04,10183.333333333334
0.205,-0.06,10186.111111111111
0.325,-0.09,10188.888888888889
0.43,-0.13,10191.666666666666
0.53,-0.175,10194.444444444445
0.66,-0.18,10197.222222222223
0.755,-0.18,10200.0
0.845,-0.2,10202.777777777777
0.88,-0.22,10205.555555555555
0.865,-0.26,10208.333333333334
0.79,-0.285,10211.111111111111
0.7,-0.27,10213.888888888889
0.585,-0.235,10216.666666666666
0.44,-0.19,10219.444444444445
0.28,-0.145,10222.222222222223
0.07,-0.11,10225.0
-0.08,-0.09,10227.777777777777
-0.155,-0.07,10230.555555555555
-0.195,-0.035,10233.333333333334
-0.225,0.01,10236.111111111111
-0.26,0.025,10238.888888888889
-0.285,0.045,10241.666666666666
-0.305,0.04,10244.444444444445
-0.325,0.035,10247.222222222223
-0.335,0.055,10250.0
-0.335,0.085,10252.777777777777
-0.325,0.09,10255.555555555555
-0.33,0.075,10258.333333333334
-0.345,0.06,10261.111111111111
-0.37,0.065,10263.888888888889
-0.37,0.065,10266.666666666666
-0.36,0.065,10269.444444444445
-0.355,0.06,10272.222222222223
-0.36,0.065,10275.0
-0.36,0.055,10277.777777777777
-0.37,0.045,10280.555555555555
-0.39,0.05,10283.333333333334
-0.38,0.06,10286.111111111111
-0.37,0.06,10288.888888888889
-0.36,0.055,10291.666666666666
-0.365,0.04,10294.444444444445
-0.375,0.03,10297.222222222223
-0.375,0.05,10300.0
-0.38,0.065,10302.777777777777
-0.375,0.06,10305.555555555555
-0.38,0.06,10308.333333333334
-0.385,0.055,10311.111111111111
-0.4,0.045,10313.888888888889
-0.4,0.055,10316.666666666666
-0.395,0.08,10319.444444444445
-0.385,0.065,10322.222222222223
-0.395,0.065,10325.0
-0.41,0.06,10327.777777777777
-0.42,0.06,10330.555555555555
-0.43,0.065,10333.333333333334
-0.41,0.085,10336.111111111111
-0.415,0.085,10338.888888888889
-0.42,0.09,10341.666666666666
-0.43,0.075,10344.444444444445
-0.435,0.08,10347.222222222223
-0.435,0.065,10350.0
-0.415,0.08,10352.777777777777
-0.395,0.07,10355.555555555555
-0.405,0.045,10358.333333333334
-0.415,0.02,10361.111111111111
-0.415,0.01,10363.888888888889
-0.425,0.005,10366.666666666666
-0.43,0.035,10369.444444444445
-0.4,0.05,10372.222222222223
-0.405,0.04,10375.0
-0.415,0.025,10377.777777777777
-0.425,0.02,10380.555555555555
-0.435,0.03,10383.333333333334
-0.425,0.05,10386.111111111111
-0.42,0.075,10388.888888888889
-0.425,0.07,10391.666666666666
-0.415,0.05,10394.444444444445
-0.43,0.055,10397.222222222223
-0.42,0.055,10400.0
-0.4,0.07,10402.777777777777
-0.385,0.065,10405.555555555555
-0.385,0.06,10408.333333333334
-0.39,0.05,10411.111111111111
-0.385,0.045,10413.888888888889
-0.385,0.035,10416.666666666666
-0.37,0.045,10419.444444444445
-0.35,0.05,10422.222222222223
-0.345,0.035,10425.0
-0.34,0.03,10427.777777777777
-0.335,0.035,10430.555555555555
-0.325,0.05,10433.333333333334
-0.295,0.06,10436.111111111111
-0.27,0.055,10438.888888888889
-0.27,0.065,10441.666666666666
-0.26,0.055,10444.444444444445
-0.26,0.045,10447.222222222223
-0.255,0.06,10450.0
-0.235,0.075,10452.777777777777
-0.205,0.065,10455.555555555555
-0.2,0.08,10458.333333333334
-0.23,0.065,10461.111111111111
-0.225,0.05,10463.888888888889
-0.23,0.065,10466.666666666666
-0.23,0.08,10469.444444444445
-0.22,0.075,10472.222222222223
-0.235,0.065,10475.0
-0.225,0.055,10477.777777777777
-0.245,0.045,10480.555555555555
-0.26,0.065,10483.333333333334
-0.245,0.075,10486.111111111111
-0.23,0.07,10488.888888888889
-0.245,0.065,10491.666666666666
-0.245,0.04,10494.444444444445
-0.255,0.04,10497.222222222223
-0.255,0.04,10500.0
-0.25,0.04,10502.777777777777
-0.225,0.04,10505.555555555555
-0.24,0.05,10508.333333333334
-0.24,0.04,10511.111111111111
-0.245,0.04,10513.888888888889
-0.255,0.045,10516.666666666666
-0.25,0.06,10519.444444444445
-0.24,0.075,10522.222222222223
-0.25,0.07,10525.0
-0.26,0.075,10527.777777777777
-0.25,0.075,10530.555555555555
-0.26,0.09,10533.333333333334
-0.245,0.1,10536.111111111111
-0.235,0.115,10538.888888888889
-0.235,0.115,10541.666666666666
-0.24,0.125,10544.444444444445
-0.26,0.12,10547.222222222223
-0.245,0.12,10550.0
-0.235,0.13,10552.777777777777
-0.22,0.13,10555.555555555555
-0.22,0.12,10558.333333333334
-0.235,0.115,10561.111111111111
-0.245,0.1,10563.888888888889
-0.24,0.1,10566.666666666666
-0.23,0.115,10569.444444444445
-0.215,0.125,10572.222222222223
-0.205,0.12,10575.0
-0.225,0.105,10577.777777777777
-0.23,0.11,10580.555555555555
-0.225,0.11,10583.333333333334
-0.21,0.13,10586.111111111111
-0.185,0.13,10588.888888888889
-0.18,0.115,10591.666666666666
-0.205,0.1,10594.444444444445
-0.2,0.09,10597.222222222223
-0.215,0.1,10600.0
-0.2,0.09,10602.777777777777
-0.19,0.085,10605.555555555555
-0.195,0.075,10608.333333333334
-0.2,0.05,10611.111111111111
-0.225,0.045,10613.888888888889
-0.24,0.035,10616.666666666666
-0.245,0.045,10619.444444444445
-0.265,0.025,10622.222222222223
-0.32,0.015,10625.0
-0.39,0.005,10627.777777777777
-0.445,-0.005,10630.555555555555
-0.455,-0.005,10633.333333333334
-0.47,0.005,10636.111111111111
-0.475,0.02,10638.888888888889
-0.53,0.025,10641.666666666666
-0.57,0.04,10644.444444444445
-0.625,0.05,10647.222222222223
-0.675,0.08,10650.0
-0.695,0.11,10652.777777777777
-0.735,0.13,10655.555555555555
-0.81,0.145,10658.333333333334
-0.86,0.15,10661.111111111111
-0.935,0.16,10663.888888888889
-0.985,0.16,10666.666666666666
-1.0,0.165,10669.444444444445
-0.985,0.155,10672.222222222223
-0.955,0.155,10675.0
-0.925,0.15,10677.777777777777
-0.89,0.16,10680.555555555555
-0.84,0.205,10683.333333333334
-0.785,0.28,10686.111111111111
-0.75,0.315,10688.888888888889
-0.71,0.345,10691.666666666666
-0.68,0.34,10694.444444444445
-0.655,0.36,10697.222222222223
-0.62,0.385,10700.0
-0.585,0.41,10702.777777777777
-0.56,0.43,10705.555555555555
-0.535,0.425,10708.333333333334
-0.515,0.405,10711.111111111111
-0.47,0.345,10713.888888888889
-0.425,0.29,10716.666666666666
-0.34,0.24,10719.444444444445
-0.27,0.185,10722.222222222223
-0.215,0.13,10725.0
-0.185,0.09,10727.777777777777
-0.16,0.08,10730.555555555555
-0.145,0.085,10733.333333333334
-0.13,0.09,10736.111111111111
-0.125,0.065,10738.888888888889
-0.11,0.025,10741.666666666666
-0.125,0.01,10744.444444444445
-0.12,-0.005,10747.222222222223
-0.105,-0.015,10750.0
-0.095,-0.015,10752.777777777777
-0.065,-0.03,10755.555555555555
-0.075,-0.04,10758.333333333334
-0.08,-0.05,10761.111111111111
-0.095,-0.06,10763.888888888889
-0.07,-0.06,10766.666666666666
-0.06,-0.055,10769.444444444445
-0.055,-0.05,10772.222222222223
-0.045,-0.05,10775.0
-0.045,-0.07,10777.777777777777
-0.06,-0.065,10780.555555555555
-0.055,-0.05,10783.333333333334
-0.025,-0.045,10786.111111111111
-0.005,-0.03,10788.888888888889
-0.02,-0.03,10791.666666666666
-0.01,-0.03,10794.444444444445
-0.01,-0.04,10797.222222222223
0.0,-0.025,10800.0
0.02,-0.01,10802.777777777777
0.03,0.005,10805.555555555555
0.045,0.0,10808.333333333334
0.04,0.0,10811.111111111111
0.05,-0.015,10813.888888888889
0.05,-0.005,10816.666666666666
0.085,0.0,10819.444444444445
0.095,0.025,10822.222222222223
0.105,0.025,10825.0
0.11,0.015,10827.777777777777
0.115,0.025,10830.555555555555
0.12,0.025,10833.333333333334
0.14,0.035,10836.111111111111
0.175,0.035,10838.888888888889
0.18,0.035,10841.666666666666
0.185,0.02,10844.444444444445
0.195,0.005,10847.222222222223
0.205,0.02,10850.0
0.22,0.02,10852.777777777777
0.24,0.015,10855.555555555555
0.245,-0.005,10858.333333333334
0.25,-0.015,10861.111111111111
0.24,-0.045,10863.888888888889
0.245,-0.05,10866.666666666666
0.27,-0.04,10869.444444444445
0.285,-0.045,10872.222222222223
0.28,-0.06,10875.0
0.26,-0.075,10877.777777777777
0.255,-0.105,10880.555555555555
0.25,-0.09,10883.333333333334
0.255,-0.095,10886.111111111111
0.265,-0.095,10888.888888888889
0.255,-0.09,10891.666666666666
0.23,-0.1,10894.444444444445
0.22,-0.105,10897.222222222223
0.205,-0.09,10900.0
0.2,-0.085,10902.777777777777
0.2,-0.08,10905.555555555555
0.175,-0.08,10908.333333333334
0.14,-0.08,10911.111111111111
0.13,-0.085,10913.888888888889
0.105,-0.06,10916.666666666666
0.075,-0.05,10919.444444444445
0.075,-0.035,10922.222222222223
0.05,-0.045,10925.0
0.05,-0.05,10927.777777777777
0.025,-0.035,10930.555555555555
0.0,-0.03,10933.333333333334
-0.01,-0.01,10936.111111111111
-0.015,0.01,10938.888888888889
-0.02,0.02,10941.666666666666
-0.04,0.02,10944.444444444445
-0.06,0.025,10947.222222222223
-0.08,0.055,10950.0
-0.08,0.07,10952.777777777777
-0.075,0.08,10955.555555555555
-0.105,0.095,10958.333333333334
-0.13,0.09,10961.111111111111
-0.15,0.09,10963.888888888889
-0.155,0.105,10966.666666666666
-0.15,0.115,10969.444444444445
-0.15,0.12,10972.222222222223
-0.16,0.12,10975.0
-0.19,0.125,10977.777777777777
-0.185,0.115,10980.555555555555
-0.205,0.12,10983.333333333334
-0.205,0.135,10986.111111111111
-0.19,0.135,10988.888888888889
-0.185,0.135,10991.666666666666
-0.195,0.125,10994.444444444445
-0.2,0.11,10997.222222222223
-0.205,0.11,11000.0
-0.195,0.12,11002.777777777777
-0.19,0.12,11005.555555555555
-0.19,0.105,11008.333333333334
-0.19,0.085,11011.111111111111
-0.195,0.075,11013.888888888889
-0.195,0.065,11016.666666666666
-0.195,0.07,11019.444444444445
-0.18,0.07,11022.222222222223
-0.185,0.065,11025.0
-0.185,0.08,11027.777777777777
-0.185,0.07,11030.555555555555
-0.18,0.07,11033.333333333334
-0.17,0.09,11036.111111111111
-0.145,0.125,11038.888888888889
-0.16,0.105,11041.666666666666
-0.165,0.095,11044.444444444445
-0.175,0.095,11047.222222222223
-0.18,0.1,11050.0
-0.16,0.115,11052.777777777777
-0.15,0.115,11055.555555555555
-0.16,0.11,11058.333333333334
-0.185,0.105,11061.111111111111
-0.175,0.11,11063.888888888889
-0.195,0.115,11066.666666666666
-0.19,0.13,11069.444444444445
-0.19,0.125,11072.222222222223
-0.19,0.13,11075.0
-0.205,0.12,11077.777777777777
-0.21,0.12,11080.555555555555
-0.22,0.12,11083.333333333334
-0.22,0.13,11086.111111111111
-0.21,0.135,11088.888888888889
-0.225,0.125,11091.666666666666
-0.225,0.125,11094.444444444445
-0.245,0.13,11097.222222222223
-0.26,0.135,11100.0
-0.25,0.145,11102.777777777777
-0.24,0.16,11105.555555555555
-0.255,0.14,11108.333333333334
-0.26,0.13,11111.111111111111
-0.275,0.105,11113.888888888889
-0.275,0.1,11116.666666666666
-0.265,0.1,11119.444444444445
-0.26,0.105,11122.222222222223
-0.255,0.105,11125.0
-0.28,0.085,11127.777777777777
-0.3,0.085,11130.555555555555
-0.28,0.095,11133.333333333334
-0.28,0.11,11136.111111111111
-0.27,0.11,11138.888888888889
-0.275,0.12,11141.666666666666
-0.285,0.12,11144.444444444445
-0.305,0.1,11147.222222222223
-0.3,0.12,11150.0
-0.29,0.135,11152.777777777777
-0.28,0.135,11155.555555555555
-0.275,0.125,11158.333333333334
-0.285,0.105,11161.111111111111
-0.3,0.105,11163.888888888889
-0.305,0.11,11166.666666666666
-0.295,0.12,11169.444444444445
-0.265,0.135,11172.222222222223
-0.26,0.13,11175.0
-0.285,0.115,11177.777777777777
-0.3,0.105,11180.555555555555
-0.285,0.115,11183.333333333334
-0.27,0.135,11186.111111111111
-0.265,0.135,11188.888888888889
-0.26,0.125,11191.666666666666
-0.27,0.1,11194.444444444445
-0.28,0.105,11197.222222222223
-0.275,0.12,11200.0
-0.275,0.12,11202.777777777777
-0.25,0.13,11205.555555555555
-0.265,0.135,11208.333333333334
-0.265,0.125,11211.111111111111
-0.27,0.105,11213.888888888889
-0.28,0.115,11216.666666666666
-0.265,0.12,11219.444444444445
-0.26,0.145,11222.222222222223
-0.265,0.13,11225.0
-0.29,0.11,11227.777777777777
-0.3,0.11,11230.555555555555
-0.3,0.125,11233.333333333334
-0.29,0.125,11236.111111111111
-0.275,0.13,11238.888888888889
-0.3,0.13,11241.666666666666
-0.3,0.115,11244.444444444445
-0.31,0.1,11247.222222222223
-0.33,0.105,11250.0
-0.32,0.11,11252.777777777777
-0.315,0.115,11255.555555555555
-0.325,0.11,11258.333333333334
-0.33,0.075,11261.111111111111
-0.34,0.06,11263.888888888889
-0.365,0.055,11266.666666666666
-0.34,0.055,11269.444444444445
-0.33,0.06,11272.222222222223
-0.33,0.07,11275.0
-0.335,0.05,11277.777777777777
-0.33,0.05,11280.555555555555
-0.355,0.07,11283.333333333334
-0.34,0.09,11286.111111111111
-0.33,0.105,11288.888888888889
-0.33,0.11,11291.666666666666
-0.33,0.105,11294.444444444445
-0.33,0.1,11297.222222222223
-0.33,0.1,11300.0
-0.34,0.125,11302.777777777777
-0.32,0.13,11305.555555555555
-0.32,0.125,11308.333333333334
-0.33,0.11,11311.111111111111
-0.33,0.115,11313.888888888889
-0.345,0.115,11316.666666666666
-0.335,0.12,11319.444444444445
-0.32,0.12,11322.222222222223
-0.315,0.13,11325.0
-0.325,0.11,11327.777777777777
-0.325,0.125,11330.555555555555
-0.34,0.125,11333.333333333334
-0.32,0.145,11336.111111111111
-0.32,0.15,11338.888888888889
-0.305,0.15,11341.666666666666
-0.305,0.135,11344.444444444445
-0.305,0.14,11347.222222222223
-0.305,0.14,11350.0
-0.3,0.145,11352.777777777777
-0.29,0.14,11355.555555555555
-0.285,0.15,11358.333333333334
-0.295,0.135,11361.111111111111
-0.31,0.125,11363.888888888889
-0.305,0.125,11366.666666666666
-0.305,0.14,11369.444444444445
-0.31,0.14,11372.222222222223
-0.305,0.15,11375.0
-0.3,0.13,11377.777777777777
-0.33,0.135,11380.555555555555
-0.335,0.14,11383.333333333334
-0.325,0.165,11386.111111111111
-0.32,0.165,11388.888888888889
-0.325,0.145,11391.666666666666
-0.335,0.11,11394.444444444445
-0.335,0.085,11397.222222222223
-0.34,0.09,11400.0
-0.33,0.095,11402.777777777777
-0.325,0.07,11405.555555555555
-0.33,0.06,11408.333333333334
-0.33,0.045,11411.111111111111
-0.345,0.05,11413.888888888889
-0.345,0.045,11416.666666666666
-0.31,0.06,11419.444444444445
-0.31,0.07,11422.222222222223
-0.305,0.065,11425.0
-0.325,0.065,11427.777777777777
-0.33,0.055,11430.555555555555
-0.32,0.07,11433.333333333334
-0.32,0.095,11436.111111111111
-0.305,0.115,11438.888888888889
-0.305,0.115,11441.666666666666
-0.305,0.11,11444.444444444445
-0.3,0.105,11447.222222222223
-0.315,0.11,11450.0
-0.305,0.12,11452.777777777777
