MLII,V1,time_ms
-0.5,0.05,0.0
-0.5,0.05,2.7777777777777777
-0.5,0.05,5.555555555555555
-0.5,0.05,8.333333333333334
-0.5,0.05,11.11111111111111
-0.5,0.05,13.88888888888889
-0.5,0.05,16.666666666666668
-0.5,0.05,19.444444444444443
-0.46,0.05,22.22222222222222
-0.4,0.04,25.0
-0.34,0.02,27.77777777777778
-0.29,-0.005,30.555555555555557
-0.275,-0.05,33.333333333333336
-0.28,-0.095,36.111111111111114
-0.28,-0.1,38.888888888888886
-0.285,-0.1,41.666666666666664
-0.265,-0.08,44.44444444444444
-0.24,-0.085,47.22222222222222
-0.215,-0.105,50.0
-0.21,-0.145,52.77777777777778
-0.205,-0.185,55.55555555555556
-0.195,-0.175,58.333333333333336
-0.185,-0.155,61.111111111111114
-0.175,-0.15,63.888888888888886
-0.17,-0.155,66.66666666666667
-0.185,-0.18,69.44444444444444
-0.185,-0.175,72.22222222222223
-0.17,-0.19,75.0
-0.145,-0.2,77.77777777777777
-0.12,-0.21,80.55555555555556
-0.095,-0.23,83.33333333333333
-0.1,-0.26,86.11111111111111
-0.125,-0.28,88.88888888888889
-0.115,-0.29,91.66666666666667
-0.11,-0.27,94.44444444444444
-0.07,-0.26,97.22222222222223
-0.055,-0.295,100.0
-0.05,-0.32,102.77777777777777
-0.06,-0.38,105.55555555555556
-0.05,-0.4,108.33333333333333
-0.02,-0.415,111.11111111111111
0.0,-0.415,113.88888888888889
0.015,-0.44,116.66666666666667
0.025,-0.47,119.44444444444444
0.025,-0.485,122.22222222222223
0.05,-0.505,125.0
0.09,-0.515,127.77777777777777
0.11,-0.525,130.55555555555554
0.14,-0.56,133.33333333333334
0.145,-0.575,136.11111111111111
0.15,-0.59,138.88888888888889
0.14,-0.605,141.66666666666666
0.14,-0.6,144.44444444444446
0.18,-0.57,147.22222222222223
0.21,-0.595,150.0
0.225,-0.615,152.77777777777777
0.235,-0.61,155.55555555555554
0.245,-0.605,158.33333333333334
0.25,-0.57,161.11111111111111
0.275,-0.545,163.88888888888889
0.275,-0.52,166.66666666666666
0.26,-0.53,169.44444444444446
0.23,-0.485,172.22222222222223
0.23,-0.46,175.0
0.205,-0.42,177.77777777777777
0.22,-0.385,180.55555555555554
0.215,-0.36,183.33333333333334
0.175,-0.34,186.11111111111111
0.14,-0.32,188.88888888888889
0.11,-0.275,191.66666666666666
0.09,-0.24,194.44444444444446
0.08,-0.185,197.22222222222223
0.06,-0.16,200.0
0.035,-0.155,202.77777777777777
0.0,-0.135,205.55555555555554
-0.03,-0.105,208.33333333333334
-0.04,-0.085,211.11111111111111
-0.06,-0.035,213.88888888888889
-0.08,-0.02,216.66666666666666
-0.115,-0.01,219.44444444444446
-0.15,0.01,222.22222222222223
-0.18,0.02,225.0
-0.19,0.06,227.77777777777777
-0.19,0.085,230.55555555555554
-0.19,0.08,233.33333333333334
-0.22,0.065,236.11111111111111
-0.24,0.05,238.88888888888889
-0.265,0.05,241.66666666666666
-0.28,0.095,244.44444444444446
-0.265,0.13,247.22222222222223
-0.265,0.115,250.0
-0.27,0.095,252.77777777777777
-0.29,0.085,255.55555555555554
-0.3,0.085,258.3333333333333
-0.31,0.09,261.1111111111111
-0.295,0.1,263.8888888888889
-0.295,0.105,266.6666666666667
-0.305,0.11,269.44444444444446
-0.315,0.105,272.22222222222223
-0.325,0.12,275.0
-0.305,0.135,277.77777777777777
-0.28,0.125,280.55555555555554
-0.28,0.105,283.3333333333333
-0.28,0.095,286.1111111111111
-0.3,0.08,288.8888888888889
-0.305,0.09,291.6666666666667
-0.31,0.11,294.44444444444446
-0.29,0.135,297.22222222222223
-0.275,0.135,300.0
-0.28,0.115,302.77777777777777
-0.285,0.1,305.55555555555554
-0.265,0.09,308.3333333333333
-0.26,0.11,311.1111111111111
-0.235,0.11,313.8888888888889
-0.245,0.095,316.6666666666667
-0.26,0.09,319.44444444444446
-0.27,0.09,322.22222222222223
-0.29,0.115,325.0
-0.27,0.115,327.77777777777777
-0.235,0.115,330.55555555555554
-0.215,0.095,333.3333333333333
-0.22,0.08,336.1111111111111
-0.24,0.07,338.8888888888889
-0.25,0.085,341.6666666666667
-0.25,0.095,344.44444444444446
-0.245,0.12,347.22222222222223
-0.23,0.12,350.0
-0.23,0.095,352.77777777777777
-0.23,0.085,355.55555555555554
-0.235,0.08,358.3333333333333
-0.22,0.09,361.1111111111111
-0.215,0.09,363.8888888888889
-0.215,0.08,366.6666666666667
-0.225,0.08,369.44444444444446
-0.245,0.075,372.22222222222223
-0.25,0.08,375.0
-0.24,0.095,377.77777777777777
-0.22,0.105,380.55555555555554
-0.215,0.09,383.3333333333333
-0.225,0.07,386.1111111111111
-0.24,0.055,388.8888888888889
-0.255,0.07,391.6666666666667
-0.235,0.09,394.44444444444446
-0.23,0.115,397.22222222222223
-0.225,0.105,400.0
-0.24,0.095,402.77777777777777
-0.24,0.08,405.55555555555554
-0.245,0.07,408.3333333333333
-0.23,0.075,411.1111111111111
-0.225,0.09,413.8888888888889
-0.215,0.105,416.6666666666667
-0.225,0.12,419.44444444444446
-0.245,0.11,422.22222222222223
-0.225,0.13,425.0
-0.19,0.135,427.77777777777777
-0.15,0.165,430.55555555555554
-0.125,0.15,433.3333333333333
-0.11,0.11,436.1111111111111
-0.12,0.1,438.8888888888889
-0.11,0.075,441.6666666666667
-0.085,0.105,444.44444444444446
-0.065,0.095,447.22222222222223
-0.03,0.09,450.0
-0.005,0.05,452.77777777777777
0.01,0.035,455.55555555555554
0.01,0.03,458.3333333333333
0.025,0.05,461.1111111111111
0.04,0.07,463.8888888888889
0.035,0.08,466.6666666666667
0.025,0.075,469.44444444444446
0.02,0.065,472.22222222222223
0.015,0.065,475.0
0.02,0.07,477.77777777777777
0.01,0.075,480.55555555555554
-0.025,0.06,483.3333333333333
-0.075,0.035,486.1111111111111
-0.13,0.04,488.8888888888889
-0.165,0.045,491.6666666666667
-0.18,0.075,494.44444444444446
-0.175,0.08,497.22222222222223
-0.19,0.07,500.0
-0.21,0.055,502.77777777777777
-0.225,0.025,505.55555555555554
-0.24,0.015,508.3333333333333
-0.23,0.04,511.1111111111111
-0.23,0.065,513.8888888888889
-0.25,0.07,516.6666666666666
-0.265,0.075,519.4444444444445
-0.28,0.06,522.2222222222222
-0.275,0.055,525.0
-0.27,0.06,527.7777777777778
-0.26,0.06,530.5555555555555
-0.245,0.065,533.3333333333334
-0.27,0.04,536.1111111111111
-0.285,0.04,538.8888888888889
-0.29,0.055,541.6666666666666
-0.29,0.095,544.4444444444445
-0.27,0.105,547.2222222222222
-0.25,0.085,550.0
-0.25,0.065,552.7777777777778
-0.255,0.045,555.5555555555555
-0.255,0.055,558.3333333333334
-0.245,0.09,561.1111111111111
-0.22,0.13,563.8888888888889
-0.205,0.145,566.6666666666666
-0.185,0.09,569.4444444444445
-0.165,0.015,572.2222222222222
-0.095,-0.01,575.0
0.015,-0.03,577.7777777777778
0.205,-0.04,580.5555555555555
0.425,-0.03,583.3333333333334
0.655,0.025,586.1111111111111
0.915,0.17,588.8888888888889
1.135,0.42,591.6666666666666
1.295,0.64,594.4444444444445
1.315,0.805,597.2222222222222
1.13,0.895,600.0
0.74,0.89,602.7777777777778
0.275,0.845,605.5555555555555
-0.165,0.835,608.3333333333334
-0.47,0.85,611.1111111111111
-0.605,0.93,613.8888888888889
-0.61,1.01,616.6666666666666
-0.59,1.08,619.4444444444445
-0.575,1.135,622.2222222222222
-0.6,1.195,625.0
-0.615,1.245,627.7777777777778
-0.645,1.29,630.5555555555555
-0.69,1.32,633.3333333333334
-0.725,1.38,636.1111111111111
-0.755,1.435,638.8888888888889
-0.755,1.505,641.6666666666666
-0.73,1.55,644.4444444444445
-0.715,1.555,647.2222222222222
-0.705,1.505,650.0
-0.725,1.385,652.7777777777778
-0.75,1.23,655.5555555555555
-0.745,1.06,658.3333333333334
-0.715,0.905,661.1111111111111
-0.65,0.735,663.8888888888889
-0.6,0.57,666.6666666666666
-0.55,0.405,669.4444444444445
-0.505,0.255,672.2222222222222
-0.45,0.165,675.0
-0.365,0.11,677.7777777777778
-0.28,0.075,680.5555555555555
-0.235,0.03,683.3333333333334
-0.195,-0.01,686.1111111111111
-0.185,-0.025,688.8888888888889
-0.17,-0.03,691.6666666666666
-0.155,-0.04,694.4444444444445
-0.14,-0.03,697.2222222222222
-0.125,-0.06,700.0
-0.105,-0.09,702.7777777777778
-0.105,-0.13,705.5555555555555
-0.095,-0.135,708.3333333333334
-0.085,-0.135,711.1111111111111
-0.07,-0.125,713.8888888888889
-0.065,-0.125,716.6666666666666
-0.075,-0.135,719.4444444444445
-0.07,-0.17,722.2222222222222
-0.07,-0.175,725.0
-0.04,-0.19,727.7777777777778
-0.02,-0.185,730.5555555555555
-0.025,-0.21,733.3333333333334
-0.025,-0.235,736.1111111111111
-0.045,-0.25,738.8888888888889
-0.035,-0.255,741.6666666666666
-0.01,-0.225,744.4444444444445
0.015,-0.23,747.2222222222222
0.03,-0.245,750.0
0.02,-0.28,752.7777777777778
0.03,-0.31,755.5555555555555
0.03,-0.31,758.3333333333334
0.05,-0.295,761.1111111111111
0.065,-0.305,763.8888888888889
0.07,-0.315,766.6666666666666
0.075,-0.34,769.4444444444445
0.085,-0.39,772.2222222222222
0.09,-0.415,775.0
0.13,-0.42,777.7777777777778
0.16,-0.45,780.5555555555555
0.185,-0.47,783.3333333333334
0.19,-0.51,786.1111111111111
0.185,-0.525,788.8888888888889
0.185,-0.53,791.6666666666666
0.22,-0.525,794.4444444444445
0.25,-0.535,797.2222222222222
0.28,-0.57,800.0
0.27,-0.59,802.7777777777778
0.285,-0.62,805.5555555555555
0.295,-0.62,808.3333333333334
0.32,-0.61,811.1111111111111
0.355,-0.58,813.8888888888889
0.365,-0.585,816.6666666666666
0.37,-0.58,819.4444444444445
0.36,-0.58,822.2222222222222
0.365,-0.565,825.0
0.395,-0.52,827.7777777777778
0.395,-0.5,830.5555555555555
0.395,-0.5,833.3333333333334
0.355,-0.475,836.1111111111111
0.325,-0.45,838.8888888888889
0.305,-0.395,841.6666666666666
0.29,-0.345,844.4444444444445
0.285,-0.31,847.2222222222222
0.27,-0.285,850.0
0.23,-0.265,852.7777777777778
0.185,-0.245,855.5555555555555
0.155,-0.21,858.3333333333334
0.12,-0.15,861.1111111111111
0.1,-0.085,863.8888888888889
0.08,-0.07,866.6666666666666
0.05,-0.05,869.4444444444445
0.02,-0.055,872.2222222222222
0.0,-0.045,875.0
-0.025,-0.02,877.7777777777778
-0.01,-0.005,880.5555555555555
-0.02,0.02,883.3333333333334
-0.055,0.02,886.1111111111111
-0.08,0.035,888.8888888888889
-0.09,0.055,891.6666666666666
-0.1,0.07,894.4444444444445
-0.11,0.08,897.2222222222222
-0.115,0.065,900.0
-0.12,0.04,902.7777777777778
-0.14,0.035,905.5555555555555
-0.17,0.035,908.3333333333334
-0.17,0.085,911.1111111111111
-0.16,0.095,913.8888888888889
-0.165,0.105,916.6666666666666
-0.19,0.095,919.4444444444445
-0.205,0.075,922.2222222222222
-0.195,0.075,925.0
-0.175,0.075,927.7777777777778
-0.16,0.09,930.5555555555555
-0.16,0.085,933.3333333333334
-0.19,0.085,936.1111111111111
-0.2,0.075,938.8888888888889
-0.19,0.1,941.6666666666666
-0.18,0.105,944.4444444444445
-0.16,0.095,947.2222222222222
-0.15,0.085,950.0
-0.17,0.07,952.7777777777778
-0.175,0.065,955.5555555555555
-0.19,0.07,958.3333333333334
-0.175,0.105,961.1111111111111
-0.15,0.135,963.8888888888889
-0.14,0.115,966.6666666666666
-0.14,0.075,969.4444444444445
-0.145,0.04,972.2222222222222
-0.145,0.05,975.0
-0.145,0.08,977.7777777777778
-0.135,0.08,980.5555555555555
-0.135,0.09,983.3333333333334
-0.145,0.075,986.1111111111111
-0.15,0.055,988.8888888888889
-0.15,0.055,991.6666666666666
-0.135,0.06,994.4444444444445
-0.125,0.07,997.2222222222222
-0.105,0.055,1000.0
-0.125,0.06,1002.7777777777778
-0.16,0.06,1005.5555555555555
-0.165,0.055,1008.3333333333334
-0.145,0.08,1011.1111111111111
-0.125,0.07,1013.8888888888889
-0.12,0.065,1016.6666666666666
-0.125,0.06,1019.4444444444445
-0.15,0.02,1022.2222222222222
-0.145,0.045,1025.0
-0.155,0.065,1027.7777777777778
-0.135,0.085,1030.5555555555557
-0.15,0.09,1033.3333333333333
-0.14,0.055,1036.111111111111
-0.145,0.055,1038.888888888889
-0.145,0.05,1041.6666666666667
-0.135,0.06,1044.4444444444443
-0.125,0.07,1047.2222222222222
-0.13,0.08,1050.0
-0.14,0.065,1052.7777777777778
-0.155,0.065,1055.5555555555557
-0.165,0.065,1058.3333333333333
-0.155,0.075,1061.111111111111
-0.135,0.075,1063.888888888889
-0.12,0.065,1066.6666666666667
-0.12,0.05,1069.4444444444443
-0.14,0.06,1072.2222222222222
-0.155,0.09,1075.0
-0.145,0.11,1077.7777777777778
-0.135,0.135,1080.5555555555557
-0.11,0.125,1083.3333333333333
-0.1,0.115,1086.111111111111
-0.095,0.11,1088.888888888889
-0.095,0.12,1091.6666666666667
-0.06,0.145,1094.4444444444443
-0.03,0.165,1097.2222222222222
-0.015,0.165,1100.0
0.0,0.14,1102.7777777777778
0.01,0.11,1105.5555555555557
0.02,0.075,1108.3333333333333
0.05,0.085,1111.111111111111
0.095,0.065,1113.888888888889
0.105,0.055,1116.6666666666667
0.12,0.045,1119.4444444444443
0.13,0.05,1122.2222222222222
0.135,0.065,1125.0
0.135,0.08,1127.7777777777778
0.145,0.085,1130.5555555555557
0.16,0.075,1133.3333333333333
0.17,0.07,1136.111111111111
0.135,0.05,1138.888888888889
0.115,0.065,1141.6666666666667
0.075,0.09,1144.4444444444443
0.04,0.105,1147.2222222222222
0.005,0.095,1150.0
-0.03,0.06,1152.7777777777778
-0.065,0.04,1155.5555555555557
-0.08,0.03,1158.3333333333333
-0.105,0.055,1161.111111111111
-0.085,0.06,1163.888888888889
-0.125,0.085,1166.6666666666667
-0.145,0.075,1169.4444444444443
-0.135,0.075,1172.2222222222222
-0.145,0.06,1175.0
-0.135,0.07,1177.7777777777778
-0.15,0.07,1180.5555555555557
-0.135,0.075,1183.3333333333333
-0.145,0.065,1186.111111111111
-0.16,0.065,1188.888888888889
-0.18,0.08,1191.6666666666667
-0.17,0.095,1194.4444444444443
-0.16,0.09,1197.2222222222222
-0.135,0.075,1200.0
-0.15,0.05,1202.7777777777778
-0.16,0.045,1205.5555555555557
-0.165,0.06,1208.3333333333333
-0.16,0.065,1211.111111111111
-0.135,0.11,1213.888888888889
-0.135,0.105,1216.6666666666667
-0.135,0.1,1219.4444444444443
-0.125,0.1,1222.2222222222222
-0.135,0.11,1225.0
-0.105,0.1,1227.7777777777778
-0.05,0.025,1230.5555555555557
0.005,-0.015,1233.3333333333333
0.085,-0.065,1236.111111111111
0.18,-0.04,1238.888888888889
0.36,-0.015,1241.6666666666667
0.61,0.045,1244.4444444444443
0.875,0.185,1247.2222222222222
1.12,0.375,1250.0
1.305,0.555,1252.7777777777778
1.35,0.715,1255.5555555555557
1.24,0.855,1258.3333333333333
0.93,0.915,1261.111111111111
0.5,0.915,1263.888888888889
0.08,0.865,1266.6666666666667
-0.27,0.87,1269.4444444444443
-0.42,0.875,1272.2222222222222
-0.435,0.955,1275.0
-0.385,1.05,1277.7777777777778
-0.37,1.14,1280.5555555555557
-0.4,1.2,1283.3333333333333
-0.465,1.25,1286.111111111111
-0.515,1.29,1288.888888888889
-0.555,1.335,1291.6666666666667
-0.57,1.41,1294.4444444444443
-0.555,1.475,1297.2222222222222
-0.535,1.515,1300.0
-0.555,1.545,1302.7777777777778
-0.585,1.545,1305.5555555555557
-0.595,1.52,1308.3333333333333
-0.605,1.465,1311.111111111111
-0.615,1.365,1313.888888888889
-0.605,1.22,1316.6666666666667
-0.585,1.04,1319.4444444444443
-0.56,0.855,1322.2222222222222
-0.52,0.67,1325.0
-0.47,0.515,1327.7777777777778
-0.41,0.38,1330.5555555555557
-0.355,0.255,1333.3333333333333
-0.32,0.17,1336.111111111111
-0.275,0.11,1338.888888888889
-0.23,0.105,1341.6666666666667
-0.155,0.1,1344.4444444444443
-0.105,0.08,1347.2222222222222
-0.06,0.03,1350.0
-0.06,-0.01,1352.7777777777778
-0.055,-0.055,1355.5555555555557
-0.05,-0.07,1358.3333333333333
-0.035,-0.055,1361.111111111111
0.0,-0.045,1363.888888888889
0.015,-0.055,1366.6666666666667
0.02,-0.09,1369.4444444444443
0.025,-0.115,1372.2222222222222
0.02,-0.135,1375.0
0.025,-0.135,1377.7777777777778
0.045,-0.135,1380.5555555555557
0.06,-0.14,1383.3333333333333
0.035,-0.16,1386.111111111111
0.01,-0.18,1388.888888888889
0.025,-0.17,1391.6666666666667
0.055,-0.16,1394.4444444444443
0.07,-0.175,1397.2222222222222
0.08,-0.2,1400.0
0.09,-0.23,1402.7777777777778
0.085,-0.245,1405.5555555555557
0.065,-0.26,1408.3333333333333
0.085,-0.245,1411.111111111111
0.105,-0.24,1413.888888888889
0.105,-0.245,1416.6666666666667
0.095,-0.285,1419.4444444444443
0.115,-0.32,1422.2222222222222
0.125,-0.35,1425.0
0.145,-0.345,1427.7777777777778
0.18,-0.375,1430.5555555555557
0.19,-0.395,1433.3333333333333
0.2,-0.41,1436.111111111111
0.175,-0.43,1438.888888888889
0.195,-0.44,1441.6666666666667
0.215,-0.455,1444.4444444444443
0.23,-0.465,1447.2222222222222
0.25,-0.505,1450.0
0.26,-0.54,1452.7777777777778
0.25,-0.58,1455.5555555555557
0.275,-0.585,1458.3333333333333
0.285,-0.575,1461.111111111111
0.32,-0.56,1463.888888888889
0.325,-0.585,1466.6666666666667
0.335,-0.6,1469.4444444444443
0.34,-0.625,1472.2222222222222
0.35,-0.625,1475.0
0.375,-0.61,1477.7777777777778
0.4,-0.6,1480.5555555555557
0.405,-0.595,1483.3333333333333
0.395,-0.59,1486.111111111111
0.38,-0.57,1488.888888888889
0.37,-0.525,1491.6666666666667
0.385,-0.485,1494.4444444444443
0.395,-0.47,1497.2222222222222
0.39,-0.445,1500.0
0.375,-0.43,1502.7777777777778
0.335,-0.445,1505.5555555555557
0.32,-0.405,1508.3333333333333
0.305,-0.36,1511.111111111111
0.295,-0.305,1513.888888888889
0.29,-0.255,1516.6666666666667
0.25,-0.235,1519.4444444444443
0.235,-0.22,1522.2222222222222
0.21,-0.195,1525.0
0.195,-0.16,1527.7777777777778
0.185,-0.135,1530.5555555555557
0.17,-0.105,1533.3333333333333
0.13,-0.09,1536.111111111111
0.075,-0.065,1538.888888888889
0.065,-0.03,1541.6666666666667
0.05,0.01,1544.4444444444443
0.05,0.025,1547.2222222222222
0.045,0.03,1550.0
0.025,0.005,1552.7777777777778
0.0,-0.005,1555.5555555555557
-0.025,0.005,1558.3333333333333
-0.035,0.055,1561.111111111111
-0.045,0.09,1563.888888888889
-0.045,0.085,1566.6666666666667
-0.065,0.08,1569.4444444444443
-0.08,0.065,1572.2222222222222
-0.095,0.07,1575.0
-0.085,0.09,1577.7777777777778
-0.08,0.095,1580.5555555555557
-0.085,0.085,1583.3333333333333
-0.095,0.07,1586.111111111111
-0.12,0.075,1588.888888888889
-0.125,0.095,1591.6666666666667
-0.1,0.1,1594.4444444444443
-0.1,0.12,1597.2222222222222
-0.09,0.1,1600.0
-0.095,0.07,1602.7777777777778
-0.11,0.05,1605.5555555555557
-0.115,0.075,1608.3333333333333
-0.11,0.095,1611.111111111111
-0.095,0.115,1613.888888888889
-0.095,0.125,1616.6666666666667
-0.105,0.095,1619.4444444444443
-0.11,0.055,1622.2222222222222
-0.11,0.065,1625.0
-0.09,0.07,1627.7777777777778
-0.075,0.085,1630.5555555555557
-0.085,0.08,1633.3333333333333
-0.1,0.07,1636.111111111111
-0.135,0.075,1638.888888888889
-0.105,0.085,1641.6666666666667
-0.085,0.11,1644.4444444444443
-0.085,0.105,1647.2222222222222
-0.075,0.06,1650.0
-0.07,0.055,1652.7777777777778
-0.095,0.06,1655.5555555555557
-0.105,0.065,1658.3333333333333
-0.09,0.09,1661.111111111111
-0.075,0.11,1663.888888888889
-0.065,0.1,1666.6666666666667
-0.07,0.085,1669.4444444444443
-0.085,0.05,1672.2222222222222
-0.11,0.045,1675.0
-0.11,0.075,1677.7777777777778
-0.095,0.095,1680.5555555555557
-0.07,0.085,1683.3333333333333
-0.08,0.095,1686.111111111111
-0.1,0.065,1688.888888888889
-0.1,0.08,1691.6666666666667
-0.1,0.085,1694.4444444444443
-0.08,0.09,1697.2222222222222
-0.08,0.08,1700.0
-0.1,0.055,1702.7777777777778
-0.12,0.065,1705.5555555555557
-0.13,0.075,1708.3333333333333
-0.115,0.105,1711.111111111111
-0.105,0.13,1713.888888888889
-0.1,0.1,1716.6666666666667
-0.115,0.055,1719.4444444444443
-0.145,0.045,1722.2222222222222
-0.12,0.06,1725.0
-0.105,0.075,1727.7777777777778
-0.095,0.1,1730.5555555555557
-0.1,0.1,1733.3333333333333
-0.1,0.095,1736.111111111111
-0.125,0.08,1738.888888888889
-0.135,0.075,1741.6666666666667
-0.115,0.095,1744.4444444444443
-0.09,0.12,1747.2222222222222
-0.075,0.125,1750.0
-0.085,0.135,1752.7777777777778
-0.11,0.14,1755.5555555555557
-0.1,0.14,1758.3333333333333
-0.075,0.18,1761.111111111111
-0.05,0.2,1763.888888888889
-0.03,0.19,1766.6666666666667
-0.015,0.175,1769.4444444444443
-0.005,0.125,1772.2222222222222
-0.015,0.1,1775.0
0.005,0.1,1777.7777777777778
0.02,0.105,1780.5555555555557
0.065,0.095,1783.3333333333333
0.095,0.055,1786.111111111111
0.095,0.04,1788.888888888889
0.115,0.07,1791.6666666666667
0.145,0.085,1794.4444444444443
0.165,0.08,1797.2222222222222
0.16,0.085,1800.0
0.125,0.07,1802.7777777777778
0.095,0.07,1805.5555555555557
0.09,0.085,1808.3333333333333
0.1,0.095,1811.111111111111
0.09,0.12,1813.888888888889
0.085,0.115,1816.6666666666667
0.045,0.085,1819.4444444444443
-0.005,0.075,1822.2222222222222
-0.06,0.06,1825.0
-0.08,0.065,1827.7777777777778
-0.085,0.095,1830.5555555555557
-0.105,0.095,1833.3333333333333
-0.12,0.065,1836.111111111111
-0.14,0.065,1838.888888888889
-0.155,0.055,1841.6666666666667
-0.155,0.065,1844.4444444444443
-0.16,0.085,1847.2222222222222
-0.175,0.055,1850.0
-0.18,0.055,1852.7777777777778
-0.205,0.04,1855.5555555555557
-0.225,0.05,1858.3333333333333
-0.22,0.07,1861.111111111111
-0.195,0.095,1863.888888888889
-0.195,0.075,1866.6666666666667
-0.195,0.06,1869.4444444444443
-0.23,0.045,1872.2222222222222
-0.225,0.04,1875.0
-0.22,0.055,1877.7777777777778
-0.21,0.075,1880.5555555555557
-0.215,0.08,1883.3333333333333
-0.215,0.07,1886.111111111111
-0.255,0.055,1888.888888888889
-0.235,0.07,1891.6666666666667
-0.205,0.065,1894.4444444444443
-0.19,0.08,1897.2222222222222
-0.185,0.075,1900.0
-0.175,0.09,1902.7777777777778
-0.18,0.09,1905.5555555555557
-0.175,0.055,1908.3333333333333
-0.15,0.015,1911.111111111111
-0.06,-0.015,1913.888888888889
0.045,-0.025,1916.6666666666667
0.19,-0.035,1919.4444444444443
0.37,-0.015,1922.2222222222222
0.615,0.085,1925.0
0.865,0.275,1927.7777777777778
1.08,0.495,1930.5555555555557
1.205,0.69,1933.3333333333333
1.185,0.81,1936.111111111111
0.93,0.885,1938.888888888889
0.53,0.87,1941.6666666666667
0.1,0.845,1944.4444444444443
-0.24,0.84,1947.2222222222222
-0.44,0.85,1950.0
-0.515,0.89,1952.7777777777778
-0.495,0.955,1955.5555555555557
-0.51,1.05,1958.3333333333333
-0.515,1.14,1961.111111111111
-0.525,1.2,1963.888888888889
-0.565,1.215,1966.6666666666667
-0.61,1.24,1969.4444444444443
-0.65,1.27,1972.2222222222222
-0.675,1.305,1975.0
-0.69,1.39,1977.7777777777778
-0.665,1.485,1980.5555555555557
-0.685,1.52,1983.3333333333333
-0.685,1.535,1986.111111111111
-0.72,1.51,1988.888888888889
-0.72,1.455,1991.6666666666667
-0.73,1.335,1994.4444444444443
-0.705,1.195,1997.2222222222222
-0.69,1.005,2000.0
-0.675,0.815,2002.7777777777778
-0.66,0.63,2005.5555555555557
-0.63,0.455,2008.3333333333333
-0.57,0.32,2011.111111111111
-0.495,0.215,2013.888888888889
-0.435,0.13,2016.6666666666667
-0.36,0.075,2019.4444444444443
-0.32,0.025,2022.2222222222222
-0.265,0.01,2025.0
-0.24,-0.005,2027.7777777777778
-0.22,-0.02,2030.5555555555557
-0.21,-0.04,2033.3333333333333
-0.21,-0.07,2036.111111111111
-0.22,-0.09,2038.888888888889
-0.195,-0.12,2041.6666666666667
-0.165,-0.11,2044.4444444444443
-0.145,-0.115,2047.2222222222222
-0.16,-0.14,2050.0
-0.16,-0.155,2052.777777777778
-0.175,-0.195,2055.5555555555557
-0.17,-0.185,2058.3333333333335
-0.17,-0.165,2061.1111111111113
-0.125,-0.15,2063.8888888888887
-0.125,-0.175,2066.6666666666665
-0.11,-0.21,2069.4444444444443
-0.125,-0.25,2072.222222222222
-0.135,-0.26,2075.0
-0.12,-0.255,2077.777777777778
-0.105,-0.235,2080.5555555555557
-0.105,-0.25,2083.3333333333335
-0.105,-0.26,2086.1111111111113
-0.12,-0.29,2088.8888888888887
-0.105,-0.305,2091.6666666666665
-0.09,-0.31,2094.4444444444443
-0.06,-0.325,2097.222222222222
-0.045,-0.35,2100.0
-0.05,-0.375,2102.777777777778
-0.065,-0.4,2105.5555555555557
-0.075,-0.405,2108.3333333333335
-0.06,-0.4,2111.1111111111113
-0.045,-0.4,2113.8888888888887
-0.025,-0.435,2116.6666666666665
-0.025,-0.485,2119.4444444444443
-0.02,-0.52,2122.222222222222
-0.005,-0.54,2125.0
0.01,-0.545,2127.777777777778
0.03,-0.535,2130.5555555555557
0.04,-0.555,2133.3333333333335
0.045,-0.58,2136.1111111111113
0.035,-0.6,2138.8888888888887
0.035,-0.615,2141.6666666666665
0.075,-0.615,2144.4444444444443
0.11,-0.63,2147.222222222222
0.13,-0.635,2150.0
0.115,-0.65,2152.777777777778
0.12,-0.67,2155.5555555555557
0.115,-0.635,2158.3333333333335
0.145,-0.605,2161.1111111111113
0.155,-0.58,2163.8888888888887
0.16,-0.56,2166.6666666666665
0.17,-0.565,2169.4444444444443
0.145,-0.575,2172.222222222222
0.14,-0.55,2175.0
0.14,-0.515,2177.777777777778
0.145,-0.485,2180.5555555555557
0.135,-0.445,2183.3333333333335
0.105,-0.425,2186.1111111111113
0.065,-0.4,2188.8888888888887
0.05,-0.365,2191.6666666666665
0.05,-0.32,2194.4444444444443
0.035,-0.29,2197.222222222222
0.02,-0.27,2200.0
-0.01,-0.275,2202.777777777778
-0.045,-0.245,2205.5555555555557
-0.07,-0.21,2208.3333333333335
-0.085,-0.165,2211.1111111111113
-0.095,-0.11,2213.8888888888887
-0.11,-0.095,2216.6666666666665
-0.14,-0.1,2219.4444444444443
-0.17,-0.1,2222.222222222222
-0.18,-0.085,2225.0
-0.195,-0.05,2227.777777777778
-0.19,-0.03,2230.5555555555557
-0.225,-0.005,2233.3333333333335
-0.25,0.0,2236.1111111111113
-0.285,0.0,2238.8888888888887
-0.3,0.005,2241.6666666666665
-0.31,0.025,2244.4444444444443
-0.3,0.02,2247.222222222222
-0.31,0.01,2250.0
-0.325,0.0,2252.777777777778
-0.36,-0.005,2255.5555555555557
-0.37,0.015,2258.3333333333335
-0.36,0.055,2261.1111111111113
-0.345,0.06,2263.8888888888887
-0.33,0.035,2266.6666666666665
-0.34,0.015,2269.4444444444443
-0.37,-0.005,2272.222222222222
-0.375,-0.005,2275.0
-0.37,0.01,2277.777777777778
-0.37,0.025,2280.5555555555557
-0.365,0.035,2283.3333333333335
-0.365,0.035,2286.1111111111113
-0.38,0.035,2288.8888888888887
-0.37,0.015,2291.6666666666665
-0.34,0.01,2294.4444444444443
-0.34,0.03,2297.222222222222
-0.335,0.01,2300.0
-0.36,0.01,2302.777777777778
-0.375,0.025,2305.5555555555557
-0.385,0.02,2308.3333333333335
-0.365,0.045,2311.1111111111113
-0.34,0.045,2313.8888888888887
-0.345,0.025,2316.6666666666665
-0.36,-0.005,2319.4444444444443
-0.37,-0.01,2322.222222222222
-0.375,-0.01,2325.0
-0.375,0.015,2327.777777777778
-0.365,0.025,2330.5555555555557
-0.36,0.025,2333.3333333333335
-0.37,0.01,2336.1111111111113
-0.375,0.01,2338.8888888888887
-0.355,0.015,2341.6666666666665
-0.355,0.015,2344.4444444444443
-0.34,0.01,2347.222222222222
-0.345,0.01,2350.0
-0.365,-0.01,2352.777777777778
-0.385,0.005,2355.5555555555557
-0.39,0.02,2358.3333333333335
-0.38,0.03,2361.1111111111113
-0.36,0.04,2363.8888888888887
-0.345,0.01,2366.6666666666665
-0.36,0.0,2369.4444444444443
-0.385,-0.015,2372.222222222222
-0.395,0.0,2375.0
-0.4,0.03,2377.777777777778
-0.39,0.045,2380.5555555555557
-0.37,0.07,2383.3333333333335
-0.385,0.065,2386.1111111111113
-0.385,0.045,2388.8888888888887
-0.36,0.045,2391.6666666666665
-0.35,0.055,2394.4444444444443
-0.32,0.08,2397.222222222222
-0.32,0.08,2400.0
-0.32,0.085,2402.777777777778
-0.33,0.065,2405.5555555555557
-0.315,0.06,2408.3333333333335
-0.29,0.055,2411.1111111111113
-0.255,0.04,2413.8888888888887
-0.225,-0.005,2416.6666666666665
-0.205,-0.035,2419.4444444444443
-0.2,-0.04,2422.222222222222
-0.185,-0.015,2425.0
-0.16,0.01,2427.777777777778
-0.15,0.015,2430.5555555555557
-0.155,0.025,2433.3333333333335
-0.15,0.01,2436.1111111111113
-0.17,0.0,2438.8888888888887
-0.18,0.015,2441.6666666666665
-0.17,0.035,2444.4444444444443
-0.195,0.02,2447.222222222222
-0.205,0.03,2450.0
-0.245,0.025,2452.777777777778
-0.29,0.015,2455.5555555555557
-0.325,0.02,2458.3333333333335
-0.355,0.01,2461.1111111111113
-0.36,0.015,2463.8888888888887
-0.39,-0.005,2466.6666666666665
-0.405,-0.02,2469.4444444444443
-0.425,-0.03,2472.222222222222
-0.455,-0.01,2475.0
-0.45,0.01,2477.777777777778
-0.465,0.025,2480.5555555555557
-0.465,0.015,2483.3333333333335
-0.47,0.005,2486.1111111111113
-0.485,-0.025,2488.8888888888887
-0.505,-0.025,2491.6666666666665
-0.505,-0.025,2494.4444444444443
-0.5,0.015,2497.222222222222
-0.495,0.01,2500.0
-0.51,0.005,2502.777777777778
-0.52,-0.005,2505.5555555555557
-0.525,-0.01,2508.3333333333335
-0.51,-0.005,2511.1111111111113
-0.49,0.0,2513.8888888888887
-0.47,0.0,2516.6666666666665
-0.485,-0.025,2519.4444444444443
-0.505,-0.03,2522.222222222222
-0.52,-0.005,2525.0
-0.485,0.035,2527.777777777778
-0.47,0.045,2530.5555555555557
-0.47,0.05,2533.3333333333335
-0.465,0.035,2536.1111111111113
-0.465,0.025,2538.8888888888887
-0.455,-0.005,2541.6666666666665
-0.415,-0.06,2544.4444444444443
-0.34,-0.095,2547.222222222222
-0.25,-0.115,2550.0
-0.11,-0.095,2552.777777777778
0.08,-0.06,2555.5555555555557
0.33,0.04,2558.3333333333335
0.605,0.185,2561.1111111111113
0.835,0.35,2563.8888888888887
0.97,0.47,2566.6666666666665
0.955,0.6,2569.4444444444443
0.785,0.705,2572.222222222222
0.445,0.735,2575.0
0.03,0.725,2577.777777777778
-0.345,0.715,2580.5555555555557
-0.62,0.705,2583.3333333333335
-0.745,0.735,2586.1111111111113
-0.75,0.775,2588.8888888888887
-0.715,0.85,2591.6666666666665
-0.71,0.91,2594.4444444444443
-0.74,0.985,2597.222222222222
-0.765,1.045,2600.0
-0.82,1.095,2602.777777777778
-0.86,1.13,2605.5555555555557
-0.88,1.17,2608.3333333333335
-0.88,1.22,2611.1111111111113
-0.865,1.295,2613.8888888888887
-0.86,1.345,2616.6666666666665
-0.86,1.39,2619.4444444444443
-0.88,1.4,2622.222222222222
-0.915,1.36,2625.0
-0.925,1.3,2627.777777777778
-0.93,1.19,2630.5555555555557
-0.905,1.02,2633.3333333333335
-0.885,0.84,2636.1111111111113
-0.84,0.65,2638.8888888888887
-0.8,0.49,2641.6666666666665
-0.74,0.35,2644.4444444444443
-0.695,0.26,2647.222222222222
-0.645,0.17,2650.0
-0.62,0.085,2652.777777777778
-0.575,0.05,2655.5555555555557
-0.5,0.035,2658.3333333333335
-0.43,0.0,2661.1111111111113
-0.365,-0.005,2663.8888888888887
-0.335,-0.04,2666.6666666666665
-0.32,-0.09,2669.4444444444443
-0.325,-0.115,2672.222222222222
-0.325,-0.115,2675.0
-0.315,-0.11,2677.777777777778
-0.3,-0.1,2680.5555555555557
-0.27,-0.12,2683.3333333333335
-0.26,-0.16,2686.1111111111113
-0.26,-0.18,2688.8888888888887
-0.245,-0.175,2691.6666666666665
-0.23,-0.185,2694.4444444444443
-0.225,-0.18,2697.222222222222
-0.215,-0.18,2700.0
-0.21,-0.195,2702.777777777778
-0.225,-0.215,2705.5555555555557
-0.215,-0.22,2708.3333333333335
-0.185,-0.205,2711.1111111111113
-0.165,-0.225,2713.8888888888887
-0.15,-0.25,2716.6666666666665
-0.16,-0.285,2719.4444444444443
-0.16,-0.305,2722.222222222222
-0.175,-0.315,2725.0
-0.155,-0.285,2727.777777777778
-0.12,-0.29,2730.5555555555557
-0.115,-0.295,2733.3333333333335
-0.1,-0.345,2736.1111111111113
-0.105,-0.385,2738.8888888888887
-0.09,-0.4,2741.6666666666665
-0.075,-0.415,2744.4444444444443
-0.05,-0.42,2747.222222222222
-0.04,-0.435,2750.0
-0.03,-0.46,2752.777777777778
-0.05,-0.47,2755.5555555555557
-0.03,-0.48,2758.3333333333335
-0.01,-0.495,2761.1111111111113
0.025,-0.515,2763.8888888888887
0.045,-0.535,2766.6666666666665
0.04,-0.56,2769.4444444444443
0.035,-0.575,2772.222222222222
0.045,-0.585,2775.0
0.055,-0.565,2777.777777777778
0.09,-0.585,2780.5555555555557
0.1,-0.605,2783.3333333333335
0.11,-0.62,2786.1111111111113
0.135,-0.62,2788.8888888888887
0.155,-0.61,2791.6666666666665
0.17,-0.585,2794.4444444444443
0.185,-0.59,2797.222222222222
0.185,-0.595,2800.0
0.165,-0.575,2802.777777777778
0.15,-0.52,2805.5555555555557
0.165,-0.485,2808.3333333333335
0.165,-0.455,2811.1111111111113
0.18,-0.45,2813.8888888888887
0.175,-0.45,2816.6666666666665
0.14,-0.43,2819.4444444444443
0.125,-0.405,2822.222222222222
0.1,-0.365,2825.0
0.1,-0.325,2827.777777777778
0.07,-0.295,2830.5555555555557
0.06,-0.27,2833.3333333333335
0.015,-0.25,2836.1111111111113
-0.015,-0.225,2838.8888888888887
-0.01,-0.185,2841.6666666666665
-0.005,-0.155,2844.4444444444443
-0.02,-0.15,2847.222222222222
-0.035,-0.15,2850.0
-0.08,-0.145,2852.777777777778
-0.105,-0.095,2855.5555555555557
-0.1,-0.07,2858.3333333333335
-0.12,-0.03,2861.1111111111113
-0.145,0.0,2863.8888888888887
-0.17,0.005,2866.6666666666665
-0.185,-0.005,2869.4444444444443
-0.2,0.015,2872.222222222222
-0.205,0.03,2875.0
-0.2,0.045,2877.777777777778
-0.215,0.05,2880.5555555555557
-0.24,0.05,2883.3333333333335
-0.27,0.04,2886.1111111111113
-0.28,0.075,2888.8888888888887
-0.27,0.09,2891.6666666666665
-0.27,0.095,2894.4444444444443
-0.26,0.075,2897.222222222222
-0.26,0.05,2900.0
-0.275,0.025,2902.777777777778
-0.285,0.05,2905.5555555555557
-0.28,0.08,2908.3333333333335
-0.285,0.085,2911.1111111111113
-0.27,0.1,2913.8888888888887
-0.285,0.08,2916.6666666666665
-0.285,0.07,2919.4444444444443
-0.285,0.065,2922.222222222222
-0.27,0.07,2925.0
-0.26,0.08,2927.777777777778
-0.255,0.07,2930.5555555555557
-0.265,0.065,2933.3333333333335
-0.275,0.06,2936.1111111111113
-0.285,0.065,2938.8888888888887
-0.285,0.09,2941.6666666666665
-0.26,0.11,2944.4444444444443
-0.255,0.085,2947.222222222222
-0.245,0.06,2950.0
-0.26,0.045,2952.777777777778
-0.265,0.05,2955.5555555555557
-0.255,0.06,2958.3333333333335
-0.245,0.07,2961.1111111111113
-0.255,0.07,2963.8888888888887
-0.255,0.08,2966.6666666666665
-0.265,0.075,2969.4444444444443
-0.255,0.075,2972.222222222222
-0.245,0.095,2975.0
-0.225,0.065,2977.777777777778
-0.23,0.05,2980.5555555555557
-0.23,0.045,2983.3333333333335
-0.25,0.045,2986.1111111111113
-0.265,0.06,2988.8888888888887
-0.25,0.09,2991.6666666666665
-0.245,0.095,2994.4444444444443
-0.235,0.1,2997.222222222222
-0.26,0.08,3000.0
-0.255,0.055,3002.777777777778
-0.26,0.04,3005.5555555555557
-0.245,0.055,3008.3333333333335
-0.225,0.07,3011.1111111111113
-0.23,0.06,3013.8888888888887
-0.235,0.06,3016.6666666666665
-0.26,0.065,3019.4444444444443
-0.27,0.07,3022.222222222222
-0.255,0.085,3025.0
-0.24,0.09,3027.777777777778
-0.22,0.075,3030.5555555555557
-0.22,0.06,3033.3333333333335
-0.24,0.05,3036.1111111111113
-0.23,0.045,3038.8888888888887
-0.245,0.075,3041.6666666666665
-0.23,0.105,3044.4444444444443
-0.21,0.125,3047.222222222222
-0.235,0.13,3050.0
-0.245,0.125,3052.777777777778
-0.225,0.115,3055.5555555555557
-0.18,0.12,3058.3333333333335
-0.155,0.13,3061.1111111111113
-0.145,0.12,3063.8888888888887
-0.14,0.115,3066.6666666666665
-0.145,0.115,3069.4444444444443
-0.145,0.105,3072.222222222222
-0.12,0.105,3075.0
-0.105,0.1,3077.777777777778
-0.07,0.09,3080.5555555555557
-0.06,0.055,3083.3333333333335
-0.035,0.015,3086.1111111111113
-0.025,0.01,3088.8888888888887
0.0,0.035,3091.6666666666665
0.025,0.06,3094.4444444444443
0.01,0.075,3097.222222222222
0.015,0.065,3100.0
-0.01,0.06,3102.777777777778
-0.005,0.07,3105.5555555555557
0.015,0.075,3108.3333333333335
0.025,0.085,3111.1111111111113
0.015,0.06,3113.8888888888887
0.0,0.045,3116.6666666666665
-0.045,0.05,3119.4444444444443
-0.09,0.05,3122.222222222222
-0.125,0.075,3125.0
-0.14,0.08,3127.777777777778
-0.16,0.085,3130.5555555555557
-0.185,0.045,3133.3333333333335
-0.22,0.04,3136.1111111111113
-0.23,0.03,3138.8888888888887
-0.23,0.03,3141.6666666666665
-0.235,0.045,3144.4444444444443
-0.24,0.03,3147.222222222222
-0.27,0.035,3150.0
-0.285,0.035,3152.777777777778
-0.305,0.055,3155.5555555555557
-0.305,0.06,3158.3333333333335
-0.3,0.085,3161.1111111111113
-0.295,0.065,3163.8888888888887
-0.31,0.03,3166.6666666666665
-0.305,0.025,3169.4444444444443
-0.31,0.025,3172.222222222222
-0.295,0.055,3175.0
-0.295,0.055,3177.777777777778
-0.3,0.07,3180.5555555555557
-0.32,0.06,3183.3333333333335
-0.325,0.055,3186.1111111111113
-0.325,0.06,3188.8888888888887
-0.305,0.075,3191.6666666666665
-0.285,0.07,3194.4444444444443
-0.26,0.07,3197.222222222222
-0.28,0.06,3200.0
-0.295,0.045,3202.777777777778
-0.305,0.075,3205.5555555555557
-0.29,0.105,3208.3333333333335
-0.25,0.14,3211.1111111111113
-0.26,0.15,3213.8888888888887
-0.245,0.1,3216.6666666666665
-0.215,0.04,3219.4444444444443
-0.17,-0.005,3222.222222222222
-0.055,-0.03,3225.0
0.075,-0.055,3227.777777777778
0.235,-0.025,3230.5555555555557
0.43,-0.005,3233.3333333333335
0.64,0.065,3236.1111111111113
0.88,0.22,3238.8888888888887
1.09,0.41,3241.6666666666665
1.25,0.59,3244.4444444444443
1.3,0.725,3247.222222222222
1.205,0.815,3250.0
0.96,0.865,3252.777777777778
0.6,0.86,3255.5555555555557
0.215,0.875,3258.3333333333335
-0.135,0.885,3261.1111111111113
-0.4,0.89,3263.8888888888887
-0.575,0.905,3266.6666666666665
-0.63,0.93,3269.4444444444443
-0.63,0.985,3272.222222222222
-0.59,1.07,3275.0
-0.57,1.14,3277.777777777778
-0.595,1.175,3280.5555555555557
-0.64,1.19,3283.3333333333335
-0.695,1.245,3286.1111111111113
-0.73,1.29,3288.8888888888887
-0.755,1.355,3291.6666666666665
-0.755,1.42,3294.4444444444443
-0.73,1.475,3297.222222222222
-0.73,1.495,3300.0
-0.73,1.5,3302.777777777778
-0.735,1.495,3305.5555555555557
-0.74,1.48,3308.3333333333335
-0.75,1.425,3311.1111111111113
-0.755,1.31,3313.8888888888887
-0.78,1.165,3316.6666666666665
-0.765,1.015,3319.4444444444443
-0.745,0.845,3322.222222222222
-0.69,0.71,3325.0
-0.63,0.56,3327.777777777778
-0.57,0.41,3330.5555555555557
-0.54,0.28,3333.3333333333335
-0.505,0.155,3336.1111111111113
-0.445,0.095,3338.8888888888887
-0.385,0.075,3341.6666666666665
-0.315,0.05,3344.4444444444443
-0.265,0.03,3347.222222222222
-0.235,-0.015,3350.0
-0.23,-0.045,3352.777777777778
-0.215,-0.045,3355.5555555555557
-0.185,-0.07,3358.3333333333335
-0.155,-0.08,3361.1111111111113
-0.14,-0.105,3363.8888888888887
-0.125,-0.135,3366.6666666666665
-0.13,-0.155,3369.4444444444443
-0.14,-0.16,3372.222222222222
-0.12,-0.13,3375.0
-0.105,-0.13,3377.777777777778
-0.105,-0.14,3380.5555555555557
-0.095,-0.16,3383.3333333333335
-0.105,-0.18,3386.1111111111113
-0.1,-0.195,3388.8888888888887
-0.09,-0.185,3391.6666666666665
-0.07,-0.185,3394.4444444444443
-0.05,-0.19,3397.222222222222
-0.07,-0.23,3400.0
-0.065,-0.24,3402.777777777778
-0.06,-0.22,3405.5555555555557
-0.045,-0.215,3408.3333333333335
-0.025,-0.215,3411.1111111111113
-0.005,-0.245,3413.8888888888887
-0.015,-0.285,3416.6666666666665
-0.015,-0.315,3419.4444444444443
-0.02,-0.34,3422.222222222222
-0.005,-0.325,3425.0
0.01,-0.315,3427.777777777778
0.035,-0.325,3430.5555555555557
0.04,-0.35,3433.3333333333335
0.035,-0.39,3436.1111111111113
0.055,-0.415,3438.8888888888887
0.065,-0.43,3441.6666666666665
0.095,-0.44,3444.4444444444443
0.105,-0.47,3447.222222222222
0.105,-0.495,3450.0
0.105,-0.505,3452.777777777778
0.115,-0.51,3455.5555555555557
0.15,-0.495,3458.3333333333335
0.165,-0.5,3461.1111111111113
0.17,-0.51,3463.8888888888887
0.175,-0.545,3466.6666666666665
0.185,-0.585,3469.4444444444443
0.175,-0.605,3472.222222222222
0.205,-0.605,3475.0
0.23,-0.605,3477.777777777778
0.25,-0.61,3480.5555555555557
0.25,-0.645,3483.3333333333335
0.26,-0.635,3486.1111111111113
0.25,-0.62,3488.8888888888887
0.25,-0.61,3491.6666666666665
0.285,-0.6,3494.4444444444443
0.315,-0.61,3497.222222222222
0.315,-0.635,3500.0
0.31,-0.625,3502.777777777778
0.32,-0.615,3505.5555555555557
0.33,-0.59,3508.3333333333335
0.34,-0.535,3511.1111111111113
0.335,-0.525,3513.8888888888887
0.325,-0.505,3516.6666666666665
0.295,-0.495,3519.4444444444443
0.28,-0.46,3522.222222222222
0.27,-0.42,3525.0
0.265,-0.385,3527.777777777778
0.245,-0.375,3530.5555555555557
0.23,-0.37,3533.3333333333335
0.195,-0.335,3536.1111111111113
0.165,-0.295,3538.8888888888887
0.14,-0.23,3541.6666666666665
0.14,-0.19,3544.4444444444443
0.115,-0.15,3547.222222222222
0.075,-0.155,3550.0
0.05,-0.14,3552.777777777778
0.025,-0.13,3555.5555555555557
0.03,-0.1,3558.3333333333335
0.02,-0.075,3561.1111111111113
0.015,-0.06,3563.8888888888887
-0.02,-0.055,3566.6666666666665
-0.055,-0.04,3569.4444444444443
-0.08,-0.01,3572.222222222222
-0.085,0.025,3575.0
-0.08,0.04,3577.777777777778
-0.08,0.03,3580.5555555555557
-0.11,0.02,3583.3333333333335
-0.135,0.015,3586.1111111111113
-0.14,0.02,3588.8888888888887
-0.155,0.03,3591.6666666666665
-0.145,0.06,3594.4444444444443
-0.15,0.06,3597.222222222222
-0.175,0.055,3600.0
-0.185,0.055,3602.777777777778
-0.2,0.07,3605.5555555555557
-0.185,0.095,3608.3333333333335
-0.17,0.105,3611.1111111111113
-0.165,0.085,3613.8888888888887
-0.19,0.06,3616.6666666666665
-0.22,0.03,3619.4444444444443
-0.22,0.055,3622.222222222222
-0.225,0.07,3625.0
-0.21,0.1,3627.777777777778
-0.21,0.085,3630.5555555555557
-0.23,0.08,3633.3333333333335
-0.22,0.08,3636.1111111111113
-0.235,0.075,3638.8888888888887
-0.21,0.07,3641.6666666666665
-0.21,0.075,3644.4444444444443
-0.205,0.06,3647.222222222222
-0.23,0.05,3650.0
-0.24,0.05,3652.777777777778
-0.23,0.065,3655.5555555555557
-0.225,0.075,3658.3333333333335
-0.205,0.085,3661.1111111111113
-0.205,0.08,3663.8888888888887
-0.2,0.065,3666.6666666666665
-0.195,0.055,3669.4444444444443
-0.19,0.04,3672.222222222222
-0.185,0.055,3675.0
-0.165,0.07,3677.777777777778
-0.17,0.05,3680.5555555555557
-0.19,0.04,3683.3333333333335
-0.195,0.04,3686.1111111111113
-0.2,0.055,3688.8888888888887
-0.195,0.07,3691.6666666666665
-0.18,0.085,3694.4444444444443
-0.18,0.09,3697.222222222222
-0.18,0.07,3700.0
-0.195,0.04,3702.777777777778
-0.205,0.035,3705.5555555555557
-0.185,0.055,3708.3333333333335
-0.16,0.07,3711.1111111111113
-0.165,0.055,3713.8888888888887
-0.165,0.04,3716.6666666666665
-0.2,0.055,3719.4444444444443
-0.2,0.06,3722.222222222222
-0.2,0.085,3725.0
-0.2,0.075,3727.777777777778
-0.175,0.075,3730.5555555555557
-0.175,0.03,3733.3333333333335
-0.19,0.015,3736.1111111111113
-0.205,0.03,3738.8888888888887
-0.215,0.05,3741.6666666666665
-0.2,0.075,3744.4444444444443
-0.185,0.09,3747.222222222222
-0.19,0.06,3750.0
-0.2,0.06,3752.777777777778
-0.2,0.06,3755.5555555555557
-0.19,0.075,3758.3333333333335
-0.17,0.065,3761.1111111111113
-0.175,0.065,3763.8888888888887
-0.195,0.045,3766.6666666666665
-0.215,0.045,3769.4444444444443
-0.215,0.06,3772.222222222222
-0.215,0.09,3775.0
-0.19,0.12,3777.777777777778
-0.195,0.095,3780.5555555555557
-0.205,0.09,3783.3333333333335
-0.2,0.09,3786.1111111111113
-0.21,0.07,3788.8888888888887
-0.205,0.08,3791.6666666666665
-0.17,0.105,3794.4444444444443
-0.16,0.1,3797.222222222222
-0.18,0.095,3800.0
-0.19,0.1,3802.777777777778
-0.18,0.12,3805.5555555555557
-0.16,0.145,3808.3333333333335
-0.125,0.165,3811.1111111111113
-0.115,0.165,3813.8888888888887
-0.09,0.15,3816.6666666666665
-0.09,0.125,3819.4444444444443
-0.1,0.11,3822.222222222222
-0.075,0.105,3825.0
-0.05,0.095,3827.777777777778
-0.04,0.075,3830.5555555555557
-0.035,0.065,3833.3333333333335
-0.05,0.04,3836.1111111111113
-0.02,0.05,3838.8888888888887
0.03,0.07,3841.6666666666665
0.065,0.075,3844.4444444444443
0.075,0.055,3847.222222222222
0.08,0.045,3850.0
0.05,0.045,3852.777777777778
0.04,0.06,3855.5555555555557
0.04,0.095,3858.3333333333335
0.04,0.1,3861.1111111111113
0.04,0.095,3863.8888888888887
0.0,0.08,3866.6666666666665
-0.04,0.075,3869.4444444444443
-0.095,0.07,3872.222222222222
-0.095,0.07,3875.0
-0.12,0.085,3877.777777777778
-0.14,0.065,3880.5555555555557
-0.165,0.04,3883.3333333333335
-0.205,0.035,3886.1111111111113
-0.21,0.055,3888.8888888888887
-0.205,0.085,3891.6666666666665
-0.205,0.085,3894.4444444444443
-0.205,0.075,3897.222222222222
-0.23,0.055,3900.0
-0.25,0.04,3902.777777777778
-0.25,0.03,3905.5555555555557
-0.25,0.055,3908.3333333333335
-0.25,0.075,3911.1111111111113
-0.255,0.06,3913.8888888888887
-0.275,0.055,3916.6666666666665
-0.3,0.055,3919.4444444444443
-0.305,0.07,3922.222222222222
-0.295,0.085,3925.0
-0.28,0.08,3927.777777777778
-0.275,0.075,3930.5555555555557
-0.285,0.065,3933.3333333333335
-0.29,0.03,3936.1111111111113
-0.3,0.03,3938.8888888888887
-0.285,0.065,3941.6666666666665
-0.28,0.095,3944.4444444444443
-0.26,0.1,3947.222222222222
-0.265,0.08,3950.0
-0.28,0.06,3952.777777777778
-0.275,0.06,3955.5555555555557
-0.245,0.1,3958.3333333333335
-0.23,0.13,3961.1111111111113
-0.22,0.125,3963.8888888888887
-0.205,0.105,3966.6666666666665
-0.21,0.06,3969.4444444444443
-0.19,0.015,3972.222222222222
-0.13,0.01,3975.0
-0.04,0.015,3977.777777777778
0.04,-0.005,3980.5555555555557
0.165,-0.02,3983.3333333333335
0.305,-0.025,3986.1111111111113
0.475,0.015,3988.8888888888887
0.69,0.1,3991.6666666666665
0.895,0.255,3994.4444444444443
1.065,0.405,3997.222222222222
1.19,0.56,4000.0
1.245,0.715,4002.777777777778
1.19,0.86,4005.5555555555557
1.015,0.955,4008.3333333333335
0.72,0.99,4011.1111111111113
0.32,0.94,4013.8888888888887
-0.1,0.9,4016.6666666666665
-0.45,0.88,4019.4444444444443
-0.615,0.915,4022.222222222222
-0.64,0.995,4025.0
-0.585,1.105,4027.777777777778
-0.56,1.2,4030.5555555555557
-0.59,1.255,4033.3333333333335
-0.635,1.295,4036.1111111111113
-0.67,1.335,4038.8888888888887
-0.7,1.385,4041.6666666666665
-0.72,1.445,4044.4444444444443
-0.735,1.505,4047.222222222222
-0.725,1.555,4050.0
-0.75,1.58,4052.777777777778
-0.75,1.595,4055.5555555555557
-0.75,1.55,4058.3333333333335
-0.745,1.42,4061.1111111111113
-0.73,1.23,4063.8888888888887
-0.735,1.01,4066.6666666666665
-0.705,0.81,4069.4444444444443
-0.66,0.65,4072.222222222222
-0.61,0.51,4075.0
-0.565,0.405,4077.777777777778
-0.51,0.295,4080.5555555555557
-0.465,0.205,4083.3333333333335
-0.44,0.145,4086.1111111111113
-0.375,0.1,4088.8888888888887
-0.315,0.09,4091.6666666666665
-0.26,0.055,4094.4444444444443
-0.225,0.025,4097.222222222223
-0.195,-0.015,4100.0
-0.19,-0.025,4102.777777777777
-0.19,-0.04,4105.555555555556
-0.17,-0.03,4108.333333333333
-0.15,-0.03,4111.111111111111
-0.13,-0.04,4113.888888888889
-0.13,-0.075,4116.666666666667
-0.125,-0.12,4119.444444444444
-0.115,-0.13,4122.222222222223
-0.1,-0.125,4125.0
-0.085,-0.11,4127.777777777777
-0.09,-0.11,4130.555555555556
-0.09,-0.135,4133.333333333333
-0.105,-0.16,4136.111111111111
-0.095,-0.155,4138.888888888889
-0.08,-0.16,4141.666666666667
-0.06,-0.16,4144.444444444444
-0.06,-0.18,4147.222222222223
-0.05,-0.215,4150.0
-0.045,-0.215,4152.777777777777
-0.04,-0.21,4155.555555555556
-0.035,-0.21,4158.333333333333
-0.01,-0.2,4161.111111111111
0.005,-0.22,4163.888888888889
0.005,-0.255,4166.666666666667
-0.015,-0.285,4169.444444444444
0.0,-0.305,4172.222222222223
0.02,-0.29,4175.0
0.035,-0.295,4177.777777777777
0.045,-0.32,4180.555555555556
0.03,-0.33,4183.333333333333
0.025,-0.345,4186.111111111111
0.03,-0.37,4188.888888888889
0.06,-0.345,4191.666666666667
0.085,-0.37,4194.444444444444
0.095,-0.395,4197.222222222223
0.1,-0.425,4200.0
0.115,-0.46,4202.777777777777
0.125,-0.48,4205.555555555556
0.13,-0.475,4208.333333333333
0.16,-0.48,4211.111111111111
0.17,-0.475,4213.888888888889
0.175,-0.505,4216.666666666667
0.18,-0.53,4219.444444444444
0.18,-0.53,4222.222222222223
0.21,-0.545,4225.0
0.25,-0.54,4227.777777777777
0.26,-0.575,4230.555555555556
0.26,-0.59,4233.333333333333
0.25,-0.585,4236.111111111111
0.265,-0.545,4238.888888888889
0.275,-0.525,4241.666666666667
0.305,-0.485,4244.444444444444
0.33,-0.47,4247.222222222223
0.315,-0.475,4250.0
0.29,-0.455,4252.777777777777
0.28,-0.435,4255.555555555556
0.265,-0.38,4258.333333333333
0.25,-0.345,4261.111111111111
0.24,-0.3,4263.888888888889
0.21,-0.305,4266.666666666667
0.18,-0.275,4269.444444444444
0.165,-0.245,4272.222222222223
0.14,-0.21,4275.0
0.145,-0.175,4277.777777777777
0.13,-0.17,4280.555555555556
0.08,-0.145,4283.333333333333
0.055,-0.135,4286.111111111111
0.03,-0.095,4288.888888888889
0.02,-0.06,4291.666666666667
0.015,-0.015,4294.444444444444
0.01,0.005,4297.222222222223
-0.025,0.01,4300.0
-0.055,0.02,4302.777777777777
-0.08,0.02,4305.555555555556
-0.08,0.04,4308.333333333333
-0.075,0.07,4311.111111111111
-0.095,0.075,4313.888888888889
-0.125,0.075,4316.666666666667
-0.15,0.075,4319.444444444444
-0.18,0.125,4322.222222222223
-0.175,0.135,4325.0
-0.165,0.14,4327.777777777777
-0.17,0.12,4330.555555555556
-0.19,0.1,4333.333333333333
-0.215,0.12,4336.111111111111
-0.235,0.125,4338.888888888889
-0.23,0.14,4341.666666666667
-0.205,0.16,4344.444444444444
-0.21,0.175,4347.222222222223
-0.21,0.15,4350.0
-0.225,0.13,4352.777777777777
-0.225,0.13,4355.555555555556
-0.215,0.14,4358.333333333333
-0.185,0.145,4361.111111111111
-0.195,0.15,4363.888888888889
-0.225,0.125,4366.666666666667
-0.25,0.12,4369.444444444444
-0.245,0.14,4372.222222222223
-0.235,0.16,4375.0
-0.22,0.175,4377.777777777777
-0.2,0.175,4380.555555555556
-0.195,0.15,4383.333333333333
-0.21,0.13,4386.111111111111
-0.205,0.115,4388.888888888889
-0.2,0.135,4391.666666666667
-0.195,0.14,4394.444444444444
-0.2,0.145,4397.222222222223
-0.215,0.145,4400.0
-0.225,0.14,4402.777777777777
-0.23,0.16,4405.555555555556
-0.215,0.155,4408.333333333333
-0.205,0.17,4411.111111111111
-0.205,0.14,4413.888888888889
-0.19,0.105,4416.666666666667
-0.19,0.1,4419.444444444444
-0.21,0.12,4422.222222222223
-0.205,0.145,4425.0
-0.19,0.175,4427.777777777777
-0.19,0.17,4430.555555555556
-0.175,0.135,4433.333333333333
-0.195,0.12,4436.111111111111
-0.2,0.12,4438.888888888889
-0.195,0.12,4441.666666666667
-0.175,0.13,4444.444444444444
-0.175,0.14,4447.222222222223
-0.195,0.145,4450.0
-0.215,0.14,4452.777777777777
-0.225,0.14,4455.555555555556
-0.22,0.155,4458.333333333333
-0.195,0.16,4461.111111111111
-0.195,0.135,4463.888888888889
-0.195,0.13,4466.666666666667
-0.2,0.11,4469.444444444444
-0.23,0.12,4472.222222222223
-0.21,0.14,4475.0
-0.2,0.145,4477.777777777777
-0.205,0.155,4480.555555555556
-0.215,0.15,4483.333333333333
-0.235,0.155,4486.111111111111
-0.24,0.15,4488.888888888889
-0.205,0.16,4491.666666666667
-0.205,0.18,4494.444444444444
-0.2,0.16,4497.222222222223
-0.21,0.13,4500.0
-0.225,0.125,4502.777777777777
-0.22,0.125,4505.555555555556
-0.225,0.145,4508.333333333333
-0.22,0.16,4511.111111111111
-0.22,0.16,4513.888888888889
-0.225,0.175,4516.666666666667
-0.24,0.155,4519.444444444444
-0.235,0.17,4522.222222222223
-0.215,0.18,4525.0
-0.195,0.185,4527.777777777777
-0.19,0.195,4530.555555555556
-0.2,0.17,4533.333333333333
-0.21,0.19,4536.111111111111
-0.185,0.19,4538.888888888889
-0.16,0.235,4541.666666666667
-0.13,0.255,4544.444444444444
-0.11,0.23,4547.222222222223
-0.105,0.195,4550.0
-0.11,0.165,4552.777777777777
-0.085,0.155,4555.555555555556
-0.065,0.155,4558.333333333333
-0.04,0.15,4561.111111111111
-0.025,0.125,4563.888888888889
-0.025,0.115,4566.666666666667
-0.035,0.11,4569.444444444444
-0.02,0.12,4572.222222222223
0.015,0.13,4575.0
0.03,0.155,4577.777777777777
0.05,0.14,4580.555555555556
0.035,0.12,4583.333333333333
0.035,0.105,4586.111111111111
0.03,0.125,4588.888888888889
0.04,0.14,4591.666666666667
0.05,0.15,4594.444444444444
0.055,0.14,4597.222222222223
0.045,0.135,4600.0
0.025,0.125,4602.777777777777
0.01,0.145,4605.555555555556
0.01,0.15,4608.333333333333
-0.005,0.175,4611.111111111111
-0.025,0.165,4613.888888888889
-0.05,0.15,4616.666666666667
-0.09,0.14,4619.444444444444
-0.125,0.145,4622.222222222223
-0.145,0.135,4625.0
-0.17,0.145,4627.777777777777
-0.19,0.13,4630.555555555556
-0.23,0.125,4633.333333333333
-0.245,0.13,4636.111111111111
-0.255,0.13,4638.888888888889
-0.27,0.15,4641.666666666667
-0.27,0.155,4644.444444444444
-0.27,0.12,4647.222222222223
-0.295,0.105,4650.0
-0.315,0.105,4652.777777777777
-0.325,0.135,4655.555555555556
-0.325,0.165,4658.333333333333
-0.3,0.155,4661.111111111111
-0.31,0.135,4663.888888888889
-0.315,0.13,4666.666666666667
-0.325,0.12,4669.444444444444
-0.33,0.135,4672.222222222223
-0.33,0.15,4675.0
-0.31,0.18,4677.777777777777
-0.29,0.17,4680.555555555556
-0.305,0.17,4683.333333333333
-0.31,0.15,4686.111111111111
-0.3,0.145,4688.888888888889
-0.29,0.175,4691.666666666667
-0.255,0.17,4694.444444444444
-0.255,0.18,4697.222222222223
-0.25,0.18,4700.0
-0.26,0.17,4702.777777777777
-0.255,0.155,4705.555555555556
-0.24,0.135,4708.333333333333
-0.21,0.13,4711.111111111111
-0.18,0.105,4713.888888888889
-0.14,0.055,4716.666666666667
-0.115,0.035,4719.444444444444
-0.035,0.035,4722.222222222223
0.095,0.07,4725.0
0.255,0.09,4727.777777777777
0.41,0.105,4730.555555555556
0.605,0.19,4733.333333333333
0.805,0.325,4736.111111111111
0.98,0.53,4738.888888888889
1.135,0.745,4741.666666666667
1.155,0.94,4744.444444444444
0.945,1.005,4747.222222222223
0.525,0.975,4750.0
0.035,0.905,4752.777777777777
-0.35,0.9,4755.555555555556
-0.555,0.95,4758.333333333333
-0.555,1.035,4761.111111111111
-0.5,1.14,4763.888888888889
-0.515,1.225,4766.666666666667
-0.585,1.285,4769.444444444444
-0.635,1.345,4772.222222222223
-0.655,1.39,4775.0
-0.665,1.41,4777.777777777777
-0.68,1.435,4780.555555555556
-0.7,1.465,4783.333333333333
-0.715,1.5,4786.111111111111
-0.71,1.55,4788.888888888889
-0.72,1.615,4791.666666666667
-0.725,1.65,4794.444444444444
-0.73,1.63,4797.222222222223
-0.72,1.62,4800.0
-0.74,1.59,4802.777777777777
-0.75,1.54,4805.555555555556
-0.75,1.485,4808.333333333333
-0.745,1.435,4811.111111111111
-0.755,1.33,4813.888888888889
-0.74,1.2,4816.666666666667
-0.745,1.08,4819.444444444444
-0.72,0.975,4822.222222222223
-0.68,0.88,4825.0
-0.645,0.775,4827.777777777777
-0.61,0.645,4830.555555555556
-0.59,0.5,4833.333333333333
-0.56,0.375,4836.111111111111
-0.51,0.29,4838.888888888889
-0.475,0.24,4841.666666666667
-0.375,0.2,4844.444444444444
-0.32,0.16,4847.222222222223
-0.275,0.07,4850.0
-0.24,0.035,4852.777777777777
-0.215,0.02,4855.555555555556
-0.2,0.02,4858.333333333333
-0.185,0.02,4861.111111111111
-0.165,0.0,4863.888888888889
-0.15,-0.035,4866.666666666667
-0.16,-0.07,4869.444444444444
-0.14,-0.09,4872.222222222223
-0.13,-0.075,4875.0
-0.125,-0.075,4877.777777777777
-0.12,-0.09,4880.555555555556
-0.125,-0.1,4883.333333333333
-0.125,-0.12,4886.111111111111
-0.12,-0.11,4888.888888888889
-0.12,-0.12,4891.666666666667
-0.085,-0.11,4894.444444444444
-0.07,-0.115,4897.222222222223
-0.095,-0.15,4900.0
-0.115,-0.175,4902.777777777777
-0.105,-0.18,4905.555555555556
-0.085,-0.175,4908.333333333333
-0.07,-0.165,4911.111111111111
-0.05,-0.165,4913.888888888889
-0.075,-0.19,4916.666666666667
-0.08,-0.195,4919.444444444444
-0.07,-0.19,4922.222222222223
-0.055,-0.175,4925.0
-0.04,-0.19,4927.777777777777
-0.02,-0.21,4930.555555555556
-0.035,-0.225,4933.333333333333
-0.04,-0.275,4936.111111111111
-0.03,-0.285,4938.888888888889
-0.02,-0.285,4941.666666666667
0.0,-0.3,4944.444444444444
0.015,-0.32,4947.222222222223
0.01,-0.35,4950.0
0.01,-0.375,4952.777777777777
0.02,-0.405,4955.555555555556
0.055,-0.41,4958.333333333333
0.085,-0.425,4961.111111111111
0.1,-0.465,4963.888888888889
0.1,-0.49,4966.666666666667
0.08,-0.515,4969.444444444444
0.1,-0.505,4972.222222222223
0.135,-0.51,4975.0
0.16,-0.51,4977.777777777777
0.18,-0.535,4980.555555555556
0.19,-0.55,4983.333333333333
0.175,-0.565,4986.111111111111
0.175,-0.56,4988.888888888889
0.19,-0.53,4991.666666666667
0.215,-0.505,4994.444444444444
0.21,-0.48,4997.222222222223
0.21,-0.49,5000.0
0.2,-0.495,5002.777777777777
0.195,-0.455,5005.555555555556
0.215,-0.445,5008.333333333333
0.215,-0.42,5011.111111111111
0.215,-0.42,5013.888888888889
0.215,-0.415,5016.666666666667
0.19,-0.41,5019.444444444444
0.175,-0.375,5022.222222222223
0.165,-0.325,5025.0
0.165,-0.275,5027.777777777777
0.14,-0.235,5030.555555555556
0.115,-0.235,5033.333333333333
0.085,-0.22,5036.111111111111
0.06,-0.185,5038.888888888889
0.05,-0.15,5041.666666666667
0.045,-0.115,5044.444444444444
0.0,-0.09,5047.222222222223
-0.025,-0.065,5050.0
-0.055,-0.05,5052.777777777777
-0.07,0.005,5055.555555555556
-0.095,0.04,5058.333333333333
-0.09,0.05,5061.111111111111
-0.09,0.055,5063.888888888889
-0.115,0.05,5066.666666666667
-0.14,0.06,5069.444444444444
-0.18,0.07,5072.222222222223
-0.18,0.12,5075.0
-0.18,0.145,5077.777777777777
-0.2,0.155,5080.555555555556
-0.22,0.15,5083.333333333333
-0.24,0.135,5086.111111111111
-0.245,0.13,5088.888888888889
-0.265,0.14,5091.666666666667
-0.24,0.145,5094.444444444444
-0.235,0.15,5097.222222222223
-0.26,0.15,5100.0
-0.265,0.14,5102.777777777777
-0.28,0.17,5105.555555555556
-0.28,0.19,5108.333333333333
-0.255,0.2,5111.111111111111
-0.255,0.19,5113.888888888889
-0.25,0.16,5116.666666666667
-0.27,0.14,5119.444444444444
-0.27,0.15,5122.222222222223
-0.26,0.155,5125.0
-0.25,0.165,5127.777777777777
-0.25,0.175,5130.555555555556
-0.275,0.165,5133.333333333333
-0.275,0.165,5136.111111111111
-0.29,0.165,5138.888888888889
-0.275,0.175,5141.666666666667
-0.25,0.2,5144.444444444444
-0.25,0.18,5147.222222222223
-0.25,0.165,5150.0
-0.26,0.14,5152.777777777777
-0.265,0.135,5155.555555555556
-0.265,0.155,5158.333333333333
-0.265,0.17,5161.111111111111
-0.265,0.155,5163.888888888889
-0.285,0.155,5166.666666666667
-0.29,0.145,5169.444444444444
-0.28,0.15,5172.222222222223
-0.26,0.155,5175.0
-0.24,0.165,5177.777777777777
-0.24,0.15,5180.555555555556
-0.245,0.135,5183.333333333333
-0.28,0.125,5186.111111111111
-0.295,0.145,5188.888888888889
-0.28,0.17,5191.666666666667
-0.255,0.185,5194.444444444444
-0.25,0.17,5197.222222222223
-0.255,0.15,5200.0
-0.275,0.13,5202.777777777777
-0.275,0.135,5205.555555555556
-0.28,0.145,5208.333333333333
-0.275,0.155,5211.111111111111
-0.275,0.165,5213.888888888889
-0.28,0.15,5216.666666666667
-0.3,0.16,5219.444444444444
-0.31,0.17,5222.222222222223
-0.315,0.18,5225.0
-0.29,0.195,5227.777777777777
-0.265,0.18,5230.555555555556
-0.285,0.145,5233.333333333333
-0.295,0.115,5236.111111111111
-0.3,0.13,5238.888888888889
-0.3,0.155,5241.666666666667
-0.305,0.17,5244.444444444444
-0.295,0.195,5247.222222222223
-0.3,0.19,5250.0
-0.31,0.205,5252.777777777777
-0.305,0.195,5255.555555555556
-0.27,0.2,5258.333333333333
-0.25,0.205,5261.111111111111
-0.235,0.19,5263.888888888889
-0.225,0.19,5266.666666666667
-0.215,0.19,5269.444444444444
-0.215,0.185,5272.222222222223
-0.185,0.2,5275.0
-0.16,0.185,5277.777777777777
-0.14,0.165,5280.555555555556
-0.125,0.1,5283.333333333333
-0.105,0.09,5286.111111111111
-0.095,0.09,5288.888888888889
-0.075,0.135,5291.666666666667
-0.055,0.16,5294.444444444444
-0.045,0.17,5297.222222222223
-0.055,0.155,5300.0
-0.075,0.145,5302.777777777777
-0.1,0.135,5305.555555555556
-0.1,0.14,5308.333333333333
-0.125,0.165,5311.111111111111
-0.155,0.16,5313.888888888889
-0.235,0.16,5316.666666666667
-0.275,0.145,5319.444444444444
-0.295,0.15,5322.222222222223
-0.31,0.15,5325.0
-0.305,0.12,5327.777777777777
-0.315,0.125,5330.555555555556
-0.345,0.105,5333.333333333333
-0.37,0.1,5336.111111111111
-0.385,0.115,5338.888888888889
-0.39,0.145,5341.666666666667
-0.385,0.16,5344.444444444444
-0.385,0.165,5347.222222222223
-0.4,0.13,5350.0
-0.415,0.115,5352.777777777777
-0.42,0.11,5355.555555555556
-0.415,0.135,5358.333333333333
-0.43,0.13,5361.111111111111
-0.415,0.13,5363.888888888889
-0.44,0.13,5366.666666666667
-0.465,0.14,5369.444444444444
-0.46,0.14,5372.222222222223
-0.45,0.14,5375.0
-0.43,0.15,5377.777777777777
-0.43,0.14,5380.555555555556
-0.425,0.115,5383.333333333333
-0.46,0.1,5386.111111111111
-0.465,0.105,5388.888888888889
-0.435,0.15,5391.666666666667
-0.41,0.2,5394.444444444444
-0.38,0.22,5397.222222222223
-0.375,0.155,5400.0
-0.35,0.065,5402.777777777777
-0.285,-0.01,5405.555555555556
-0.18,0.0,5408.333333333333
-0.01,0.02,5411.111111111111
0.18,0.075,5413.888888888889
0.415,0.155,5416.666666666667
0.65,0.315,5419.444444444444
0.845,0.505,5422.222222222223
0.955,0.68,5425.0
0.935,0.825,5427.777777777777
0.695,0.89,5430.555555555556
0.32,0.865,5433.333333333333
-0.09,0.835,5436.111111111111
-0.425,0.85,5438.888888888889
-0.615,0.875,5441.666666666667
-0.675,0.92,5444.444444444444
-0.645,0.965,5447.222222222223
-0.65,1.015,5450.0
-0.67,1.045,5452.777777777777
-0.71,1.095,5455.555555555556
-0.75,1.16,5458.333333333333
-0.775,1.25,5461.111111111111
-0.81,1.3,5463.888888888889
-0.86,1.33,5466.666666666667
-0.89,1.355,5469.444444444444
-0.88,1.425,5472.222222222223
-0.86,1.5,5475.0
-0.845,1.535,5477.777777777777
-0.865,1.53,5480.555555555556
-0.905,1.47,5483.333333333333
-0.93,1.35,5486.111111111111
-0.945,1.235,5488.888888888889
-0.915,1.1,5491.666666666667
-0.865,0.92,5494.444444444444
-0.81,0.705,5497.222222222223
-0.77,0.505,5500.0
-0.75,0.335,5502.777777777777
-0.73,0.215,5505.555555555556
-0.635,0.175,5508.333333333333
-0.59,0.145,5511.111111111111
-0.52,0.12,5513.888888888889
-0.47,0.075,5516.666666666667
-0.43,0.025,5519.444444444444
-0.41,-0.01,5522.222222222223
-0.385,-0.035,5525.0
-0.37,-0.04,5527.777777777777
-0.37,-0.04,5530.555555555556
-0.375,-0.07,5533.333333333333
-0.39,-0.085,5536.111111111111
-0.38,-0.065,5538.888888888889
-0.355,-0.055,5541.666666666667
-0.35,-0.06,5544.444444444444
-0.335,-0.105,5547.222222222223
-0.345,-0.135,5550.0
-0.33,-0.165,5552.777777777777
-0.32,-0.15,5555.555555555556
-0.33,-0.14,5558.333333333333
-0.31,-0.135,5561.111111111111
-0.29,-0.145,5563.888888888889
-0.305,-0.15,5566.666666666667
-0.295,-0.165,5569.444444444444
-0.3,-0.17,5572.222222222223
-0.275,-0.185,5575.0
-0.265,-0.205,5577.777777777777
-0.26,-0.225,5580.555555555556
-0.275,-0.245,5583.333333333333
-0.295,-0.26,5586.111111111111
-0.29,-0.265,5588.888888888889
-0.275,-0.25,5591.666666666667
-0.25,-0.245,5594.444444444444
-0.235,-0.285,5597.222222222223
-0.215,-0.335,5600.0
-0.22,-0.36,5602.777777777777
-0.215,-0.38,5605.555555555556
-0.2,-0.395,5608.333333333333
-0.195,-0.4,5611.111111111111
-0.195,-0.425,5613.888888888889
-0.18,-0.43,5616.666666666667
-0.18,-0.475,5619.444444444444
-0.155,-0.485,5622.222222222223
-0.135,-0.485,5625.0
-0.11,-0.505,5627.777777777777
-0.08,-0.52,5630.555555555556
-0.085,-0.55,5633.333333333333
-0.105,-0.57,5636.111111111111
-0.09,-0.555,5638.888888888889
-0.065,-0.56,5641.666666666667
-0.04,-0.53,5644.444444444444
-0.02,-0.52,5647.222222222223
-0.01,-0.54,5650.0
-0.005,-0.545,5652.777777777777
-0.01,-0.54,5655.555555555556
0.005,-0.525,5658.333333333333
0.015,-0.485,5661.111111111111
0.01,-0.47,5663.888888888889
0.005,-0.445,5666.666666666667
-0.02,-0.435,5669.444444444444
-0.03,-0.395,5672.222222222223
-0.03,-0.355,5675.0
-0.015,-0.335,5677.777777777777
-0.05,-0.32,5680.555555555556
-0.095,-0.315,5683.333333333333
-0.105,-0.29,5686.111111111111
-0.145,-0.26,5688.888888888889
-0.15,-0.205,5691.666666666667
-0.16,-0.165,5694.444444444444
-0.17,-0.12,5697.222222222223
-0.205,-0.13,5700.0
-0.235,-0.125,5702.777777777777
-0.275,-0.1,5705.555555555556
-0.26,-0.06,5708.333333333333
-0.25,-0.025,5711.111111111111
-0.27,-0.03,5713.888888888889
-0.305,-0.005,5716.666666666667
-0.355,0.005,5719.444444444444
-0.36,0.025,5722.222222222223
-0.35,0.05,5725.0
-0.34,0.07,5727.777777777777
-0.355,0.075,5730.555555555556
-0.375,0.07,5733.333333333333
-0.4,0.06,5736.111111111111
-0.41,0.075,5738.888888888889
-0.415,0.08,5741.666666666667
-0.42,0.105,5744.444444444444
-0.43,0.12,5747.222222222223
-0.445,0.11,5750.0
-0.47,0.11,5752.777777777777
-0.48,0.11,5755.555555555556
-0.47,0.12,5758.333333333333
-0.43,0.135,5761.111111111111
-0.435,0.105,5763.888888888889
-0.45,0.095,5766.666666666667
-0.47,0.09,5769.444444444444
-0.485,0.105,5772.222222222223
-0.485,0.135,5775.0
-0.465,0.135,5777.777777777777
-0.46,0.135,5780.555555555556
-0.455,0.12,5783.333333333333
-0.475,0.1,5786.111111111111
-0.47,0.1,5788.888888888889
-0.455,0.105,5791.666666666667
-0.44,0.115,5794.444444444444
-0.445,0.095,5797.222222222223
-0.465,0.08,5800.0
-0.485,0.085,5802.777777777777
-0.475,0.105,5805.555555555556
-0.475,0.14,5808.333333333333
-0.44,0.145,5811.111111111111
-0.43,0.12,5813.888888888889
-0.45,0.095,5816.666666666667
-0.44,0.075,5819.444444444444
-0.445,0.085,5822.222222222223
-0.425,0.08,5825.0
-0.415,0.115,5827.777777777777
-0.435,0.12,5830.555555555556
-0.43,0.115,5833.333333333333
-0.445,0.11,5836.111111111111
-0.46,0.095,5838.888888888889
-0.44,0.105,5841.666666666667
-0.425,0.105,5844.444444444444
-0.415,0.075,5847.222222222223
-0.425,0.065,5850.0
-0.435,0.05,5852.777777777777
-0.44,0.09,5855.555555555556
-0.445,0.1,5858.333333333333
-0.425,0.14,5861.111111111111
-0.425,0.115,5863.888888888889
-0.44,0.085,5866.666666666667
-0.435,0.07,5869.444444444444
-0.435,0.06,5872.222222222223
-0.42,0.075,5875.0
-0.42,0.105,5877.777777777777
-0.41,0.11,5880.555555555556
-0.425,0.12,5883.333333333333
-0.44,0.135,5886.111111111111
-0.43,0.125,5888.888888888889
-0.405,0.145,5891.666666666667
-0.38,0.145,5894.444444444444
-0.35,0.13,5897.222222222223
-0.34,0.1,5900.0
-0.34,0.1,5902.777777777777
-0.34,0.12,5905.555555555556
-0.33,0.13,5908.333333333333
-0.325,0.14,5911.111111111111
-0.305,0.125,5913.888888888889
-0.305,0.105,5916.666666666667
-0.3,0.08,5919.444444444444
-0.27,0.06,5922.222222222223
-0.23,0.06,5925.0
-0.175,0.05,5927.777777777777
-0.145,0.07,5930.555555555556
-0.15,0.06,5933.333333333333
-0.155,0.045,5936.111111111111
-0.185,0.08,5938.888888888889
-0.17,0.1,5941.666666666667
-0.15,0.125,5944.444444444444
-0.15,0.13,5947.222222222223
-0.17,0.1,5950.0
-0.2,0.07,5952.777777777777
-0.23,0.08,5955.555555555556
-0.25,0.085,5958.333333333333
-0.285,0.11,5961.111111111111
-0.32,0.095,5963.888888888889
-0.37,0.085,5966.666666666667
-0.41,0.09,5969.444444444444
-0.425,0.07,5972.222222222223
-0.42,0.07,5975.0
-0.415,0.065,5977.777777777777
-0.415,0.07,5980.555555555556
-0.425,0.05,5983.333333333333
-0.435,0.03,5986.111111111111
-0.44,0.05,5988.888888888889
-0.45,0.065,5991.666666666667
-0.445,0.085,5994.444444444444
-0.455,0.105,5997.222222222223
-0.455,0.085,6000.0
-0.47,0.075,6002.777777777777
-0.48,0.07,6005.555555555556
-0.465,0.06,6008.333333333333
-0.455,0.075,6011.111111111111
-0.445,0.055,6013.888888888889
-0.455,0.055,6016.666666666667
-0.465,0.04,6019.444444444444
-0.47,0.06,6022.222222222223
-0.45,0.07,6025.0
-0.465,0.095,6027.777777777777
-0.445,0.095,6030.555555555556
-0.44,0.065,6033.333333333333
-0.435,0.045,6036.111111111111
-0.43,0.045,6038.888888888889
-0.42,0.075,6041.666666666667
-0.405,0.09,6044.444444444444
-0.41,0.095,6047.222222222223
-0.42,0.12,6050.0
-0.41,0.125,6052.777777777777
-0.405,0.12,6055.555555555556
-0.35,0.065,6058.333333333333
-0.295,0.02,6061.111111111111
-0.24,-0.045,6063.888888888889
-0.165,-0.06,6066.666666666667
-0.065,-0.08,6069.444444444444
0.095,-0.05,6072.222222222223
0.325,0.01,6075.0
0.58,0.13,6077.777777777777
0.805,0.285,6080.555555555556
1.0,0.415,6083.333333333333
1.11,0.53,6086.111111111111
1.095,0.645,6088.888888888889
0.945,0.765,6091.666666666667
0.62,0.79,6094.444444444444
0.22,0.76,6097.222222222223
-0.23,0.73,6100.0
-0.54,0.73,6102.777777777777
-0.7,0.8,6105.555555555556
-0.685,0.895,6108.333333333333
-0.63,0.985,6111.111111111111
-0.62,1.01,6113.888888888889
-0.645,1.035,6116.666666666667
-0.705,1.06,6119.444444444444
-0.775,1.145,6122.222222222223
-0.79,1.19,6125.0
-0.785,1.24,6127.777777777777
-0.815,1.305,6130.555555555556
-0.82,1.355,6133.333333333333
-0.82,1.41,6136.111111111111
-0.815,1.44,6138.888888888889
-0.8,1.45,6141.666666666667
-0.805,1.43,6144.444444444444
-0.815,1.335,6147.222222222223
-0.81,1.205,6150.0
-0.84,1.075,6152.777777777777
-0.815,0.93,6155.555555555556
-0.775,0.815,6158.333333333333
-0.71,0.695,6161.111111111111
-0.67,0.53,6163.888888888889
-0.625,0.37,6166.666666666667
-0.59,0.235,6169.444444444444
-0.555,0.13,6172.222222222223
-0.485,0.09,6175.0
-0.41,0.055,6177.777777777777
-0.37,0.04,6180.555555555556
-0.33,0.02,6183.333333333333
-0.295,0.005,6186.111111111111
-0.275,-0.01,6188.888888888889
-0.235,-0.03,6191.666666666667
-0.21,-0.045,6194.444444444444
-0.195,-0.09,6197.222222222223
-0.185,-0.125,6200.0
-0.18,-0.14,6202.777777777777
-0.17,-0.14,6205.555555555556
-0.175,-0.12,6208.333333333333
-0.135,-0.11,6211.111111111111
-0.11,-0.135,6213.888888888889
-0.105,-0.155,6216.666666666667
-0.115,-0.185,6219.444444444444
-0.105,-0.19,6222.222222222223
-0.085,-0.2,6225.0
-0.06,-0.195,6227.777777777777
-0.065,-0.205,6230.555555555556
-0.065,-0.2,6233.333333333333
-0.075,-0.22,6236.111111111111
-0.06,-0.22,6238.888888888889
-0.035,-0.215,6241.666666666667
-0.01,-0.24,6244.444444444444
0.025,-0.285,6247.222222222223
0.02,-0.325,6250.0
0.01,-0.34,6252.777777777777
0.01,-0.33,6255.555555555556
0.02,-0.31,6258.333333333333
0.06,-0.335,6261.111111111111
0.07,-0.36,6263.888888888889
0.075,-0.4,6266.666666666667
0.11,-0.455,6269.444444444444
0.13,-0.47,6272.222222222223
0.15,-0.465,6275.0
0.175,-0.475,6277.777777777777
0.185,-0.49,6280.555555555556
0.185,-0.525,6283.333333333333
0.21,-0.575,6286.111111111111
0.24,-0.595,6288.888888888889
0.265,-0.59,6291.666666666667
0.295,-0.575,6294.444444444444
0.29,-0.585,6297.222222222223
0.29,-0.595,6300.0
0.3,-0.6,6302.777777777777
0.305,-0.58,6305.555555555556
0.34,-0.54,6308.333333333333
0.35,-0.545,6311.111111111111
0.37,-0.535,6313.888888888889
0.37,-0.565,6316.666666666667
0.36,-0.545,6319.444444444444
0.35,-0.49,6322.222222222223
0.34,-0.43,6325.0
0.35,-0.38,6327.777777777777
0.335,-0.37,6330.555555555556
0.31,-0.355,6333.333333333333
0.285,-0.34,6336.111111111111
0.265,-0.305,6338.888888888889
0.255,-0.265,6341.666666666667
0.235,-0.22,6344.444444444444
0.205,-0.2,6347.222222222223
0.16,-0.165,6350.0
0.145,-0.125,6352.777777777777
0.125,-0.055,6355.555555555556
0.12,-0.015,6358.333333333333
0.095,0.0,6361.111111111111
0.075,-0.005,6363.888888888889
0.04,0.015,6366.666666666667
0.005,0.035,6369.444444444444
-0.015,0.065,6372.222222222223
-0.015,0.1,6375.0
-0.015,0.105,6377.777777777777
-0.015,0.09,6380.555555555556
-0.03,0.065,6383.333333333333
-0.04,0.065,6386.111111111111
-0.05,0.075,6388.888888888889
-0.045,0.105,6391.666666666667
-0.045,0.14,6394.444444444444
-0.045,0.145,6397.222222222223
-0.055,0.135,6400.0
-0.07,0.105,6402.777777777777
-0.075,0.1,6405.555555555556
-0.07,0.125,6408.333333333333
-0.065,0.135,6411.111111111111
-0.055,0.135,6413.888888888889
-0.065,0.135,6416.666666666667
-0.065,0.12,6419.444444444444
-0.055,0.115,6422.222222222223
-0.055,0.12,6425.0
-0.035,0.105,6427.777777777777
-0.035,0.1,6430.555555555556
-0.03,0.115,6433.333333333333
-0.04,0.12,6436.111111111111
-0.045,0.115,6438.888888888889
-0.025,0.09,6441.666666666667
-0.01,0.115,6444.444444444444
0.0,0.115,6447.222222222223
-0.005,0.095,6450.0
-0.025,0.11,6452.777777777777
-0.035,0.105,6455.555555555556
-0.035,0.135,6458.333333333333
0.015,0.145,6461.111111111111
0.02,0.115,6463.888888888889
0.015,0.08,6466.666666666667
-0.02,0.08,6469.444444444444
-0.02,0.075,6472.222222222223
-0.02,0.095,6475.0
-0.005,0.13,6477.777777777777
-0.005,0.145,6480.555555555556
-0.005,0.135,6483.333333333333
-0.01,0.135,6486.111111111111
-0.005,0.14,6488.888888888889
0.035,0.165,6491.666666666667
0.045,0.165,6494.444444444444
0.055,0.16,6497.222222222223
0.075,0.17,6500.0
0.08,0.145,6502.777777777777
0.1,0.13,6505.555555555556
0.115,0.125,6508.333333333333
0.155,0.105,6511.111111111111
0.17,0.075,6513.888888888889
0.175,0.045,6516.666666666667
0.185,0.05,6519.444444444444
0.2,0.07,6522.222222222223
0.21,0.1,6525.0
0.23,0.125,6527.777777777777
0.25,0.12,6530.555555555556
0.23,0.105,6533.333333333333
0.215,0.095,6536.111111111111
0.21,0.09,6538.888888888889
0.19,0.12,6541.666666666667
0.15,0.145,6544.444444444444
0.145,0.14,6547.222222222223
0.085,0.135,6550.0
0.05,0.115,6552.777777777777
0.01,0.11,6555.555555555556
-0.005,0.09,6558.333333333333
-0.015,0.085,6561.111111111111
-0.025,0.09,6563.888888888889
-0.055,0.09,6566.666666666667
-0.075,0.09,6569.444444444444
-0.095,0.105,6572.222222222223
-0.09,0.13,6575.0
-0.08,0.135,6577.777777777777
-0.07,0.11,6580.555555555556
-0.085,0.08,6583.333333333333
-0.125,0.075,6586.111111111111
-0.12,0.08,6588.888888888889
-0.13,0.11,6591.666666666667
-0.115,0.125,6594.444444444444
-0.125,0.13,6597.222222222223
-0.135,0.1,6600.0
-0.14,0.095,6602.777777777777
-0.13,0.075,6605.555555555556
-0.115,0.095,6608.333333333333
-0.11,0.11,6611.111111111111
-0.115,0.11,6613.888888888889
-0.13,0.125,6616.666666666667
-0.13,0.12,6619.444444444444
-0.13,0.14,6622.222222222223
-0.1,0.17,6625.0
-0.065,0.2,6627.777777777777
-0.04,0.165,6630.555555555556
-0.02,0.1,6633.333333333333
-0.015,0.02,6636.111111111111
0.035,-0.005,6638.888888888889
0.125,-0.005,6641.666666666667
0.295,0.035,6644.444444444444
0.48,0.065,6647.222222222223
0.71,0.12,6650.0
0.94,0.27,6652.777777777777
1.155,0.46,6655.555555555556
1.33,0.66,6658.333333333333
1.35,0.82,6661.111111111111
1.14,0.935,6663.888888888889
0.735,0.94,6666.666666666667
0.265,0.9,6669.444444444444
-0.13,0.905,6672.222222222223
-0.36,0.94,6675.0
-0.395,1.0,6677.777777777777
-0.35,1.055,6680.555555555556
-0.345,1.105,6683.333333333333
-0.4,1.17,6686.111111111111
-0.47,1.245,6688.888888888889
-0.505,1.315,6691.666666666667
-0.515,1.365,6694.444444444444
-0.53,1.41,6697.222222222223
-0.565,1.44,6700.0
-0.57,1.495,6702.777777777777
-0.565,1.555,6705.555555555556
-0.55,1.615,6708.333333333333
-0.54,1.645,6711.111111111111
-0.565,1.61,6713.888888888889
-0.59,1.5,6716.666666666667
-0.62,1.355,6719.444444444444
-0.605,1.195,6722.222222222223
-0.55,1.015,6725.0
-0.48,0.82,6727.777777777777
-0.435,0.62,6730.555555555556
-0.39,0.435,6733.333333333333
-0.355,0.305,6736.111111111111
-0.295,0.23,6738.888888888889
-0.235,0.19,6741.666666666667
-0.15,0.17,6744.444444444444
-0.08,0.12,6747.222222222223
-0.045,0.07,6750.0
-0.045,0.025,6752.777777777777
-0.02,0.02,6755.555555555556
-0.005,0.02,6758.333333333333
0.015,0.015,6761.111111111111
0.02,0.0,6763.888888888889
0.03,-0.01,6766.666666666667
0.03,-0.03,6769.444444444444
0.03,-0.045,6772.222222222223
0.05,-0.055,6775.0
0.085,-0.065,6777.777777777777
0.095,-0.07,6780.555555555556
0.085,-0.105,6783.333333333333
0.07,-0.115,6786.111111111111
0.065,-0.105,6788.888888888889
0.08,-0.09,6791.666666666667
0.1,-0.095,6794.444444444444
0.1,-0.125,6797.222222222223
0.115,-0.145,6800.0
0.1,-0.175,6802.777777777777
0.115,-0.185,6805.555555555556
0.13,-0.195,6808.333333333333
0.14,-0.2,6811.111111111111
0.14,-0.2,6813.888888888889
0.13,-0.22,6816.666666666667
0.135,-0.24,6819.444444444444
0.15,-0.265,6822.222222222223
0.175,-0.27,6825.0
0.2,-0.305,6827.777777777777
0.21,-0.32,6830.555555555556
0.21,-0.355,6833.333333333333
0.185,-0.37,6836.111111111111
0.215,-0.375,6838.888888888889
0.225,-0.375,6841.666666666667
0.245,-0.375,6844.444444444444
0.275,-0.4,6847.222222222223
0.28,-0.455,6850.0
0.28,-0.495,6852.777777777777
0.295,-0.51,6855.555555555556
0.32,-0.515,6858.333333333333
0.335,-0.515,6861.111111111111
0.365,-0.515,6863.888888888889
0.36,-0.525,6866.666666666667
0.36,-0.55,6869.444444444444
0.385,-0.545,6872.222222222223
0.405,-0.535,6875.0
0.43,-0.52,6877.777777777777
0.415,-0.525,6880.555555555556
0.41,-0.505,6883.333333333333
0.395,-0.495,6886.111111111111
0.38,-0.46,6888.888888888889
0.39,-0.42,6891.666666666667
0.395,-0.395,6894.444444444444
0.4,-0.37,6897.222222222223
0.385,-0.355,6900.0
0.345,-0.345,6902.777777777777
0.315,-0.3,6905.555555555556
0.29,-0.27,6908.333333333333
0.285,-0.185,6911.111111111111
0.255,-0.165,6913.888888888889
0.235,-0.13,6916.666666666667
0.195,-0.13,6919.444444444444
0.18,-0.08,6922.222222222223
0.15,-0.05,6925.0
0.13,-0.03,6927.777777777777
0.115,0.0,6930.555555555556
0.085,0.02,6933.333333333333
0.055,0.05,6936.111111111111
0.035,0.065,6938.888888888889
0.025,0.12,6941.666666666667
0.015,0.12,6944.444444444444
0.01,0.11,6947.222222222223
-0.015,0.115,6950.0
-0.06,0.105,6952.777777777777
-0.08,0.135,6955.555555555556
-0.085,0.175,6958.333333333333
-0.075,0.195,6961.111111111111
-0.08,0.185,6963.888888888889
-0.09,0.165,6966.666666666667
-0.105,0.145,6969.444444444444
-0.11,0.16,6972.222222222223
-0.085,0.17,6975.0
-0.085,0.185,6977.777777777777
-0.09,0.185,6980.555555555556
-0.105,0.195,6983.333333333333
-0.13,0.195,6986.111111111111
-0.115,0.19,6988.888888888889
-0.105,0.195,6991.666666666667
-0.085,0.195,6994.444444444444
-0.1,0.165,6997.222222222223
-0.11,0.175,7000.0
-0.13,0.195,7002.777777777777
-0.125,0.22,7005.555555555556
-0.11,0.225,7008.333333333333
-0.085,0.21,7011.111111111111
-0.1,0.19,7013.888888888889
-0.085,0.175,7016.666666666667
-0.1,0.145,7019.444444444444
-0.09,0.165,7022.222222222223
-0.085,0.195,7025.0
-0.09,0.22,7027.777777777777
-0.11,0.22,7030.555555555556
-0.12,0.2,7033.333333333333
-0.105,0.18,7036.111111111111
-0.09,0.15,7038.888888888889
-0.075,0.175,7041.666666666667
-0.065,0.185,7044.444444444444
-0.07,0.19,7047.222222222223
-0.085,0.19,7050.0
-0.1,0.19,7052.777777777777
-0.11,0.17,7055.555555555556
-0.08,0.185,7058.333333333333
-0.065,0.185,7061.111111111111
-0.05,0.175,7063.888888888889
-0.07,0.155,7066.666666666667
-0.105,0.15,7069.444444444444
-0.09,0.195,7072.222222222223
-0.075,0.235,7075.0
-0.04,0.245,7077.777777777777
-0.005,0.22,7080.555555555556
0.005,0.195,7083.333333333333
-0.015,0.205,7086.111111111111
-0.005,0.22,7088.888888888889
0.025,0.2,7091.666666666667
0.06,0.2,7094.444444444444
0.085,0.185,7097.222222222223
0.095,0.155,7100.0
0.11,0.135,7102.777777777777
0.135,0.115,7105.555555555556
0.16,0.135,7108.333333333333
0.165,0.18,7111.111111111111
0.155,0.175,7113.888888888889
0.145,0.175,7116.666666666667
0.13,0.17,7119.444444444444
0.13,0.17,7122.222222222223
0.11,0.17,7125.0
0.085,0.175,7127.777777777777
0.05,0.18,7130.555555555556
-0.02,0.155,7133.333333333333
-0.075,0.16,7136.111111111111
-0.105,0.165,7138.888888888889
-0.11,0.17,7141.666666666667
-0.11,0.175,7144.444444444444
-0.125,0.16,7147.222222222223
-0.15,0.14,7150.0
-0.175,0.14,7152.777777777777
-0.205,0.145,7155.555555555556
-0.2,0.16,7158.333333333333
-0.195,0.17,7161.111111111111
-0.195,0.18,7163.888888888889
-0.195,0.14,7166.666666666667
-0.205,0.135,7169.444444444444
-0.23,0.135,7172.222222222223
-0.235,0.16,7175.0
-0.225,0.17,7177.777777777777
-0.225,0.165,7180.555555555556
-0.22,0.15,7183.333333333333
-0.24,0.13,7186.111111111111
-0.23,0.135,7188.888888888889
-0.23,0.135,7191.666666666667
-0.195,0.15,7194.444444444444
-0.185,0.135,7197.222222222223
-0.2,0.135,7200.0
-0.205,0.165,7202.777777777777
-0.215,0.195,7205.555555555556
-0.18,0.21,7208.333333333333
-0.14,0.16,7211.111111111111
-0.1,0.07,7213.888888888889
-0.025,0.015,7216.666666666667
0.09,0.005,7219.444444444444
0.275,0.035,7222.222222222223
0.51,0.12,7225.0
0.795,0.315,7227.777777777777
1.05,0.525,7230.555555555556
1.225,0.71,7233.333333333333
1.265,0.855,7236.111111111111
1.09,0.935,7238.888888888889
0.745,0.955,7241.666666666667
0.305,0.94,7244.444444444444
-0.12,0.925,7247.222222222223
-0.415,0.945,7250.0
-0.535,0.99,7252.777777777777
-0.5,1.075,7255.555555555556
-0.455,1.16,7258.333333333333
-0.455,1.22,7261.111111111111
-0.515,1.27,7263.888888888889
-0.58,1.31,7266.666666666667
-0.625,1.37,7269.444444444444
-0.675,1.435,7272.222222222223
-0.665,1.54,7275.0
-0.645,1.61,7277.777777777777
-0.635,1.635,7280.555555555556
-0.655,1.65,7283.333333333333
-0.68,1.59,7286.111111111111
-0.695,1.495,7288.888888888889
-0.715,1.365,7291.666666666667
-0.705,1.215,7294.444444444444
-0.67,1.025,7297.222222222223
-0.63,0.82,7300.0
-0.58,0.62,7302.777777777777
-0.53,0.455,7305.555555555556
-0.46,0.325,7308.333333333333
-0.415,0.23,7311.111111111111
-0.34,0.19,7313.888888888889
-0.29,0.155,7316.666666666667
-0.265,0.11,7319.444444444444
-0.21,0.105,7322.222222222223
-0.18,0.08,7325.0
-0.15,0.075,7327.777777777777
-0.135,0.02,7330.555555555556
-0.125,-0.005,7333.333333333333
-0.13,-0.04,7336.111111111111
-0.125,-0.04,7338.888888888889
-0.13,-0.035,7341.666666666667
-0.11,-0.015,7344.444444444444
-0.095,-0.03,7347.222222222223
-0.095,-0.065,7350.0
-0.105,-0.08,7352.777777777777
-0.095,-0.1,7355.555555555556
-0.08,-0.1,7358.333333333333
-0.06,-0.095,7361.111111111111
-0.065,-0.12,7363.888888888889
-0.055,-0.145,7366.666666666667
-0.07,-0.14,7369.444444444444
-0.08,-0.145,7372.222222222223
-0.055,-0.135,7375.0
-0.03,-0.15,7377.777777777777
-0.015,-0.16,7380.555555555556
-0.01,-0.22,7383.333333333333
-0.03,-0.225,7386.111111111111
-0.03,-0.245,7388.888888888889
-0.02,-0.225,7391.666666666667
0.01,-0.22,7394.444444444444
0.015,-0.25,7397.222222222223
0.02,-0.275,7400.0
0.02,-0.32,7402.777777777777
0.025,-0.34,7405.555555555556
0.04,-0.375,7408.333333333333
0.065,-0.385,7411.111111111111
0.09,-0.405,7413.888888888889
0.1,-0.425,7416.666666666667
0.095,-0.45,7419.444444444444
0.105,-0.465,7422.222222222223
0.12,-0.465,7425.0
0.15,-0.465,7427.777777777777
0.165,-0.495,7430.555555555556
0.17,-0.525,7433.333333333333
0.165,-0.56,7436.111111111111
0.17,-0.555,7438.888888888889
0.2,-0.535,7441.666666666667
0.21,-0.525,7444.444444444444
0.215,-0.52,7447.222222222223
0.22,-0.535,7450.0
0.225,-0.53,7452.777777777777
0.225,-0.51,7455.555555555556
0.235,-0.505,7458.333333333333
0.26,-0.465,7461.111111111111
0.25,-0.44,7463.888888888889
0.21,-0.425,7466.666666666667
0.19,-0.395,7469.444444444444
0.16,-0.345,7472.222222222223
0.155,-0.285,7475.0
0.165,-0.245,7477.777777777777
0.14,-0.245,7480.555555555556
0.11,-0.235,7483.333333333333
0.065,-0.195,7486.111111111111
0.035,-0.17,7488.888888888889
0.015,-0.12,7491.666666666667
0.0,-0.07,7494.444444444444
-0.02,-0.03,7497.222222222223
-0.03,-0.035,7500.0
-0.055,-0.02,7502.777777777777
-0.08,0.0,7505.555555555556
-0.105,0.025,7508.333333333333
-0.1,0.04,7511.111111111111
-0.13,0.075,7513.888888888889
-0.16,0.085,7516.666666666667
-0.185,0.095,7519.444444444444
-0.195,0.115,7522.222222222223
-0.205,0.125,7525.0
-0.19,0.13,7527.777777777777
-0.195,0.13,7530.555555555556
-0.225,0.11,7533.333333333333
-0.255,0.105,7536.111111111111
-0.265,0.13,7538.888888888889
-0.265,0.155,7541.666666666667
-0.25,0.165,7544.444444444444
-0.25,0.15,7547.222222222223
-0.26,0.15,7550.0
-0.275,0.14,7552.777777777777
-0.29,0.14,7555.555555555556
-0.27,0.155,7558.333333333333
-0.26,0.16,7561.111111111111
-0.27,0.175,7563.888888888889
-0.27,0.17,7566.666666666667
-0.285,0.16,7569.444444444444
-0.305,0.15,7572.222222222223
-0.28,0.16,7575.0
-0.28,0.165,7577.777777777777
-0.265,0.155,7580.555555555556
-0.28,0.14,7583.333333333333
-0.295,0.14,7586.111111111111
-0.305,0.155,7588.888888888889
-0.285,0.19,7591.666666666667
-0.28,0.2,7594.444444444444
-0.275,0.17,7597.222222222223
-0.28,0.15,7600.0
-0.29,0.135,7602.777777777777
-0.28,0.13,7605.555555555556
-0.275,0.15,7608.333333333333
-0.29,0.155,7611.111111111111
-0.3,0.16,7613.888888888889
-0.295,0.155,7616.666666666667
-0.3,0.15,7619.444444444444
-0.3,0.125,7622.222222222223
-0.265,0.13,7625.0
-0.255,0.115,7627.777777777777
-0.255,0.125,7630.555555555556
-0.27,0.095,7633.333333333333
-0.285,0.105,7636.111111111111
-0.295,0.13,7638.888888888889
-0.295,0.14,7641.666666666667
-0.28,0.15,7644.444444444444
-0.275,0.13,7647.222222222223
-0.28,0.11,7650.0
-0.305,0.1,7652.777777777777
-0.29,0.11,7655.555555555556
-0.29,0.12,7658.333333333333
-0.3,0.16,7661.111111111111
-0.3,0.16,7663.888888888889
-0.31,0.15,7666.666666666667
-0.32,0.15,7669.444444444444
-0.325,0.16,7672.222222222223
-0.295,0.18,7675.0
-0.275,0.19,7677.777777777777
-0.255,0.165,7680.555555555556
-0.25,0.155,7683.333333333333
-0.255,0.17,7686.111111111111
-0.235,0.195,7688.888888888889
-0.21,0.21,7691.666666666667
-0.19,0.205,7694.444444444444
-0.175,0.15,7697.222222222223
-0.17,0.12,7700.0
-0.16,0.09,7702.777777777777
-0.15,0.085,7705.555555555556
-0.115,0.075,7708.333333333333
-0.09,0.11,7711.111111111111
-0.08,0.11,7713.888888888889
-0.065,0.12,7716.666666666667
-0.075,0.1,7719.444444444444
-0.07,0.1,7722.222222222223
-0.07,0.115,7725.0
-0.075,0.135,7727.777777777777
-0.075,0.11,7730.555555555556
-0.11,0.105,7733.333333333333
-0.16,0.095,7736.111111111111
-0.19,0.12,7738.888888888889
-0.23,0.14,7741.666666666667
-0.26,0.14,7744.444444444444
-0.29,0.12,7747.222222222223
-0.325,0.095,7750.0
-0.36,0.06,7752.777777777777
-0.375,0.075,7755.555555555556
-0.405,0.1,7758.333333333333
-0.39,0.115,7761.111111111111
-0.405,0.11,7763.888888888889
-0.43,0.11,7766.666666666667
-0.445,0.095,7769.444444444444
-0.45,0.07,7772.222222222223
-0.445,0.07,7775.0
-0.445,0.09,7777.777777777777
-0.45,0.09,7780.555555555556
-0.47,0.08,7783.333333333333
-0.495,0.075,7786.111111111111
-0.5,0.095,7788.888888888889
-0.5,0.095,7791.666666666667
-0.475,0.11,7794.444444444444
-0.48,0.075,7797.222222222223
-0.485,0.065,7800.0
-0.505,0.04,7802.777777777777
-0.505,0.05,7805.555555555556
-0.51,0.085,7808.333333333333
-0.485,0.1,7811.111111111111
-0.495,0.095,7813.888888888889
-0.495,0.1,7816.666666666667
-0.495,0.105,7819.444444444444
-0.47,0.1,7822.222222222223
-0.45,0.075,7825.0
-0.405,0.025,7827.777777777777
-0.375,-0.04,7830.555555555556
-0.295,-0.075,7833.333333333333
-0.195,-0.06,7836.111111111111
-0.03,-0.01,7838.888888888889
0.205,0.035,7841.666666666667
0.445,0.15,7844.444444444444
0.675,0.31,7847.222222222223
0.86,0.48,7850.0
0.97,0.635,7852.777777777777
0.93,0.775,7855.555555555556
0.665,0.865,7858.333333333333
0.27,0.895,7861.111111111111
-0.2,0.855,7863.888888888889
-0.615,0.83,7866.666666666667
-0.845,0.825,7869.444444444444
-0.865,0.905,7872.222222222223
-0.8,0.995,7875.0
-0.785,1.09,7877.777777777777
-0.83,1.15,7880.555555555556
-0.885,1.19,7883.333333333333
-0.945,1.24,7886.111111111111
-0.98,1.285,7888.888888888889
-0.995,1.34,7891.666666666667
-1.005,1.405,7894.444444444444
-0.995,1.455,7897.222222222223
-0.99,1.49,7900.0
-1.015,1.505,7902.777777777777
-1.04,1.505,7905.555555555556
-1.06,1.43,7908.333333333333
-1.06,1.325,7911.111111111111
-1.06,1.155,7913.888888888889
-1.05,0.97,7916.666666666667
-1.035,0.775,7919.444444444444
-0.97,0.6,7922.222222222223
-0.925,0.455,7925.0
-0.885,0.315,7927.777777777777
-0.84,0.225,7930.555555555556
-0.795,0.165,7933.333333333333
-0.75,0.12,7936.111111111111
-0.685,0.075,7938.888888888889
-0.64,0.05,7941.666666666667
-0.605,0.03,7944.444444444444
-0.575,0.005,7947.222222222223
-0.575,-0.04,7950.0
-0.575,-0.055,7952.777777777777
-0.585,-0.06,7955.555555555556
-0.565,-0.05,7958.333333333333
-0.535,-0.06,7961.111111111111
-0.52,-0.075,7963.888888888889
-0.515,-0.12,7966.666666666667
-0.515,-0.14,7969.444444444444
-0.52,-0.16,7972.222222222223
-0.51,-0.145,7975.0
-0.51,-0.145,7977.777777777777
-0.515,-0.145,7980.555555555556
-0.49,-0.165,7983.333333333333
-0.5,-0.17,7986.111111111111
-0.485,-0.175,7988.888888888889
-0.465,-0.18,7991.666666666667
-0.46,-0.19,7994.444444444444
-0.46,-0.2,7997.222222222223
-0.47,-0.24,8000.0
-0.475,-0.245,8002.777777777777
-0.48,-0.26,8005.555555555556
-0.465,-0.255,8008.333333333333
-0.46,-0.255,8011.111111111111
-0.425,-0.295,8013.888888888889
-0.425,-0.315,8016.666666666667
-0.445,-0.355,8019.444444444444
-0.43,-0.365,8022.222222222223
-0.42,-0.385,8025.0
-0.4,-0.38,8027.777777777777
-0.39,-0.385,8030.555555555556
-0.385,-0.435,8033.333333333333
-0.38,-0.465,8036.111111111111
-0.37,-0.49,8038.888888888889
-0.345,-0.5,8041.666666666667
-0.32,-0.515,8044.444444444444
-0.295,-0.525,8047.222222222223
-0.295,-0.565,8050.0
-0.3,-0.58,8052.777777777777
-0.3,-0.575,8055.555555555556
-0.285,-0.56,8058.333333333333
-0.255,-0.56,8061.111111111111
-0.225,-0.565,8063.888888888889
-0.23,-0.605,8066.666666666667
-0.22,-0.605,8069.444444444444
-0.215,-0.595,8072.222222222223
-0.2,-0.565,8075.0
-0.185,-0.525,8077.777777777777
-0.17,-0.505,8080.555555555556
-0.175,-0.495,8083.333333333333
-0.2,-0.48,8086.111111111111
-0.21,-0.45,8088.888888888889
-0.205,-0.42,8091.666666666667
-0.215,-0.39,8094.444444444444
-0.23,-0.375,8097.222222222223
-0.275,-0.33,8100.0
-0.305,-0.33,8102.777777777777
-0.34,-0.265,8105.555555555556
-0.36,-0.23,8108.333333333333
-0.36,-0.17,8111.111111111111
-0.365,-0.17,8113.888888888889
-0.42,-0.17,8116.666666666667
-0.455,-0.145,8119.444444444444
-0.475,-0.13,8122.222222222223
-0.48,-0.09,8125.0
-0.49,-0.035,8127.777777777777
-0.51,-0.015,8130.555555555556
-0.525,-0.01,8133.333333333333
-0.555,0.0,8136.111111111111
-0.575,0.015,8138.888888888889
-0.57,0.015,8141.666666666667
-0.575,0.045,8144.444444444444
-0.58,0.035,8147.222222222223
-0.615,0.025,8150.0
-0.655,0.04,8152.777777777777
-0.665,0.045,8155.555555555556
-0.665,0.09,8158.333333333333
-0.64,0.11,8161.111111111111
-0.635,0.095,8163.888888888889
-0.645,0.055,8166.666666666667
-0.665,0.055,8169.444444444444
-0.685,0.07,8172.222222222223
-0.675,0.1,8175.0
-0.675,0.115,8177.777777777777
-0.67,0.11,8180.555555555556
-0.685,0.1,8183.333333333333
-0.705,0.09,8186.111111111111
-0.7,0.07,8188.888888888889
-0.675,0.08,8191.666666666667
-0.655,0.085,8194.444444444445
-0.66,0.095,8197.222222222223
-0.675,0.075,8200.0
-0.68,0.07,8202.777777777777
-0.685,0.09,8205.555555555555
-0.67,0.11,8208.333333333334
-0.645,0.11,8211.111111111111
-0.64,0.075,8213.888888888889
-0.65,0.045,8216.666666666666
-0.665,0.05,8219.444444444445
-0.66,0.06,8222.222222222223
-0.635,0.085,8225.0
-0.63,0.095,8227.777777777777
-0.635,0.095,8230.555555555555
-0.64,0.09,8233.333333333334
-0.65,0.06,8236.111111111111
-0.64,0.07,8238.888888888889
-0.625,0.075,8241.666666666666
-0.595,0.08,8244.444444444445
-0.605,0.075,8247.222222222223
-0.625,0.045,8250.0
-0.625,0.05,8252.777777777777
-0.645,0.075,8255.555555555555
-0.635,0.09,8258.333333333334
-0.605,0.105,8261.111111111111
-0.6,0.085,8263.888888888889
-0.6,0.06,8266.666666666666
-0.615,0.04,8269.444444444445
-0.625,0.065,8272.222222222223
-0.61,0.085,8275.0
-0.6,0.11,8277.777777777777
-0.595,0.095,8280.555555555555
-0.61,0.115,8283.333333333334
-0.615,0.1,8286.111111111111
-0.61,0.1,8288.888888888889
-0.585,0.11,8291.666666666666
-0.545,0.12,8294.444444444445
-0.53,0.105,8297.222222222223
-0.54,0.12,8300.0
-0.54,0.105,8302.777777777777
-0.55,0.11,8305.555555555555
-0.51,0.12,8308.333333333334
-0.475,0.11,8311.111111111111
-0.465,0.075,8313.888888888889
-0.455,0.035,8316.666666666666
-0.435,0.0,8319.444444444445
-0.415,0.005,8322.222222222223
-0.39,0.04,8325.0
-0.37,0.045,8327.777777777777
-0.37,0.06,8330.555555555555
-0.375,0.055,8333.333333333334
-0.38,0.04,8336.111111111111
-0.38,0.06,8338.888888888889
-0.365,0.055,8341.666666666666
-0.35,0.06,8344.444444444445
-0.37,0.04,8347.222222222223
-0.395,0.04,8350.0
-0.43,0.065,8352.777777777777
-0.455,0.06,8355.555555555555
-0.505,0.085,8358.333333333334
-0.53,0.09,8361.111111111111
-0.555,0.065,8363.888888888889
-0.575,0.04,8366.666666666666
-0.59,0.01,8369.444444444445
-0.61,0.005,8372.222222222223
-0.63,0.03,8375.0
-0.63,0.04,8377.777777777777
-0.64,0.05,8380.555555555555
-0.65,0.05,8383.333333333334
-0.655,0.045,8386.111111111111
-0.65,0.055,8388.888888888889
-0.64,0.06,8391.666666666666
-0.635,0.05,8394.444444444445
-0.64,0.025,8397.222222222223
-0.665,0.015,8400.0
-0.68,0.025,8402.777777777777
-0.69,0.05,8405.555555555555
-0.675,0.07,8408.333333333334
-0.665,0.075,8411.111111111111
-0.665,0.06,8413.888888888889
-0.665,0.02,8416.666666666666
-0.665,0.02,8419.444444444445
-0.645,0.035,8422.222222222223
-0.645,0.045,8425.0
-0.63,0.05,8427.777777777777
-0.65,0.065,8430.555555555555
-0.64,0.06,8433.333333333334
-0.64,0.065,8436.111111111111
-0.62,0.085,8438.888888888889
-0.605,0.08,8441.666666666666
-0.565,0.03,8444.444444444445
-0.545,-0.02,8447.222222222223
-0.485,-0.08,8450.0
-0.4,-0.085,8452.777777777777
-0.275,-0.065,8455.555555555555
-0.08,-0.015,8458.333333333334
0.175,0.075,8461.111111111111
0.43,0.185,8463.888888888889
0.66,0.3,8466.666666666666
0.835,0.425,8469.444444444445
0.915,0.555,8472.222222222223
0.825,0.705,8475.0
0.56,0.785,8477.777777777777
0.14,0.775,8480.555555555555
-0.305,0.75,8483.333333333334
-0.675,0.725,8486.111111111111
-0.88,0.75,8488.888888888889
-0.885,0.815,8491.666666666666
-0.845,0.875,8494.444444444445
-0.83,0.925,8497.222222222223
-0.87,0.965,8500.0
-0.925,1.005,8502.777777777777
-0.955,1.085,8505.555555555555
-0.98,1.15,8508.333333333334
-0.995,1.19,8511.111111111111
-1.02,1.22,8513.888888888889
-1.02,1.255,8516.666666666666
-1.02,1.295,8519.444444444445
-1.005,1.355,8522.222222222223
-1.0,1.405,8525.0
-1.005,1.435,8527.777777777777
-1.025,1.4,8530.555555555555
-1.06,1.32,8533.333333333334
-1.085,1.175,8536.111111111111
-1.075,1.045,8538.888888888889
-1.025,0.9,8541.666666666666
-0.96,0.735,8544.444444444445
-0.925,0.55,8547.222222222223
-0.895,0.39,8550.0
-0.855,0.245,8552.777777777777
-0.825,0.165,8555.555555555555
-0.75,0.125,8558.333333333334
-0.68,0.1,8561.111111111111
-0.615,0.05,8563.888888888889
-0.565,0.02,8566.666666666666
-0.53,-0.02,8569.444444444445
-0.505,-0.045,8572.222222222223
-0.485,-0.065,8575.0
-0.46,-0.07,8577.777777777777
-0.455,-0.09,8580.555555555555
-0.465,-0.105,8583.333333333334
-0.46,-0.12,8586.111111111111
-0.445,-0.11,8588.888888888889
-0.425,-0.105,8591.666666666666
-0.39,-0.12,8594.444444444445
-0.38,-0.145,8597.222222222223
-0.395,-0.18,8600.0
-0.39,-0.205,8602.777777777777
-0.39,-0.19,8605.555555555555
-0.385,-0.19,8608.333333333334
-0.37,-0.18,8611.111111111111
-0.365,-0.185,8613.888888888889
-0.345,-0.215,8616.666666666666
-0.345,-0.23,8619.444444444445
-0.33,-0.25,8622.222222222223
-0.32,-0.255,8625.0
-0.3,-0.26,8627.777777777777
-0.29,-0.275,8630.555555555555
-0.285,-0.295,8633.333333333334
-0.29,-0.315,8636.111111111111
-0.295,-0.3,8638.888888888889
-0.28,-0.305,8641.666666666666
-0.25,-0.31,8644.444444444445
-0.235,-0.355,8647.222222222223
-0.23,-0.385,8650.0
-0.225,-0.425,8652.777777777777
-0.21,-0.43,8655.555555555555
-0.19,-0.44,8658.333333333334
-0.175,-0.43,8661.111111111111
-0.16,-0.46,8663.888888888889
-0.165,-0.495,8666.666666666666
-0.145,-0.51,8669.444444444445
-0.14,-0.52,8672.222222222223
-0.095,-0.53,8675.0
-0.06,-0.54,8677.777777777777
-0.035,-0.58,8680.555555555555
-0.035,-0.615,8683.333333333334
-0.04,-0.62,8686.111111111111
-0.035,-0.61,8688.888888888889
0.0,-0.595,8691.666666666666
0.02,-0.585,8694.444444444445
0.05,-0.58,8697.222222222223
0.055,-0.595,8700.0
0.06,-0.64,8702.777777777777
0.065,-0.635,8705.555555555555
0.09,-0.6,8708.333333333334
0.11,-0.575,8711.111111111111
0.11,-0.565,8713.888888888889
0.1,-0.535,8716.666666666666
0.07,-0.525,8719.444444444445
0.075,-0.49,8722.222222222223
0.085,-0.45,8725.0
0.095,-0.43,8727.777777777777
0.075,-0.42,8730.555555555555
0.04,-0.395,8733.333333333334
-0.005,-0.37,8736.111111111111
-0.02,-0.315,8738.888888888889
-0.03,-0.275,8741.666666666666
-0.04,-0.22,8744.444444444445
-0.065,-0.21,8747.222222222223
-0.085,-0.21,8750.0
-0.115,-0.185,8752.777777777777
-0.13,-0.155,8755.555555555555
-0.145,-0.12,8758.333333333334
-0.155,-0.08,8761.111111111111
-0.175,-0.07,8763.888888888889
-0.205,-0.065,8766.666666666666
-0.235,-0.035,8769.444444444445
-0.25,-0.01,8772.222222222223
-0.27,0.0,8775.0
-0.24,0.03,8777.777777777777
-0.26,0.025,8780.555555555555
-0.27,0.015,8783.333333333334
-0.305,0.03,8786.111111111111
-0.33,0.035,8788.888888888889
-0.33,0.065,8791.666666666666
-0.34,0.085,8794.444444444445
-0.335,0.075,8797.222222222223
-0.335,0.07,8800.0
-0.34,0.055,8802.777777777777
-0.35,0.055,8805.555555555555
-0.34,0.065,8808.333333333334
-0.34,0.08,8811.111111111111
-0.34,0.085,8813.888888888889
-0.37,0.06,8816.666666666666
-0.385,0.07,8819.444444444445
-0.37,0.095,8822.222222222223
-0.335,0.105,8825.0
-0.32,0.115,8827.777777777777
-0.315,0.09,8830.555555555555
-0.325,0.065,8833.333333333334
-0.335,0.06,8836.111111111111
-0.34,0.075,8838.888888888889
-0.315,0.09,8841.666666666666
-0.3,0.105,8844.444444444445
-0.29,0.1,8847.222222222223
-0.29,0.09,8850.0
-0.305,0.08,8852.777777777777
-0.295,0.075,8855.555555555555
-0.285,0.08,8858.333333333334
-0.26,0.09,8861.111111111111
-0.265,0.09,8863.888888888889
-0.28,0.07,8866.666666666666
-0.295,0.065,8869.444444444445
-0.29,0.085,8872.222222222223
-0.285,0.085,8875.0
-0.25,0.1,8877.777777777777
-0.25,0.105,8880.555555555555
-0.25,0.06,8883.333333333334
-0.26,0.055,8886.111111111111
-0.26,0.045,8888.888888888889
-0.255,0.055,8891.666666666666
-0.23,0.08,8894.444444444445
-0.23,0.08,8897.222222222223
-0.235,0.07,8900.0
-0.265,0.06,8902.777777777777
-0.27,0.07,8905.555555555555
-0.265,0.09,8908.333333333334
-0.225,0.105,8911.111111111111
-0.21,0.07,8913.888888888889
-0.205,0.06,8916.666666666666
-0.225,0.035,8919.444444444445
-0.245,0.04,8922.222222222223
-0.235,0.065,8925.0
-0.22,0.105,8927.777777777777
-0.225,0.115,8930.555555555555
-0.22,0.1,8933.333333333334
-0.22,0.105,8936.111111111111
-0.205,0.12,8938.888888888889
-0.185,0.095,8941.666666666666
-0.135,0.115,8944.444444444445
-0.125,0.105,8947.222222222223
-0.125,0.085,8950.0
-0.11,0.09,8952.777777777777
-0.13,0.105,8955.555555555555
-0.1,0.1,8958.333333333334
-0.07,0.11,8961.111111111111
-0.03,0.08,8963.888888888889
-0.02,0.045,8966.666666666666
0.0,0.02,8969.444444444445
0.01,0.01,8972.222222222223
0.035,0.015,8975.0
0.065,0.05,8977.777777777777
0.07,0.045,8980.555555555555
0.055,0.055,8983.333333333334
0.055,0.05,8986.111111111111
0.055,0.045,8988.888888888889
0.06,0.085,8991.666666666666
0.07,0.085,8994.444444444445
0.07,0.065,8997.222222222223
0.045,0.055,9000.0
0.015,0.035,9002.777777777777
-0.035,0.06,9005.555555555555
-0.065,0.09,9008.333333333334
-0.1,0.095,9011.111111111111
-0.13,0.09,9013.888888888889
-0.14,0.065,9016.666666666666
-0.165,0.04,9019.444444444445
-0.185,0.045,9022.222222222223
-0.19,0.06,9025.0
-0.19,0.075,9027.777777777777
-0.21,0.085,9030.555555555555
-0.215,0.085,9033.333333333334
-0.24,0.055,9036.111111111111
-0.25,0.06,9038.888888888889
-0.245,0.06,9041.666666666666
-0.24,0.065,9044.444444444445
-0.22,0.065,9047.222222222223
-0.26,0.055,9050.0
-0.265,0.05,9052.777777777777
-0.285,0.055,9055.555555555555
-0.27,0.09,9058.333333333334
-0.25,0.1,9061.111111111111
-0.235,0.085,9063.888888888889
-0.225,0.05,9066.666666666666
-0.24,0.035,9069.444444444445
-0.245,0.065,9072.222222222223
-0.23,0.08,9075.0
-0.215,0.11,9077.777777777777
-0.215,0.115,9080.555555555555
-0.205,0.13,9083.333333333334
-0.195,0.105,9086.111111111111
-0.155,0.08,9088.888888888889
-0.11,0.03,9091.666666666666
-0.005,-0.015,9094.444444444445
0.12,-0.02,9097.222222222223
0.3,-0.005,9100.0
0.525,0.05,9102.777777777777
0.81,0.175,9105.555555555555
1.085,0.39,9108.333333333334
1.31,0.59,9111.111111111111
1.38,0.75,9113.888888888889
1.265,0.85,9116.666666666666
0.915,0.895,9119.444444444445
0.415,0.905,9122.222222222223
-0.05,0.905,9125.0
-0.395,0.925,9127.777777777777
-0.545,0.96,9130.555555555555
-0.56,1.01,9133.333333333334
-0.535,1.04,9136.111111111111
-0.51,1.12,9138.888888888889
-0.515,1.185,9141.666666666666
-0.55,1.255,9144.444444444445
-0.585,1.3,9147.222222222223
-0.63,1.33,9150.0
-0.645,1.375,9152.777777777777
-0.68,1.43,9155.555555555555
-0.65,1.49,9158.333333333334
-0.62,1.535,9161.111111111111
-0.625,1.55,9163.888888888889
-0.635,1.515,9166.666666666666
-0.65,1.475,9169.444444444445
-0.675,1.375,9172.222222222223
-0.68,1.27,9175.0
-0.665,1.13,9177.777777777777
-0.615,0.96,9180.555555555555
-0.58,0.765,9183.333333333334
-0.56,0.58,9186.111111111111
-0.5,0.42,9188.888888888889
-0.45,0.295,9191.666666666666
-0.365,0.225,9194.444444444445
-0.33,0.175,9197.222222222223
-0.275,0.105,9200.0
-0.23,0.085,9202.777777777777
-0.185,0.06,9205.555555555555
-0.14,0.045,9208.333333333334
-0.09,0.02,9211.111111111111
-0.07,-0.01,9213.888888888889
-0.065,-0.075,9216.666666666666
-0.065,-0.095,9219.444444444445
-0.065,-0.1,9222.222222222223
-0.055,-0.075,9225.0
-0.05,-0.075,9227.777777777777
-0.045,-0.085,9230.555555555555
-0.03,-0.12,9233.333333333334
-0.02,-0.14,9236.111111111111
-0.02,-0.15,9238.888888888889
0.005,-0.15,9241.666666666666
0.025,-0.145,9244.444444444445
0.02,-0.18,9247.222222222223
0.01,-0.19,9250.0
0.0,-0.195,9252.777777777777
0.005,-0.195,9255.555555555555
0.0,-0.18,9258.333333333334
0.03,-0.18,9261.111111111111
0.06,-0.195,9263.888888888889
0.06,-0.22,9266.666666666666
0.05,-0.26,9269.444444444445
0.045,-0.265,9272.222222222223
0.065,-0.265,9275.0
0.08,-0.27,9277.777777777777
0.09,-0.275,9280.555555555555
0.085,-0.305,9283.333333333334
0.085,-0.325,9286.111111111111
0.095,-0.345,9288.888888888889
0.125,-0.335,9291.666666666666
0.15,-0.365,9294.444444444445
0.16,-0.385,9297.222222222223
0.165,-0.435,9300.0
0.16,-0.45,9302.777777777777
0.16,-0.47,9305.555555555555
0.19,-0.475,9308.333333333334
0.22,-0.465,9311.111111111111
0.255,-0.505,9313.888888888889
0.26,-0.54,9316.666666666666
0.27,-0.59,9319.444444444445
0.29,-0.59,9322.222222222223
0.3,-0.585,9325.0
0.32,-0.595,9327.777777777777
0.335,-0.6,9330.555555555555
0.33,-0.615,9333.333333333334
0.335,-0.62,9336.111111111111
0.36,-0.605,9338.888888888889
0.38,-0.59,9341.666666666666
0.41,-0.575,9344.444444444445
0.405,-0.59,9347.222222222223
0.415,-0.595,9350.0
0.4,-0.59,9352.777777777777
0.4,-0.57,9355.555555555555
0.405,-0.54,9358.333333333334
0.405,-0.48,9361.111111111111
0.405,-0.47,9363.888888888889
0.39,-0.45,9366.666666666666
0.365,-0.45,9369.444444444445
0.355,-0.425,9372.222222222223
0.33,-0.39,9375.0
0.35,-0.355,9377.777777777777
0.325,-0.335,9380.555555555555
0.3,-0.325,9383.333333333334
0.25,-0.28,9386.111111111111
0.225,-0.24,9388.888888888889
0.215,-0.19,9391.666666666666
0.195,-0.135,9394.444444444445
0.165,-0.125,9397.222222222223
0.155,-0.13,9400.0
0.1,-0.11,9402.777777777777
0.095,-0.1,9405.555555555555
0.095,-0.05,9408.333333333334
0.085,-0.015,9411.111111111111
0.065,0.005,9413.888888888889
0.035,0.01,9416.666666666666
0.005,0.02,9419.444444444445
-0.02,0.035,9422.222222222223
-0.03,0.065,9425.0
-0.005,0.085,9427.777777777777
-0.015,0.085,9430.555555555555
-0.03,0.065,9433.333333333334
-0.05,0.055,9436.111111111111
-0.065,0.07,9438.888888888889
-0.06,0.085,9441.666666666666
-0.055,0.11,9444.444444444445
-0.09,0.105,9447.222222222223
-0.095,0.1,9450.0
-0.125,0.105,9452.777777777777
-0.135,0.105,9455.555555555555
-0.13,0.135,9458.333333333334
-0.105,0.145,9461.111111111111
-0.105,0.125,9463.888888888889
-0.115,0.11,9466.666666666666
-0.16,0.09,9469.444444444445
-0.15,0.095,9472.222222222223
-0.15,0.12,9475.0
-0.135,0.135,9477.777777777777
-0.14,0.13,9480.555555555555
-0.15,0.125,9483.333333333334
-0.165,0.12,9486.111111111111
-0.17,0.135,9488.888888888889
-0.155,0.16,9491.666666666666
-0.135,0.155,9494.444444444445
-0.135,0.16,9497.222222222223
-0.145,0.12,9500.0
-0.15,0.115,9502.777777777777
-0.145,0.125,9505.555555555555
-0.15,0.125,9508.333333333334
-0.14,0.145,9511.111111111111
-0.145,0.14,9513.888888888889
-0.15,0.135,9516.666666666666
-0.165,0.125,9519.444444444445
-0.155,0.145,9522.222222222223
-0.16,0.16,9525.0
-0.145,0.18,9527.777777777777
-0.125,0.155,9530.555555555555
-0.14,0.135,9533.333333333334
-0.155,0.11,9536.111111111111
-0.145,0.115,9538.888888888889
-0.14,0.135,9541.666666666666
-0.12,0.14,9544.444444444445
-0.12,0.155,9547.222222222223
-0.145,0.145,9550.0
-0.145,0.135,9552.777777777777
-0.145,0.145,9555.555555555555
-0.12,0.155,9558.333333333334
-0.105,0.15,9561.111111111111
-0.105,0.125,9563.888888888889
-0.115,0.12,9566.666666666666
-0.13,0.12,9569.444444444445
-0.145,0.105,9572.222222222223
-0.12,0.105,9575.0
-0.125,0.145,9577.777777777777
-0.13,0.14,9580.555555555555
-0.145,0.135,9583.333333333334
-0.145,0.125,9586.111111111111
-0.13,0.125,9588.888888888889
-0.115,0.15,9591.666666666666
-0.095,0.135,9594.444444444445
-0.09,0.13,9597.222222222223
-0.11,0.1,9600.0
-0.12,0.095,9602.777777777777
-0.135,0.1,9605.555555555555
-0.14,0.13,9608.333333333334
-0.135,0.15,9611.111111111111
-0.13,0.145,9613.888888888889
-0.125,0.15,9616.666666666666
-0.145,0.125,9619.444444444445
-0.135,0.135,9622.222222222223
-0.125,0.135,9625.0
-0.115,0.15,9627.777777777777
-0.105,0.14,9630.555555555555
-0.125,0.125,9633.333333333334
-0.135,0.125,9636.111111111111
-0.15,0.16,9638.888888888889
-0.14,0.19,9641.666666666666
-0.125,0.205,9644.444444444445
-0.12,0.19,9647.222222222223
-0.11,0.19,9650.0
-0.095,0.18,9652.777777777777
-0.08,0.19,9655.555555555555
-0.05,0.19,9658.333333333334
-0.03,0.19,9661.111111111111
-0.035,0.16,9663.888888888889
-0.03,0.15,9666.666666666666
-0.03,0.13,9669.444444444445
-0.03,0.135,9672.222222222223
-0.01,0.155,9675.0
0.015,0.17,9677.777777777777
0.03,0.15,9680.555555555555
0.045,0.115,9683.333333333334
0.04,0.085,9686.111111111111
0.07,0.065,9688.888888888889
0.1,0.085,9691.666666666666
0.135,0.095,9694.444444444445
0.12,0.075,9697.222222222223
0.12,0.06,9700.0
0.105,0.075,9702.777777777777
0.105,0.09,9705.555555555555
0.1,0.125,9708.333333333334
0.12,0.155,9711.111111111111
0.125,0.15,9713.888888888889
0.115,0.13,9716.666666666666
0.09,0.12,9719.444444444445
0.05,0.095,9722.222222222223
0.035,0.105,9725.0
0.02,0.12,9727.777777777777
-0.015,0.1,9730.555555555555
-0.085,0.1,9733.333333333334
-0.12,0.095,9736.111111111111
-0.15,0.105,9738.888888888889
-0.15,0.115,9741.666666666666
-0.14,0.125,9744.444444444445
-0.155,0.105,9747.222222222223
-0.165,0.085,9750.0
-0.175,0.07,9752.777777777777
-0.205,0.075,9755.555555555555
-0.195,0.085,9758.333333333334
-0.2,0.1,9761.111111111111
-0.22,0.11,9763.888888888889
-0.235,0.105,9766.666666666666
-0.25,0.1,9769.444444444445
-0.23,0.1,9772.222222222223
-0.23,0.11,9775.0
-0.21,0.125,9777.777777777777
-0.22,0.11,9780.555555555555
-0.23,0.1,9783.333333333334
-0.26,0.07,9786.111111111111
-0.26,0.095,9788.888888888889
-0.255,0.115,9791.666666666666
-0.26,0.135,9794.444444444445
-0.265,0.155,9797.222222222223
-0.26,0.115,9800.0
-0.26,0.115,9802.777777777777
-0.26,0.115,9805.555555555555
-0.225,0.135,9808.333333333334
-0.22,0.15,9811.111111111111
-0.21,0.125,9813.888888888889
-0.22,0.13,9816.666666666666
-0.24,0.14,9819.444444444445
-0.24,0.195,9822.222222222223
-0.205,0.22,9825.0
-0.165,0.19,9827.777777777777
-0.135,0.11,9830.555555555555
-0.065,0.02,9833.333333333334
0.025,-0.02,9836.111111111111
0.135,-0.005,9838.888888888889
0.325,0.015,9841.666666666666
0.55,0.065,9844.444444444445
0.765,0.165,9847.222222222223
0.99,0.32,9850.0
1.2,0.515,9852.777777777777
1.365,0.71,9855.555555555555
1.42,0.87,9858.333333333334
1.365,0.985,9861.111111111111
1.145,1.02,9863.888888888889
0.755,1.0,9866.666666666666
0.335,0.96,9869.444444444445
-0.065,0.96,9872.222222222223
-0.37,0.975,9875.0
-0.53,1.01,9877.777777777777
-0.565,1.07,9880.555555555555
-0.53,1.115,9883.333333333334
-0.495,1.175,9886.111111111111
-0.495,1.235,9888.888888888889
-0.5,1.29,9891.666666666666
-0.515,1.335,9894.444444444445
-0.54,1.365,9897.222222222223
-0.575,1.405,9900.0
-0.63,1.45,9902.777777777777
-0.665,1.5,9905.555555555555
-0.67,1.585,9908.333333333334
-0.65,1.66,9911.111111111111
-0.64,1.69,9913.888888888889
-0.635,1.7,9916.666666666666
-0.65,1.66,9919.444444444445
-0.655,1.575,9922.222222222223
-0.665,1.445,9925.0
-0.675,1.295,9927.777777777777
-0.67,1.115,9930.555555555555
-0.64,0.91,9933.333333333334
-0.605,0.71,9936.111111111111
-0.55,0.52,9938.888888888889
-0.47,0.365,9941.666666666666
-0.405,0.25,9944.444444444445
-0.34,0.17,9947.222222222223
-0.275,0.13,9950.0
-0.215,0.085,9952.777777777777
-0.18,0.065,9955.555555555555
-0.15,0.065,9958.333333333334
-0.14,0.06,9961.111111111111
-0.1,0.035,9963.888888888889
-0.1,-0.02,9966.666666666666
-0.085,-0.05,9969.444444444445
-0.1,-0.07,9972.222222222223
-0.085,-0.075,9975.0
-0.05,-0.055,9977.777777777777
-0.045,-0.06,9980.555555555555
-0.07,-0.07,9983.333333333334
-0.07,-0.1,9986.111111111111
-0.07,-0.095,9988.888888888889
-0.05,-0.115,9991.666666666666
-0.015,-0.11,9994.444444444445
0.0,-0.145,9997.222222222223
-0.01,-0.155,10000.0
-0.03,-0.18,10002.777777777777
-0.04,-0.175,10005.555555555555
-0.03,-0.145,10008.333333333334
0.0,-0.155,10011.111111111111
0.005,-0.185,10013.888888888889
0.02,-0.225,10016.666666666666
0.015,-0.26,10019.444444444445
0.025,-0.275,10022.222222222223
0.03,-0.265,10025.0
0.045,-0.245,10027.777777777777
0.055,-0.265,10030.555555555555
0.055,-0.3,10033.333333333334
0.075,-0.35,10036.111111111111
0.085,-0.355,10038.888888888889
0.115,-0.37,10041.666666666666
0.145,-0.375,10044.444444444445
0.145,-0.415,10047.222222222223
0.135,-0.445,10050.0
0.14,-0.485,10052.777777777777
0.14,-0.475,10055.555555555555
0.17,-0.47,10058.333333333334
0.205,-0.47,10061.111111111111
0.21,-0.5,10063.888888888889
0.225,-0.54,10066.666666666666
0.225,-0.575,10069.444444444445
0.225,-0.59,10072.222222222223
0.24,-0.57,10075.0
0.27,-0.555,10077.777777777777
0.28,-0.565,10080.555555555555
0.28,-0.565,10083.333333333334
0.29,-0.58,10086.111111111111
0.295,-0.555,10088.888888888889
0.295,-0.535,10091.666666666666
0.32,-0.535,10094.444444444445
0.33,-0.52,10097.222222222223
0.345,-0.515,10100.0
0.325,-0.495,10102.777777777777
0.31,-0.46,10105.555555555555
0.31,-0.42,10108.333333333334
0.305,-0.35,10111.111111111111
0.295,-0.335,10113.888888888889
0.255,-0.32,10116.666666666666
0.23,-0.3,10119.444444444445
0.175,-0.26,10122.222222222223
0.185,-0.21,10125.0
0.15,-0.155,10127.777777777777
0.12,-0.115,10130.555555555555
0.09,-0.075,10133.333333333334
0.035,-0.055,10136.111111111111
0.025,-0.04,10138.888888888889
0.02,-0.01,10141.666666666666
0.005,0.025,10144.444444444445
-0.02,0.055,10147.222222222223
-0.07,0.055,10150.0
-0.095,0.085,10152.777777777777
-0.125,0.1,10155.555555555555
-0.105,0.12,10158.333333333334
-0.1,0.115,10161.111111111111
-0.115,0.11,10163.888888888889
-0.135,0.1,10166.666666666666
-0.155,0.09,10169.444444444445
-0.16,0.12,10172.222222222223
-0.175,0.125,10175.0
-0.175,0.155,10177.777777777777
-0.17,0.17,10180.555555555555
-0.18,0.165,10183.333333333334
-0.19,0.15,10186.111111111111
-0.195,0.155,10188.888888888889
-0.18,0.145,10191.666666666666
-0.185,0.165,10194.444444444445
-0.185,0.145,10197.222222222223
-0.2,0.135,10200.0
-0.225,0.13,10202.777777777777
-0.235,0.155,10205.555555555555
-0.225,0.18,10208.333333333334
-0.21,0.19,10211.111111111111
-0.21,0.18,10213.888888888889
-0.2,0.165,10216.666666666666
-0.22,0.135,10219.444444444445
-0.2,0.135,10222.222222222223
-0.19,0.145,10225.0
-0.19,0.16,10227.777777777777
-0.195,0.18,10230.555555555555
-0.2,0.165,10233.333333333334
-0.205,0.155,10236.111111111111
-0.195,0.165,10238.888888888889
-0.195,0.175,10241.666666666666
-0.16,0.175,10244.444444444445
-0.15,0.165,10247.222222222223
-0.18,0.175,10250.0
-0.205,0.165,10252.777777777777
-0.22,0.185,10255.555555555555
-0.2,0.19,10258.333333333334
-0.175,0.2,10261.111111111111
-0.165,0.17,10263.888888888889
-0.165,0.15,10266.666666666666
-0.185,0.13,10269.444444444445
-0.2,0.145,10272.222222222223
-0.195,0.18,10275.0
-0.185,0.2,10277.777777777777
-0.175,0.205,10280.555555555555
-0.19,0.19,10283.333333333334
-0.2,0.18,10286.111111111111
-0.2,0.16,10288.888888888889
-0.19,0.175,10291.666666666666
-0.18,0.19,10294.444444444445
-0.19,0.175,10297.222222222223
-0.21,0.16,10300.0
-0.235,0.165,10302.777777777777
-0.245,0.18,10305.555555555555
-0.23,0.19,10308.333333333334
-0.225,0.195,10311.111111111111
-0.21,0.18,10313.888888888889
-0.22,0.16,10316.666666666666
-0.235,0.165,10319.444444444445
-0.24,0.155,10322.222222222223
-0.245,0.19,10325.0
-0.24,0.215,10327.777777777777
-0.245,0.22,10330.555555555555
-0.25,0.215,10333.333333333334
-0.245,0.215,10336.111111111111
-0.245,0.215,10338.888888888889
-0.235,0.23,10341.666666666666
-0.19,0.24,10344.444444444445
-0.16,0.24,10347.222222222223
-0.16,0.225,10350.0
-0.16,0.24,10352.777777777777
-0.15,0.26,10355.555555555555
-0.14,0.265,10358.333333333334
-0.13,0.25,10361.111111111111
-0.1,0.215,10363.888888888889
-0.095,0.185,10366.666666666666
-0.08,0.15,10369.444444444445
-0.055,0.145,10372.222222222223
-0.02,0.14,10375.0
0.0,0.135,10377.777777777777
0.025,0.145,10380.555555555555
0.025,0.15,10383.333333333334
0.01,0.135,10386.111111111111
0.02,0.155,10388.888888888889
0.025,0.15,10391.666666666666
0.03,0.16,10394.444444444445
0.005,0.17,10397.222222222223
-0.01,0.15,10400.0
-0.05,0.145,10402.777777777777
-0.09,0.145,10405.555555555555
-0.14,0.17,10408.333333333334
-0.19,0.185,10411.111111111111
-0.2,0.155,10413.888888888889
-0.225,0.125,10416.666666666666
-0.26,0.1,10419.444444444445
-0.28,0.095,10422.222222222223
-0.28,0.12,10425.0
-0.295,0.14,10427.777777777777
-0.3,0.15,10430.555555555555
-0.32,0.14,10433.333333333334
-0.34,0.145,10436.111111111111
-0.345,0.13,10438.888888888889
-0.34,0.13,10441.666666666666
-0.33,0.135,10444.444444444445
-0.345,0.13,10447.222222222223
-0.36,0.125,10450.0
-0.375,0.14,10452.777777777777
-0.385,0.165,10455.555555555555
-0.385,0.18,10458.333333333334
-0.375,0.195,10461.111111111111
-0.365,0.17,10463.888888888889
-0.365,0.155,10466.666666666666
-0.385,0.135,10469.444444444445
-0.385,0.14,10472.222222222223
-0.375,0.15,10475.0
-0.365,0.17,10477.777777777777
-0.38,0.17,10480.555555555555
-0.39,0.18,10483.333333333334
-0.395,0.185,10486.111111111111
-0.39,0.175,10488.888888888889
-0.385,0.21,10491.666666666666
-0.34,0.23,10494.444444444445
-0.315,0.205,10497.222222222223
-0.325,0.135,10500.0
-0.3,0.075,10502.777777777777
-0.245,0.045,10505.555555555555
-0.145,0.04,10508.333333333334
0.02,0.065,10511.111111111111
0.235,0.1,10513.888888888889
0.48,0.15,10516.666666666666
0.75,0.28,10519.444444444445
1.0,0.47,10522.222222222223
1.205,0.68,10525.0
1.275,0.84,10527.777777777777
1.105,0.945,10530.555555555555
0.705,0.98,10533.333333333334
0.16,0.945,10536.111111111111
-0.31,0.935,10538.888888888889
-0.625,0.945,10541.666666666666
-0.71,0.99,10544.444444444445
-0.66,1.045,10547.222222222223
-0.605,1.1,10550.0
-0.615,1.155,10552.777777777777
-0.66,1.235,10555.555555555555
-0.7,1.31,10558.333333333334
-0.74,1.37,10561.111111111111
-0.755,1.405,10563.888888888889
-0.8,1.42,10566.666666666666
-0.825,1.45,10569.444444444445
-0.83,1.5,10572.222222222223
-0.815,1.565,10575.0
-0.78,1.61,10577.777777777777
-0.8,1.635,10580.555555555555
-0.815,1.615,10583.333333333334
-0.86,1.575,10586.111111111111
-0.87,1.485,10588.888888888889
-0.865,1.375,10591.666666666666
-0.845,1.215,10594.444444444445
-0.79,1.03,10597.222222222223
-0.755,0.835,10600.0
-0.73,0.615,10602.777777777777
-0.69,0.455,10605.555555555555
-0.635,0.335,10608.333333333334
-0.57,0.26,10611.111111111111
-0.52,0.215,10613.888888888889
-0.455,0.15,10616.666666666666
-0.4,0.125,10619.444444444445
-0.365,0.1,10622.222222222223
-0.33,0.06,10625.0
-0.3,0.03,10627.777777777777
-0.295,-0.005,10630.555555555555
-0.29,-0.02,10633.333333333334
-0.285,-0.035,10636.111111111111
-0.29,-0.02,10638.888888888889
-0.27,-0.005,10641.666666666666
-0.25,-0.015,10644.444444444445
-0.24,-0.04,10647.222222222223
-0.26,-0.085,10650.0
-0.245,-0.1,10652.777777777777
-0.25,-0.11,10655.555555555555
-0.25,-0.1,10658.333333333334
-0.225,-0.1,10661.111111111111
-0.225,-0.11,10663.888888888889
-0.23,-0.125,10666.666666666666
-0.255,-0.15,10669.444444444445
-0.25,-0.15,10672.222222222223
-0.215,-0.15,10675.0
-0.18,-0.145,10677.777777777777
-0.16,-0.175,10680.555555555555
-0.17,-0.19,10683.333333333334
-0.175,-0.23,10686.111111111111
-0.18,-0.22,10688.888888888889
-0.165,-0.215,10691.666666666666
-0.145,-0.19,10694.444444444445
-0.13,-0.205,10697.222222222223
-0.135,-0.245,10700.0
-0.155,-0.285,10702.777777777777
-0.125,-0.295,10705.555555555555
-0.11,-0.315,10708.333333333334
-0.085,-0.32,10711.111111111111
-0.075,-0.335,10713.888888888889
-0.1,-0.385,10716.666666666666
-0.095,-0.4,10719.444444444445
-0.085,-0.41,10722.222222222223
-0.05,-0.405,10725.0
-0.035,-0.41,10727.777777777777
-0.01,-0.435,10730.555555555555
0.005,-0.49,10733.333333333334
-0.005,-0.525,10736.111111111111
0.01,-0.54,10738.888888888889
0.035,-0.505,10741.666666666666
0.06,-0.485,10744.444444444445
0.09,-0.51,10747.222222222223
0.09,-0.515,10750.0
0.085,-0.555,10752.777777777777
0.11,-0.54,10755.555555555555
0.135,-0.545,10758.333333333334
0.16,-0.52,10761.111111111111
0.165,-0.51,10763.888888888889
0.16,-0.51,10766.666666666666
0.14,-0.49,10769.444444444445
0.135,-0.46,10772.222222222223
0.135,-0.425,10775.0
0.15,-0.375,10777.777777777777
0.145,-0.38,10780.555555555555
0.125,-0.37,10783.333333333334
0.09,-0.36,10786.111111111111
0.07,-0.315,10788.888888888889
0.05,-0.26,10791.666666666666
0.045,-0.215,10794.444444444445
0.015,-0.19,10797.222222222223
-0.015,-0.155,10800.0
-0.055,-0.145,10802.777777777777
-0.07,-0.125,10805.555555555555
-0.08,-0.09,10808.333333333334
-0.09,-0.055,10811.111111111111
-0.11,-0.035,10813.888888888889
-0.13,-0.02,10816.666666666666
-0.185,0.005,10819.444444444445
-0.215,0.035,10822.222222222223
-0.245,0.075,10825.0
-0.235,0.09,10827.777777777777
-0.235,0.085,10830.555555555555
-0.25,0.075,10833.333333333334
-0.275,0.075,10836.111111111111
-0.3,0.085,10838.888888888889
-0.315,0.1,10841.666666666666
-0.315,0.135,10844.444444444445
-0.325,0.145,10847.222222222223
-0.335,0.145,10850.0
-0.365,0.145,10852.777777777777
-0.37,0.135,10855.555555555555
-0.365,0.16,10858.333333333334
-0.36,0.165,10861.111111111111
-0.37,0.155,10863.888888888889
-0.38,0.135,10866.666666666666
-0.41,0.125,10869.444444444445
-0.425,0.12,10872.222222222223
-0.42,0.155,10875.0
-0.41,0.18,10877.777777777777
-0.405,0.19,10880.555555555555
-0.41,0.175,10883.333333333334
-0.41,0.14,10886.111111111111
-0.415,0.155,10888.888888888889
-0.42,0.155,10891.666666666666
-0.385,0.165,10894.444444444445
-0.39,0.17,10897.222222222223
-0.395,0.155,10900.0
-0.41,0.14,10902.777777777777
-0.41,0.145,10905.555555555555
-0.4,0.15,10908.333333333334
-0.38,0.155,10911.111111111111
-0.39,0.145,10913.888888888889
-0.385,0.125,10916.666666666666
-0.41,0.11,10919.444444444445
-0.415,0.115,10922.222222222223
-0.4,0.135,10925.0
-0.385,0.16,10927.777777777777
-0.37,0.145,10930.555555555555
-0.35,0.13,10933.333333333334
-0.365,0.11,10936.111111111111
-0.37,0.12,10938.888888888889
-0.355,0.13,10941.666666666666
-0.365,0.13,10944.444444444445
-0.345,0.13,10947.222222222223
-0.37,0.135,10950.0
-0.39,0.125,10952.777777777777
-0.395,0.13,10955.555555555555
-0.38,0.15,10958.333333333334
-0.355,0.18,10961.111111111111
-0.345,0.155,10963.888888888889
-0.345,0.13,10966.666666666666
-0.36,0.12,10969.444444444445
-0.38,0.105,10972.222222222223
-0.375,0.12,10975.0
-0.38,0.145,10977.777777777777
-0.38,0.145,10980.555555555555
-0.385,0.135,10983.333333333334
-0.385,0.135,10986.111111111111
-0.38,0.16,10988.888888888889
-0.39,0.17,10991.666666666666
-0.365,0.155,10994.444444444445
-0.36,0.145,10997.222222222223
-0.375,0.14,11000.0
-0.38,0.145,11002.777777777777
-0.385,0.17,11005.555555555555
-0.375,0.2,11008.333333333334
-0.375,0.225,11011.111111111111
-0.355,0.22,11013.888888888889
-0.335,0.195,11016.666666666666
-0.31,0.19,11019.444444444445
-0.29,0.195,11022.222222222223
-0.28,0.175,11025.0
-0.27,0.175,11027.777777777777
-0.255,0.185,11030.555555555555
-0.245,0.175,11033.333333333334
-0.245,0.16,11036.111111111111
-0.22,0.14,11038.888888888889
-0.18,0.13,11041.666666666666
-0.14,0.13,11044.444444444445
-0.12,0.115,11047.222222222223
-0.115,0.1,11050.0
-0.13,0.105,11052.777777777777
-0.135,0.13,11055.555555555555
-0.145,0.15,11058.333333333334
-0.145,0.165,11061.111111111111
-0.17,0.185,11063.888888888889
-0.165,0.15,11066.666666666666
-0.175,0.13,11069.444444444445
-0.195,0.12,11072.222222222223
-0.245,0.13,11075.0
-0.29,0.145,11077.777777777777
-0.325,0.145,11080.555555555555
-0.365,0.13,11083.333333333334
-0.395,0.125,11086.111111111111
-0.415,0.135,11088.888888888889
-0.39,0.145,11091.666666666666
-0.39,0.13,11094.444444444445
-0.395,0.115,11097.222222222223
-0.4,0.095,11100.0
-0.42,0.075,11102.777777777777
-0.44,0.095,11105.555555555555
-0.45,0.11,11108.333333333334
-0.47,0.13,11111.111111111111
-0.465,0.125,11113.888888888889
-0.47,0.12,11116.666666666666
-0.48,0.13,11119.444444444445
-0.48,0.105,11122.222222222223
-0.46,0.105,11125.0
-0.45,0.115,11127.777777777777
-0.465,0.12,11130.555555555555
-0.485,0.12,11133.333333333334
-0.495,0.115,11136.111111111111
-0.5,0.13,11138.888888888889
-0.475,0.14,11141.666666666666
-0.45,0.16,11144.444444444445
-0.44,0.135,11147.222222222223
-0.445,0.115,11150.0
-0.46,0.09,11152.777777777777
-0.45,0.105,11155.555555555555
-0.45,0.135,11158.333333333334
-0.425,0.195,11161.111111111111
-0.405,0.185,11163.888888888889
-0.395,0.145,11166.666666666666
-0.37,0.08,11169.444444444445
-0.325,0.035,11172.222222222223
-0.235,0.005,11175.0
-0.115,0.01,11177.777777777777
0.065,0.025,11180.555555555555
0.26,0.05,11183.333333333334
0.485,0.115,11186.111111111111
0.73,0.26,11188.888888888889
0.965,0.45,11191.666666666666
1.12,0.585,11194.444444444445
1.15,0.745,11197.222222222223
0.95,0.83,11200.0
0.59,0.84,11202.777777777777
0.12,0.81,11205.555555555555
-0.305,0.795,11208.333333333334
-0.605,0.815,11211.111111111111
-0.72,0.875,11213.888888888889
-0.715,0.925,11216.666666666666
-0.66,0.995,11219.444444444445
-0.66,1.065,11222.222222222223
-0.685,1.105,11225.0
-0.72,1.15,11227.777777777777
-0.76,1.19,11230.555555555555
-0.795,1.21,11233.333333333334
-0.825,1.235,11236.111111111111
-0.87,1.295,11238.888888888889
-0.85,1.37,11241.666666666666
-0.83,1.445,11244.444444444445
-0.815,1.49,11247.222222222223
-0.83,1.53,11250.0
-0.845,1.525,11252.777777777777
-0.855,1.49,11255.555555555555
-0.855,1.445,11258.333333333334
-0.835,1.36,11261.111111111111
-0.85,1.245,11263.888888888889
-0.845,1.095,11266.666666666666
-0.835,0.945,11269.444444444445
-0.795,0.785,11272.222222222223
-0.735,0.65,11275.0
-0.66,0.5,11277.777777777777
-0.61,0.36,11280.555555555555
-0.57,0.24,11283.333333333334
-0.515,0.17,11286.111111111111
-0.455,0.125,11288.888888888889
-0.395,0.11,11291.666666666666
-0.335,0.12,11294.444444444445
-0.31,0.09,11297.222222222223
-0.295,0.05,11300.0
-0.285,0.035,11302.777777777777
-0.275,0.03,11305.555555555555
-0.245,0.01,11308.333333333334
-0.215,0.005,11311.111111111111
-0.2,-0.025,11313.888888888889
-0.19,-0.075,11316.666666666666
-0.215,-0.055,11319.444444444445
-0.205,-0.06,11322.222222222223
-0.19,-0.045,11325.0
-0.175,-0.04,11327.777777777777
-0.15,-0.055,11330.555555555555
-0.155,-0.09,11333.333333333334
-0.155,-0.11,11336.111111111111
-0.175,-0.135,11338.888888888889
-0.14,-0.135,11341.666666666666
-0.12,-0.12,11344.444444444445
-0.12,-0.12,11347.222222222223
-0.12,-0.145,11350.0
-0.115,-0.15,11352.777777777777
-0.105,-0.145,11355.555555555555
-0.09,-0.16,11358.333333333334
-0.065,-0.16,11361.111111111111
-0.04,-0.19,11363.888888888889
-0.045,-0.215,11366.666666666666
-0.06,-0.26,11369.444444444445
-0.06,-0.27,11372.222222222223
-0.035,-0.245,11375.0
-0.005,-0.255,11377.777777777777
0.01,-0.265,11380.555555555555
0.02,-0.28,11383.333333333334
0.025,-0.32,11386.111111111111
0.04,-0.35,11388.888888888889
0.055,-0.365,11391.666666666666
0.08,-0.375,11394.444444444445
0.095,-0.39,11397.222222222223
0.095,-0.435,11400.0
0.09,-0.46,11402.777777777777
0.115,-0.45,11405.555555555555
0.135,-0.45,11408.333333333334
0.18,-0.46,11411.111111111111
0.2,-0.465,11413.888888888889
0.22,-0.505,11416.666666666666
0.22,-0.53,11419.444444444445
0.21,-0.54,11422.222222222223
0.225,-0.53,11425.0
0.25,-0.49,11427.777777777777
0.255,-0.51,11430.555555555555
0.25,-0.505,11433.333333333334
0.255,-0.49,11436.111111111111
0.285,-0.48,11438.888888888889
0.3,-0.455,11441.666666666666
0.32,-0.44,11444.444444444445
0.32,-0.425,11447.222222222223
0.305,-0.4,11450.0
0.28,-0.4,11452.777777777777
0.26,-0.36,11455.555555555555
0.235,-0.31,11458.333333333334
0.23,-0.27,11461.111111111111
