MLII,V1,time_ms
-0.01,-0.615,0.0
-0.01,-0.615,2.7777777777777777
-0.01,-0.615,5.555555555555555
-0.01,-0.615,8.333333333333334
-0.01,-0.615,11.11111111111111
-0.01,-0.615,13.88888888888889
-0.01,-0.615,16.666666666666668
-0.01,-0.615,19.444444444444443
-0.01,-0.62,22.22222222222222
-0.035,-0.61,25.0
-0.07,-0.595,27.77777777777778
-0.1,-0.555,30.555555555555557
-0.125,-0.555,33.333333333333336
-0.15,-0.53,36.111111111111114
-0.16,-0.525,38.888888888888886
-0.175,-0.525,41.666666666666664
-0.18,-0.51,44.44444444444444
-0.195,-0.505,47.22222222222222
-0.225,-0.495,50.0
-0.255,-0.485,52.77777777777778
-0.31,-0.485,55.55555555555556
-0.34,-0.48,58.333333333333336
-0.37,-0.485,61.111111111111114
-0.385,-0.475,63.888888888888886
-0.4,-0.475,66.66666666666667
-0.405,-0.44,69.44444444444444
-0.395,-0.39,72.22222222222223
-0.395,-0.37,75.0
-0.39,-0.35,77.77777777777777
-0.395,-0.325,80.55555555555556
-0.385,-0.305,83.33333333333333
-0.39,-0.29,86.11111111111111
-0.395,-0.265,88.88888888888889
-0.395,-0.255,91.66666666666667
-0.415,-0.26,94.44444444444444
-0.41,-0.26,97.22222222222223
-0.4,-0.27,100.0
-0.355,-0.305,102.77777777777777
-0.32,-0.33,105.55555555555556
-0.275,-0.35,108.33333333333333
-0.215,-0.37,111.11111111111111
-0.16,-0.42,113.88888888888889
-0.135,-0.45,116.66666666666667
-0.12,-0.49,119.44444444444444
-0.115,-0.525,122.22222222222223
-0.105,-0.55,125.0
-0.09,-0.57,127.77777777777777
-0.08,-0.58,130.55555555555554
-0.075,-0.58,133.33333333333334
-0.05,-0.57,136.11111111111111
-0.055,-0.585,138.88888888888889
-0.085,-0.58,141.66666666666666
-0.13,-0.595,144.44444444444446
-0.19,-0.605,147.22222222222223
-0.265,-0.605,150.0
-0.325,-0.64,152.77777777777777
-0.38,-0.665,155.55555555555554
-0.425,-0.675,158.33333333333334
-0.45,-0.7,161.11111111111111
-0.465,-0.69,163.88888888888889
-0.5,-0.68,166.66666666666666
-0.5,-0.66,169.44444444444446
-0.5,-0.675,172.22222222222223
-0.49,-0.665,175.0
-0.475,-0.66,177.77777777777777
-0.47,-0.67,180.55555555555554
-0.475,-0.69,183.33333333333334
-0.485,-0.71,186.11111111111111
-0.485,-0.705,188.88888888888889
-0.505,-0.705,191.66666666666666
-0.505,-0.7,194.44444444444446
-0.51,-0.69,197.22222222222223
-0.495,-0.69,200.0
-0.49,-0.69,202.77777777777777
-0.485,-0.685,205.55555555555554
-0.48,-0.68,208.33333333333334
-0.5,-0.675,211.11111111111111
-0.505,-0.675,213.88888888888889
-0.5,-0.65,216.66666666666666
-0.49,-0.64,219.44444444444446
-0.49,-0.61,222.22222222222223
-0.485,-0.57,225.0
-0.505,-0.53,227.77777777777777
-0.53,-0.52,230.55555555555554
-0.56,-0.585,233.33333333333334
-0.56,-0.775,236.11111111111111
-0.505,-1.065,238.88888888888889
-0.38,-1.455,241.66666666666666
-0.175,-1.87,244.44444444444446
0.105,-2.24,247.22222222222223
0.445,-2.505,250.0
0.815,-2.68,252.77777777777777
1.215,-2.74,255.55555555555554
1.575,-2.735,258.3333333333333
1.855,-2.7,261.1111111111111
1.965,-2.65,263.8888888888889
1.88,-2.6,266.6666666666667
1.62,-2.545,269.44444444444446
1.26,-2.465,272.22222222222223
0.86,-2.37,275.0
0.43,-2.205,277.77777777777777
0.01,-1.965,280.55555555555554
-0.375,-1.655,283.3333333333333
-0.72,-1.38,286.1111111111111
-1.01,-1.16,288.8888888888889
-1.21,-1.03,291.6666666666667
-1.325,-0.97,294.44444444444446
-1.32,-0.93,297.22222222222223
-1.23,-0.915,300.0
-1.1,-0.88,302.77777777777777
-0.96,-0.86,305.55555555555554
-0.845,-0.82,308.3333333333333
-0.78,-0.785,311.1111111111111
-0.75,-0.765,313.8888888888889
-0.76,-0.755,316.6666666666667
-0.8,-0.75,319.44444444444446
-0.85,-0.76,322.22222222222223
-0.885,-0.765,325.0
-0.905,-0.76,327.77777777777777
-0.9,-0.745,330.55555555555554
-0.905,-0.73,333.3333333333333
-0.895,-0.715,336.1111111111111
-0.905,-0.705,338.8888888888889
-0.92,-0.685,341.6666666666667
-0.93,-0.665,344.44444444444446
-0.935,-0.665,347.22222222222223
-0.93,-0.65,350.0
-0.92,-0.66,352.77777777777777
-0.91,-0.655,355.55555555555554
-0.905,-0.645,358.3333333333333
-0.92,-0.65,361.1111111111111
-0.925,-0.64,363.8888888888889
-0.94,-0.615,366.6666666666667
-0.94,-0.61,369.44444444444446
-0.935,-0.59,372.22222222222223
-0.93,-0.58,375.0
-0.915,-0.555,377.77777777777777
-0.9,-0.53,380.55555555555554
-0.885,-0.51,383.3333333333333
-0.89,-0.51,386.1111111111111
-0.905,-0.505,388.8888888888889
-0.91,-0.505,391.6666666666667
-0.905,-0.49,394.44444444444446
-0.885,-0.46,397.22222222222223
-0.85,-0.44,400.0
-0.815,-0.405,402.77777777777777
-0.795,-0.385,405.55555555555554
-0.775,-0.365,408.3333333333333
-0.77,-0.355,411.1111111111111
-0.755,-0.345,413.8888888888889
-0.73,-0.33,416.6666666666667
-0.71,-0.345,419.44444444444446
-0.675,-0.315,422.22222222222223
-0.64,-0.315,425.0
-0.615,-0.31,427.77777777777777
-0.585,-0.28,430.55555555555554
-0.56,-0.28,433.3333333333333
-0.54,-0.26,436.1111111111111
-0.515,-0.255,438.8888888888889
-0.48,-0.25,441.6666666666667
-0.44,-0.235,444.44444444444446
-0.395,-0.235,447.22222222222223
-0.355,-0.225,450.0
-0.33,-0.22,452.77777777777777
-0.3,-0.225,455.55555555555554
-0.28,-0.24,458.3333333333333
-0.26,-0.255,461.1111111111111
-0.24,-0.26,463.8888888888889
-0.21,-0.27,466.6666666666667
-0.155,-0.27,469.44444444444446
-0.105,-0.26,472.22222222222223
-0.06,-0.255,475.0
-0.025,-0.27,477.77777777777777
0.01,-0.275,480.55555555555554
0.045,-0.3,483.3333333333333
0.07,-0.315,486.1111111111111
0.1,-0.35,488.8888888888889
0.15,-0.385,491.6666666666667
0.18,-0.4,494.44444444444446
0.22,-0.41,497.22222222222223
0.255,-0.42,500.0
0.275,-0.41,502.77777777777777
0.3,-0.39,505.55555555555554
0.31,-0.375,508.3333333333333
0.325,-0.36,511.1111111111111
0.36,-0.355,513.8888888888889
0.39,-0.35,516.6666666666666
0.4,-0.33,519.4444444444445
0.38,-0.33,522.2222222222222
0.365,-0.32,525.0
0.335,-0.325,527.7777777777778
0.3,-0.335,530.5555555555555
0.275,-0.35,533.3333333333334
0.25,-0.375,536.1111111111111
0.23,-0.375,538.8888888888889
0.185,-0.38,541.6666666666666
0.125,-0.37,544.4444444444445
0.09,-0.355,547.2222222222222
0.035,-0.335,550.0
-0.01,-0.33,552.7777777777778
-0.065,-0.31,555.5555555555555
-0.105,-0.29,558.3333333333334
-0.145,-0.27,561.1111111111111
-0.175,-0.245,563.8888888888889
-0.205,-0.215,566.6666666666666
-0.23,-0.205,569.4444444444445
-0.255,-0.2,572.2222222222222
-0.265,-0.21,575.0
-0.275,-0.225,577.7777777777778
-0.275,-0.26,580.5555555555555
-0.265,-0.295,583.3333333333334
-0.265,-0.335,586.1111111111111
-0.275,-0.37,588.8888888888889
-0.315,-0.375,591.6666666666666
-0.355,-0.405,594.4444444444445
-0.405,-0.4,597.2222222222222
-0.445,-0.41,600.0
-0.455,-0.425,602.7777777777778
-0.47,-0.43,605.5555555555555
-0.475,-0.455,608.3333333333334
-0.49,-0.475,611.1111111111111
-0.5,-0.49,613.8888888888889
-0.515,-0.505,616.6666666666666
-0.525,-0.51,619.4444444444445
-0.555,-0.52,622.2222222222222
-0.55,-0.535,625.0
-0.555,-0.545,627.7777777777778
-0.555,-0.57,630.5555555555555
-0.55,-0.575,633.3333333333334
-0.545,-0.575,636.1111111111111
-0.54,-0.57,638.8888888888889
-0.53,-0.58,641.6666666666666
-0.515,-0.58,644.4444444444445
-0.505,-0.575,647.2222222222222
-0.49,-0.59,650.0
-0.475,-0.585,652.7777777777778
-0.465,-0.595,655.5555555555555
-0.48,-0.565,658.3333333333334
-0.49,-0.555,661.1111111111111
-0.52,-0.545,663.8888888888889
-0.54,-0.555,666.6666666666666
-0.55,-0.625,669.4444444444445
-0.535,-0.775,672.2222222222222
-0.48,-1.03,675.0
-0.375,-1.325,677.7777777777778
-0.21,-1.655,680.5555555555555
0.005,-1.955,683.3333333333334
0.29,-2.2,686.1111111111111
0.655,-2.37,688.8888888888889
1.08,-2.455,691.6666666666666
1.51,-2.505,694.4444444444445
1.865,-2.525,697.2222222222222
2.11,-2.53,700.0
2.175,-2.52,702.7777777777778
2.065,-2.53,705.5555555555555
1.815,-2.53,708.3333333333334
1.51,-2.5,711.1111111111111
1.155,-2.41,713.8888888888889
0.775,-2.195,716.6666666666666
0.41,-1.89,719.4444444444445
0.045,-1.55,722.2222222222222
-0.36,-1.26,725.0
-0.72,-1.065,727.7777777777778
-1.0,-0.945,730.5555555555555
-1.14,-0.895,733.3333333333334
-1.165,-0.88,736.1111111111111
-1.06,-0.87,738.8888888888889
-0.92,-0.855,741.6666666666666
-0.795,-0.825,744.4444444444445
-0.715,-0.815,747.2222222222222
-0.705,-0.795,750.0
-0.745,-0.795,752.7777777777778
-0.8,-0.79,755.5555555555555
-0.87,-0.8,758.3333333333334
-0.895,-0.785,761.1111111111111
-0.91,-0.78,763.8888888888889
-0.93,-0.755,766.6666666666666
-0.91,-0.735,769.4444444444445
-0.905,-0.72,772.2222222222222
-0.92,-0.705,775.0
-0.93,-0.69,777.7777777777778
-0.95,-0.675,780.5555555555555
-0.955,-0.66,783.3333333333334
-0.975,-0.645,786.1111111111111
-0.99,-0.63,788.8888888888889
-1.025,-0.625,791.6666666666666
-1.04,-0.625,794.4444444444445
-1.065,-0.62,797.2222222222222
-1.07,-0.605,800.0
-1.08,-0.59,802.7777777777778
-1.065,-0.56,805.5555555555555
-1.055,-0.54,808.3333333333334
-1.05,-0.51,811.1111111111111
-1.045,-0.495,813.8888888888889
-1.065,-0.495,816.6666666666666
-1.065,-0.485,819.4444444444445
-1.09,-0.49,822.2222222222222
-1.105,-0.48,825.0
-1.11,-0.445,827.7777777777778
-1.1,-0.43,830.5555555555555
-1.1,-0.405,833.3333333333334
-1.1,-0.38,836.1111111111111
-1.075,-0.36,838.8888888888889
-1.065,-0.355,841.6666666666666
-1.045,-0.345,844.4444444444445
-1.025,-0.345,847.2222222222222
-1.0,-0.32,850.0
-0.98,-0.325,852.7777777777778
-0.945,-0.3,855.5555555555555
-0.915,-0.305,858.3333333333334
-0.895,-0.295,861.1111111111111
-0.88,-0.305,863.8888888888889
-0.85,-0.315,866.6666666666666
-0.805,-0.32,869.4444444444445
-0.75,-0.31,872.2222222222222
-0.695,-0.305,875.0
-0.63,-0.29,877.7777777777778
-0.59,-0.3,880.5555555555555
-0.55,-0.29,883.3333333333334
-0.515,-0.31,886.1111111111111
-0.505,-0.355,888.8888888888889
-0.45,-0.38,891.6666666666666
-0.4,-0.4,894.4444444444445
-0.365,-0.41,897.2222222222222
-0.315,-0.425,900.0
-0.275,-0.44,902.7777777777778
-0.23,-0.44,905.5555555555555
-0.185,-0.46,908.3333333333334
-0.145,-0.485,911.1111111111111
-0.105,-0.5,913.8888888888889
-0.06,-0.53,916.6666666666666
-0.02,-0.54,919.4444444444445
0.0,-0.56,922.2222222222222
-0.015,-0.56,925.0
-0.015,-0.565,927.7777777777778
-0.02,-0.56,930.5555555555555
-0.015,-0.575,933.3333333333334
-0.005,-0.58,936.1111111111111
0.0,-0.585,938.8888888888889
0.0,-0.585,941.6666666666666
-0.005,-0.57,944.4444444444445
-0.015,-0.57,947.2222222222222
-0.04,-0.575,950.0
-0.075,-0.575,952.7777777777778
-0.09,-0.59,955.5555555555555
-0.11,-0.595,958.3333333333334
-0.135,-0.61,961.1111111111111
-0.17,-0.6,963.8888888888889
-0.195,-0.59,966.6666666666666
-0.205,-0.575,969.4444444444445
-0.24,-0.555,972.2222222222222
-0.245,-0.54,975.0
-0.25,-0.525,977.7777777777778
-0.25,-0.535,980.5555555555555
-0.26,-0.555,983.3333333333334
-0.295,-0.545,986.1111111111111
-0.325,-0.53,988.8888888888889
-0.355,-0.525,991.6666666666666
-0.39,-0.52,994.4444444444445
-0.41,-0.495,997.2222222222222
-0.43,-0.48,1000.0
-0.435,-0.465,1002.7777777777778
-0.455,-0.455,1005.5555555555555
-0.46,-0.44,1008.3333333333334
-0.495,-0.425,1011.1111111111111
-0.49,-0.425,1013.8888888888889
-0.515,-0.42,1016.6666666666666
-0.53,-0.42,1019.4444444444445
-0.545,-0.435,1022.2222222222222
-0.555,-0.455,1025.0
-0.575,-0.445,1027.7777777777778
-0.575,-0.45,1030.5555555555557
-0.6,-0.45,1033.3333333333333
-0.6,-0.45,1036.111111111111
-0.605,-0.445,1038.888888888889
-0.605,-0.455,1041.6666666666667
-0.585,-0.455,1044.4444444444443
-0.555,-0.455,1047.2222222222222
-0.555,-0.465,1050.0
-0.555,-0.475,1052.7777777777778
-0.565,-0.475,1055.5555555555557
-0.59,-0.485,1058.3333333333333
-0.6,-0.485,1061.111111111111
-0.6,-0.5,1063.888888888889
-0.605,-0.515,1066.6666666666667
-0.595,-0.515,1069.4444444444443
-0.595,-0.52,1072.2222222222222
-0.575,-0.52,1075.0
-0.595,-0.515,1077.7777777777778
-0.59,-0.5,1080.5555555555557
-0.585,-0.505,1083.3333333333333
-0.59,-0.51,1086.111111111111
-0.6,-0.51,1088.888888888889
-0.6,-0.52,1091.6666666666667
-0.595,-0.535,1094.4444444444443
-0.605,-0.555,1097.2222222222222
-0.63,-0.56,1100.0
-0.63,-0.54,1102.7777777777778
-0.625,-0.535,1105.5555555555557
-0.595,-0.53,1108.3333333333333
-0.58,-0.525,1111.111111111111
-0.56,-0.515,1113.888888888889
-0.565,-0.525,1116.6666666666667
-0.575,-0.535,1119.4444444444443
-0.6,-0.535,1122.2222222222222
-0.62,-0.55,1125.0
-0.64,-0.545,1127.7777777777778
-0.615,-0.535,1130.5555555555557
-0.61,-0.52,1133.3333333333333
-0.6,-0.49,1136.111111111111
-0.58,-0.465,1138.888888888889
-0.575,-0.435,1141.6666666666667
-0.565,-0.415,1144.4444444444443
-0.555,-0.37,1147.2222222222222
-0.55,-0.325,1150.0
-0.545,-0.28,1152.7777777777778
-0.555,-0.25,1155.5555555555557
-0.555,-0.23,1158.3333333333333
-0.545,-0.25,1161.111111111111
-0.555,-0.285,1163.888888888889
-0.55,-0.325,1166.6666666666667
-0.535,-0.365,1169.4444444444443
-0.495,-0.395,1172.2222222222222
-0.455,-0.405,1175.0
-0.405,-0.415,1177.7777777777778
-0.365,-0.43,1180.5555555555557
-0.34,-0.455,1183.3333333333333
-0.325,-0.475,1186.111111111111
-0.32,-0.5,1188.888888888889
-0.315,-0.53,1191.6666666666667
-0.315,-0.55,1194.4444444444443
-0.3,-0.545,1197.2222222222222
-0.29,-0.525,1200.0
-0.28,-0.525,1202.7777777777778
-0.285,-0.525,1205.5555555555557
-0.29,-0.54,1208.3333333333333
-0.305,-0.555,1211.111111111111
-0.34,-0.59,1213.888888888889
-0.39,-0.6,1216.6666666666667
-0.445,-0.625,1219.4444444444443
-0.5,-0.64,1222.2222222222222
-0.565,-0.64,1225.0
-0.615,-0.645,1227.7777777777778
-0.66,-0.635,1230.5555555555557
-0.695,-0.645,1233.3333333333333
-0.7,-0.65,1236.111111111111
-0.68,-0.645,1238.888888888889
-0.665,-0.63,1241.6666666666667
-0.645,-0.62,1244.4444444444443
-0.625,-0.62,1247.2222222222222
-0.63,-0.62,1250.0
-0.63,-0.625,1252.7777777777778
-0.655,-0.63,1255.5555555555557
-0.665,-0.655,1258.3333333333333
-0.675,-0.66,1261.111111111111
-0.68,-0.675,1263.888888888889
-0.675,-0.665,1266.6666666666667
-0.665,-0.65,1269.4444444444443
-0.66,-0.635,1272.2222222222222
-0.66,-0.62,1275.0
-0.66,-0.605,1277.7777777777778
-0.66,-0.58,1280.5555555555557
-0.675,-0.565,1283.3333333333333
-0.665,-0.52,1286.111111111111
-0.68,-0.475,1288.888888888889
-0.685,-0.44,1291.6666666666667
-0.72,-0.475,1294.4444444444443
-0.745,-0.585,1297.2222222222222
-0.735,-0.805,1300.0
-0.67,-1.13,1302.7777777777778
-0.53,-1.51,1305.5555555555557
-0.295,-1.895,1308.3333333333333
-0.01,-2.235,1311.111111111111
0.35,-2.505,1313.888888888889
0.77,-2.685,1316.6666666666667
1.22,-2.77,1319.4444444444443
1.61,-2.79,1322.2222222222222
1.885,-2.77,1325.0
1.975,-2.72,1327.7777777777778
1.865,-2.66,1330.5555555555557
1.58,-2.575,1333.3333333333333
1.195,-2.46,1336.111111111111
0.755,-2.25,1338.888888888889
0.31,-1.935,1341.6666666666667
-0.11,-1.56,1344.4444444444443
-0.52,-1.235,1347.2222222222222
-0.88,-1.0,1350.0
-1.15,-0.87,1352.7777777777778
-1.31,-0.83,1355.5555555555557
-1.32,-0.835,1358.3333333333333
-1.235,-0.845,1361.111111111111
-1.11,-0.84,1363.888888888889
-0.985,-0.845,1366.6666666666667
-0.895,-0.81,1369.4444444444443
-0.86,-0.795,1372.2222222222222
-0.875,-0.78,1375.0
-0.91,-0.755,1377.7777777777778
-0.955,-0.735,1380.5555555555557
-0.995,-0.715,1383.3333333333333
-1.02,-0.71,1386.111111111111
-1.025,-0.71,1388.888888888889
-1.02,-0.72,1391.6666666666667
-1.02,-0.72,1394.4444444444443
-1.03,-0.72,1397.2222222222222
-1.04,-0.695,1400.0
-1.055,-0.675,1402.7777777777778
-1.07,-0.64,1405.5555555555557
-1.08,-0.63,1408.3333333333333
-1.085,-0.605,1411.111111111111
-1.085,-0.6,1413.888888888889
-1.075,-0.6,1416.6666666666667
-1.08,-0.59,1419.4444444444443
-1.085,-0.585,1422.2222222222222
-1.1,-0.59,1425.0
-1.12,-0.575,1427.7777777777778
-1.125,-0.57,1430.5555555555557
-1.125,-0.545,1433.3333333333333
-1.125,-0.54,1436.111111111111
-1.11,-0.54,1438.888888888889
-1.085,-0.525,1441.6666666666667
-1.065,-0.49,1444.4444444444443
-1.085,-0.47,1447.2222222222222
-1.07,-0.47,1450.0
-1.05,-0.46,1452.7777777777778
-1.045,-0.445,1455.5555555555557
-1.03,-0.45,1458.3333333333333
-1.025,-0.46,1461.111111111111
-1.005,-0.44,1463.888888888889
-0.99,-0.42,1466.6666666666667
-0.99,-0.4,1469.4444444444443
-0.975,-0.37,1472.2222222222222
-0.95,-0.33,1475.0
-0.92,-0.305,1477.7777777777778
-0.89,-0.3,1480.5555555555557
-0.855,-0.285,1483.3333333333333
-0.82,-0.28,1486.111111111111
-0.825,-0.285,1488.888888888889
-0.805,-0.265,1491.6666666666667
-0.795,-0.245,1494.4444444444443
-0.77,-0.215,1497.2222222222222
-0.75,-0.19,1500.0
-0.705,-0.18,1502.7777777777778
-0.645,-0.145,1505.5555555555557
-0.615,-0.14,1508.3333333333333
-0.58,-0.12,1511.111111111111
-0.545,-0.115,1513.888888888889
-0.51,-0.105,1516.6666666666667
-0.485,-0.1,1519.4444444444443
-0.44,-0.09,1522.2222222222222
-0.4,-0.095,1525.0
-0.375,-0.09,1527.7777777777778
-0.345,-0.08,1530.5555555555557
-0.315,-0.07,1533.3333333333333
-0.295,-0.07,1536.111111111111
-0.265,-0.075,1538.888888888889
-0.22,-0.055,1541.6666666666667
-0.175,-0.045,1544.4444444444443
-0.13,-0.045,1547.2222222222222
-0.085,-0.05,1550.0
-0.055,-0.06,1552.7777777777778
-0.02,-0.085,1555.5555555555557
0.0,-0.1,1558.3333333333333
0.015,-0.11,1561.111111111111
0.03,-0.12,1563.888888888889
0.055,-0.14,1566.6666666666667
0.085,-0.155,1569.4444444444443
0.135,-0.17,1572.2222222222222
0.14,-0.19,1575.0
0.18,-0.215,1577.7777777777778
0.185,-0.225,1580.5555555555557
0.19,-0.275,1583.3333333333333
0.185,-0.285,1586.111111111111
0.2,-0.325,1588.888888888889
0.22,-0.34,1591.6666666666667
0.215,-0.375,1594.4444444444443
0.215,-0.395,1597.2222222222222
0.195,-0.405,1600.0
0.19,-0.42,1602.7777777777778
0.165,-0.435,1605.5555555555557
0.155,-0.425,1608.3333333333333
0.15,-0.425,1611.111111111111
0.155,-0.435,1613.888888888889
0.125,-0.445,1616.6666666666667
0.105,-0.45,1619.4444444444443
0.085,-0.47,1622.2222222222222
0.045,-0.485,1625.0
0.0,-0.485,1627.7777777777778
-0.035,-0.49,1630.5555555555557
-0.05,-0.47,1633.3333333333333
-0.09,-0.45,1636.111111111111
-0.105,-0.45,1638.888888888889
-0.13,-0.43,1641.6666666666667
-0.145,-0.44,1644.4444444444443
-0.17,-0.445,1647.2222222222222
-0.205,-0.44,1650.0
-0.235,-0.435,1652.7777777777778
-0.265,-0.435,1655.5555555555557
-0.275,-0.43,1658.3333333333333
-0.3,-0.435,1661.111111111111
-0.32,-0.435,1663.888888888889
-0.35,-0.42,1666.6666666666667
-0.36,-0.42,1669.4444444444443
-0.375,-0.41,1672.2222222222222
-0.38,-0.395,1675.0
-0.36,-0.37,1677.7777777777778
-0.345,-0.34,1680.5555555555557
-0.345,-0.32,1683.3333333333333
-0.335,-0.285,1686.111111111111
-0.35,-0.27,1688.888888888889
-0.375,-0.255,1691.6666666666667
-0.39,-0.255,1694.4444444444443
-0.4,-0.255,1697.2222222222222
-0.39,-0.255,1700.0
-0.37,-0.27,1702.7777777777778
-0.34,-0.28,1705.5555555555557
-0.31,-0.295,1708.3333333333333
-0.285,-0.32,1711.111111111111
-0.25,-0.355,1713.888888888889
-0.23,-0.4,1716.6666666666667
-0.215,-0.44,1719.4444444444443
-0.2,-0.5,1722.2222222222222
-0.18,-0.52,1725.0
-0.16,-0.53,1727.7777777777778
-0.155,-0.54,1730.5555555555557
-0.15,-0.535,1733.3333333333333
-0.145,-0.545,1736.111111111111
-0.15,-0.545,1738.888888888889
-0.14,-0.55,1741.6666666666667
-0.145,-0.55,1744.4444444444443
-0.16,-0.57,1747.2222222222222
-0.2,-0.58,1750.0
-0.25,-0.59,1752.7777777777778
-0.315,-0.6,1755.5555555555557
-0.4,-0.61,1758.3333333333333
-0.455,-0.635,1761.111111111111
-0.505,-0.655,1763.888888888889
-0.54,-0.67,1766.6666666666667
-0.55,-0.675,1769.4444444444443
-0.575,-0.675,1772.2222222222222
-0.56,-0.655,1775.0
-0.565,-0.65,1777.7777777777778
-0.57,-0.645,1780.5555555555557
-0.565,-0.66,1783.3333333333333
-0.57,-0.665,1786.111111111111
-0.58,-0.68,1788.888888888889
-0.575,-0.695,1791.6666666666667
-0.58,-0.7,1794.4444444444443
-0.585,-0.705,1797.2222222222222
-0.605,-0.69,1800.0
-0.605,-0.685,1802.7777777777778
-0.595,-0.69,1805.5555555555557
-0.585,-0.695,1808.3333333333333
-0.57,-0.685,1811.111111111111
-0.565,-0.7,1813.888888888889
-0.545,-0.7,1816.6666666666667
-0.545,-0.685,1819.4444444444443
-0.555,-0.665,1822.2222222222222
-0.565,-0.64,1825.0
-0.585,-0.595,1827.7777777777778
-0.595,-0.56,1830.5555555555557
-0.61,-0.52,1833.3333333333333
-0.62,-0.545,1836.111111111111
-0.63,-0.635,1838.888888888889
-0.62,-0.825,1841.6666666666667
-0.555,-1.105,1844.4444444444443
-0.415,-1.465,1847.2222222222222
-0.21,-1.87,1850.0
0.035,-2.24,1852.7777777777778
0.345,-2.545,1855.5555555555557
0.69,-2.78,1858.3333333333333
1.06,-2.895,1861.111111111111
1.43,-2.94,1863.888888888889
1.745,-2.93,1866.6666666666667
1.9,-2.885,1869.4444444444443
1.85,-2.815,1872.2222222222222
1.635,-2.745,1875.0
1.29,-2.665,1877.7777777777778
0.855,-2.55,1880.5555555555557
0.395,-2.335,1883.3333333333333
-0.045,-1.995,1886.111111111111
-0.445,-1.61,1888.888888888889
-0.77,-1.28,1891.6666666666667
-1.04,-1.065,1894.4444444444443
-1.22,-0.945,1897.2222222222222
-1.31,-0.89,1900.0
-1.3,-0.9,1902.7777777777778
-1.19,-0.9,1905.5555555555557
-1.06,-0.895,1908.3333333333333
-0.93,-0.875,1911.111111111111
-0.845,-0.85,1913.888888888889
-0.805,-0.84,1916.6666666666667
-0.82,-0.825,1919.4444444444443
-0.845,-0.82,1922.2222222222222
-0.885,-0.81,1925.0
-0.92,-0.8,1927.7777777777778
-0.95,-0.81,1930.5555555555557
-0.965,-0.8,1933.3333333333333
-0.975,-0.77,1936.111111111111
-0.99,-0.765,1938.888888888889
-0.98,-0.75,1941.6666666666667
-0.985,-0.735,1944.4444444444443
-0.965,-0.725,1947.2222222222222
-0.965,-0.725,1950.0
-0.965,-0.72,1952.7777777777778
-0.985,-0.71,1955.5555555555557
-0.995,-0.71,1958.3333333333333
-1.03,-0.695,1961.111111111111
-1.05,-0.68,1963.888888888889
-1.06,-0.665,1966.6666666666667
-1.055,-0.67,1969.4444444444443
-1.06,-0.64,1972.2222222222222
-1.055,-0.62,1975.0
-1.065,-0.625,1977.7777777777778
-1.055,-0.605,1980.5555555555557
-1.06,-0.605,1983.3333333333333
-1.06,-0.59,1986.111111111111
-1.055,-0.57,1988.888888888889
-1.045,-0.56,1991.6666666666667
-1.04,-0.56,1994.4444444444443
-1.05,-0.55,1997.2222222222222
-1.055,-0.54,2000.0
-1.06,-0.51,2002.7777777777778
-1.055,-0.505,2005.5555555555557
-1.035,-0.47,2008.3333333333333
-1.015,-0.45,2011.111111111111
-0.995,-0.425,2013.888888888889
-0.955,-0.41,2016.6666666666667
-0.925,-0.405,2019.4444444444443
-0.91,-0.4,2022.2222222222222
-0.91,-0.395,2025.0
-0.875,-0.39,2027.7777777777778
-0.87,-0.375,2030.5555555555557
-0.835,-0.365,2033.3333333333333
-0.795,-0.33,2036.111111111111
-0.745,-0.305,2038.888888888889
-0.705,-0.295,2041.6666666666667
-0.655,-0.28,2044.4444444444443
-0.635,-0.265,2047.2222222222222
-0.6,-0.26,2050.0
-0.57,-0.255,2052.777777777778
-0.535,-0.25,2055.5555555555557
-0.505,-0.245,2058.3333333333335
-0.46,-0.225,2061.1111111111113
-0.41,-0.23,2063.8888888888887
-0.37,-0.215,2066.6666666666665
-0.335,-0.22,2069.4444444444443
-0.285,-0.22,2072.222222222222
-0.245,-0.225,2075.0
-0.205,-0.235,2077.777777777778
-0.155,-0.235,2080.5555555555557
-0.105,-0.24,2083.3333333333335
-0.055,-0.24,2086.1111111111113
-0.025,-0.245,2088.8888888888887
0.0,-0.245,2091.6666666666665
0.02,-0.265,2094.4444444444443
0.04,-0.29,2097.222222222222
0.06,-0.315,2100.0
0.09,-0.345,2102.777777777778
0.12,-0.35,2105.5555555555557
0.155,-0.35,2108.3333333333335
0.185,-0.35,2111.1111111111113
0.21,-0.35,2113.8888888888887
0.21,-0.37,2116.6666666666665
0.2,-0.395,2119.4444444444443
0.21,-0.41,2122.222222222222
0.185,-0.44,2125.0
0.2,-0.46,2127.777777777778
0.195,-0.47,2130.5555555555557
0.19,-0.465,2133.3333333333335
0.19,-0.485,2136.1111111111113
0.17,-0.5,2138.8888888888887
0.16,-0.515,2141.6666666666665
0.14,-0.515,2144.4444444444443
0.135,-0.525,2147.222222222222
0.12,-0.555,2150.0
0.1,-0.555,2152.777777777778
0.095,-0.56,2155.5555555555557
0.075,-0.565,2158.3333333333335
0.04,-0.58,2161.1111111111113
0.005,-0.585,2163.8888888888887
-0.025,-0.59,2166.6666666666665
-0.05,-0.585,2169.4444444444443
-0.075,-0.575,2172.222222222222
-0.08,-0.565,2175.0
-0.095,-0.555,2177.777777777778
-0.095,-0.54,2180.5555555555557
-0.115,-0.545,2183.3333333333335
-0.145,-0.53,2186.1111111111113
-0.18,-0.53,2188.8888888888887
-0.21,-0.55,2191.6666666666665
-0.245,-0.545,2194.4444444444443
-0.27,-0.54,2197.222222222222
-0.275,-0.53,2200.0
-0.305,-0.515,2202.777777777778
-0.325,-0.495,2205.5555555555557
-0.345,-0.475,2208.3333333333335
-0.365,-0.455,2211.1111111111113
-0.38,-0.445,2213.8888888888887
-0.39,-0.445,2216.6666666666665
-0.4,-0.45,2219.4444444444443
-0.41,-0.445,2222.222222222222
-0.42,-0.425,2225.0
-0.435,-0.4,2227.777777777778
-0.445,-0.38,2230.5555555555557
-0.47,-0.355,2233.3333333333335
-0.485,-0.33,2236.1111111111113
-0.49,-0.305,2238.8888888888887
-0.495,-0.27,2241.6666666666665
-0.485,-0.25,2244.4444444444443
-0.475,-0.26,2247.222222222222
-0.45,-0.27,2250.0
-0.435,-0.295,2252.777777777778
-0.43,-0.325,2255.5555555555557
-0.41,-0.37,2258.3333333333335
-0.385,-0.405,2261.1111111111113
-0.345,-0.445,2263.8888888888887
-0.32,-0.47,2266.6666666666665
-0.29,-0.505,2269.4444444444443
-0.26,-0.535,2272.222222222222
-0.24,-0.555,2275.0
-0.225,-0.55,2277.777777777778
-0.215,-0.555,2280.5555555555557
-0.195,-0.57,2283.3333333333335
-0.19,-0.585,2286.1111111111113
-0.185,-0.595,2288.8888888888887
-0.19,-0.62,2291.6666666666665
-0.195,-0.615,2294.4444444444443
-0.215,-0.64,2297.222222222222
-0.26,-0.64,2300.0
-0.32,-0.645,2302.777777777778
-0.375,-0.645,2305.5555555555557
-0.435,-0.645,2308.3333333333335
-0.47,-0.65,2311.1111111111113
-0.505,-0.655,2313.8888888888887
-0.54,-0.67,2316.6666666666665
-0.57,-0.685,2319.4444444444443
-0.59,-0.695,2322.222222222222
-0.62,-0.715,2325.0
-0.63,-0.72,2327.777777777778
-0.63,-0.73,2330.5555555555557
-0.635,-0.72,2333.3333333333335
-0.61,-0.715,2336.1111111111113
-0.6,-0.705,2338.8888888888887
-0.595,-0.715,2341.6666666666665
-0.58,-0.705,2344.4444444444443
-0.59,-0.695,2347.222222222222
-0.595,-0.7,2350.0
-0.61,-0.69,2352.777777777778
-0.605,-0.72,2355.5555555555557
-0.615,-0.73,2358.3333333333335
-0.61,-0.735,2361.1111111111113
-0.595,-0.76,2363.8888888888887
-0.595,-0.745,2366.6666666666665
-0.595,-0.75,2369.4444444444443
-0.59,-0.735,2372.222222222222
-0.59,-0.72,2375.0
-0.58,-0.685,2377.777777777778
-0.57,-0.63,2380.5555555555557
-0.565,-0.605,2383.3333333333335
-0.57,-0.56,2386.1111111111113
-0.585,-0.565,2388.8888888888887
-0.605,-0.655,2391.6666666666665
-0.605,-0.835,2394.4444444444443
-0.58,-1.145,2397.222222222222
-0.46,-1.535,2400.0
-0.27,-1.965,2402.777777777778
-0.025,-2.34,2405.5555555555557
0.295,-2.645,2408.3333333333335
0.695,-2.855,2411.1111111111113
1.095,-2.975,2413.8888888888887
1.495,-3.035,2416.6666666666665
1.82,-3.04,2419.4444444444443
2.025,-3.04,2422.222222222222
2.055,-3.025,2425.0
1.89,-2.995,2427.777777777778
1.585,-2.95,2430.5555555555557
1.175,-2.895,2433.3333333333335
0.72,-2.795,2436.1111111111113
0.265,-2.605,2438.8888888888887
-0.14,-2.29,2441.6666666666665
-0.485,-1.9,2444.4444444444443
-0.77,-1.51,2447.222222222222
-0.985,-1.205,2450.0
-1.125,-1.03,2452.777777777778
-1.185,-0.955,2455.5555555555557
-1.155,-0.965,2458.3333333333335
-1.075,-0.985,2461.1111111111113
-0.975,-0.995,2463.8888888888887
-0.865,-0.995,2466.6666666666665
-0.775,-0.955,2469.4444444444443
-0.72,-0.925,2472.222222222222
-0.73,-0.89,2475.0
-0.73,-0.865,2477.777777777778
-0.755,-0.86,2480.5555555555557
-0.78,-0.845,2483.3333333333335
-0.8,-0.84,2486.1111111111113
-0.82,-0.85,2488.8888888888887
-0.85,-0.86,2491.6666666666665
-0.865,-0.845,2494.4444444444443
-0.865,-0.825,2497.222222222222
-0.86,-0.805,2500.0
-0.855,-0.79,2502.777777777778
-0.855,-0.765,2505.5555555555557
-0.855,-0.745,2508.3333333333335
-0.85,-0.745,2511.1111111111113
-0.86,-0.735,2513.8888888888887
-0.86,-0.72,2516.6666666666665
-0.865,-0.7,2519.4444444444443
-0.885,-0.7,2522.222222222222
-0.88,-0.69,2525.0
-0.885,-0.685,2527.777777777778
-0.89,-0.675,2530.5555555555557
-0.905,-0.66,2533.3333333333335
-0.91,-0.66,2536.1111111111113
-0.915,-0.64,2538.8888888888887
-0.915,-0.625,2541.6666666666665
-0.91,-0.6,2544.4444444444443
-0.89,-0.565,2547.222222222222
-0.875,-0.56,2550.0
-0.86,-0.545,2552.777777777778
-0.855,-0.54,2555.5555555555557
-0.87,-0.55,2558.3333333333335
-0.87,-0.545,2561.1111111111113
-0.86,-0.545,2563.8888888888887
-0.845,-0.52,2566.6666666666665
-0.825,-0.51,2569.4444444444443
-0.79,-0.48,2572.222222222222
-0.76,-0.445,2575.0
-0.725,-0.415,2577.777777777778
-0.7,-0.39,2580.5555555555557
-0.69,-0.38,2583.3333333333335
-0.665,-0.38,2586.1111111111113
-0.64,-0.38,2588.8888888888887
-0.61,-0.365,2591.6666666666665
-0.58,-0.355,2594.4444444444443
-0.55,-0.345,2597.222222222222
-0.52,-0.315,2600.0
-0.485,-0.29,2602.777777777778
-0.45,-0.27,2605.5555555555557
-0.42,-0.265,2608.3333333333335
-0.38,-0.255,2611.1111111111113
-0.345,-0.245,2613.8888888888887
-0.305,-0.25,2616.6666666666665
-0.27,-0.24,2619.4444444444443
-0.225,-0.23,2622.222222222222
-0.21,-0.215,2625.0
-0.175,-0.235,2627.777777777778
-0.15,-0.245,2630.5555555555557
-0.125,-0.235,2633.3333333333335
-0.085,-0.21,2636.1111111111113
-0.035,-0.22,2638.8888888888887
0.025,-0.225,2641.6666666666665
0.08,-0.2,2644.4444444444443
0.12,-0.2,2647.222222222222
0.155,-0.215,2650.0
0.18,-0.235,2652.777777777778
0.195,-0.25,2655.5555555555557
0.21,-0.27,2658.3333333333335
0.235,-0.295,2661.1111111111113
0.265,-0.335,2663.8888888888887
0.28,-0.34,2666.6666666666665
0.29,-0.345,2669.4444444444443
0.305,-0.365,2672.222222222222
0.3,-0.36,2675.0
0.305,-0.375,2677.777777777778
0.325,-0.395,2680.5555555555557
0.33,-0.435,2683.3333333333335
0.34,-0.45,2686.1111111111113
0.335,-0.47,2688.8888888888887
0.32,-0.485,2691.6666666666665
0.305,-0.505,2694.4444444444443
0.27,-0.525,2697.222222222222
0.24,-0.525,2700.0
0.225,-0.53,2702.777777777778
0.21,-0.525,2705.5555555555557
0.225,-0.555,2708.3333333333335
0.225,-0.56,2711.1111111111113
0.215,-0.565,2713.8888888888887
0.195,-0.58,2716.6666666666665
0.16,-0.575,2719.4444444444443
0.11,-0.58,2722.222222222222
0.075,-0.605,2725.0
0.04,-0.61,2727.777777777778
0.025,-0.63,2730.5555555555557
-0.005,-0.625,2733.3333333333335
-0.03,-0.62,2736.1111111111113
-0.045,-0.61,2738.8888888888887
-0.06,-0.59,2741.6666666666665
-0.065,-0.565,2744.4444444444443
-0.08,-0.565,2747.222222222222
-0.115,-0.565,2750.0
-0.14,-0.565,2752.777777777778
-0.16,-0.565,2755.5555555555557
-0.2,-0.57,2758.3333333333335
-0.235,-0.555,2761.1111111111113
-0.29,-0.55,2763.8888888888887
-0.315,-0.54,2766.6666666666665
-0.345,-0.525,2769.4444444444443
-0.37,-0.515,2772.222222222222
-0.375,-0.51,2775.0
-0.38,-0.495,2777.777777777778
-0.38,-0.51,2780.5555555555557
-0.39,-0.48,2783.3333333333335
-0.42,-0.475,2786.1111111111113
-0.46,-0.46,2788.8888888888887
-0.46,-0.45,2791.6666666666665
-0.46,-0.45,2794.4444444444443
-0.48,-0.425,2797.222222222222
-0.465,-0.41,2800.0
-0.455,-0.4,2802.777777777778
-0.465,-0.37,2805.5555555555557
-0.465,-0.345,2808.3333333333335
-0.465,-0.305,2811.1111111111113
-0.47,-0.29,2813.8888888888887
-0.475,-0.285,2816.6666666666665
-0.445,-0.3,2819.4444444444443
-0.43,-0.325,2822.222222222222
-0.395,-0.35,2825.0
-0.355,-0.37,2827.777777777778
-0.35,-0.375,2830.5555555555557
-0.325,-0.38,2833.3333333333335
-0.31,-0.385,2836.1111111111113
-0.275,-0.415,2838.8888888888887
-0.245,-0.44,2841.6666666666665
-0.19,-0.48,2844.4444444444443
-0.15,-0.525,2847.222222222222
-0.12,-0.555,2850.0
-0.1,-0.59,2852.777777777778
-0.105,-0.595,2855.5555555555557
-0.11,-0.595,2858.3333333333335
-0.13,-0.605,2861.1111111111113
-0.145,-0.6,2863.8888888888887
-0.18,-0.605,2866.6666666666665
-0.215,-0.62,2869.4444444444443
-0.265,-0.625,2872.222222222222
-0.325,-0.64,2875.0
-0.39,-0.63,2877.777777777778
-0.445,-0.655,2880.5555555555557
-0.505,-0.655,2883.3333333333335
-0.535,-0.665,2886.1111111111113
-0.565,-0.665,2888.8888888888887
-0.565,-0.68,2891.6666666666665
-0.57,-0.705,2894.4444444444443
-0.555,-0.705,2897.222222222222
-0.565,-0.72,2900.0
-0.57,-0.715,2902.777777777778
-0.57,-0.715,2905.5555555555557
-0.57,-0.705,2908.3333333333335
-0.565,-0.68,2911.1111111111113
-0.555,-0.685,2913.8888888888887
-0.545,-0.685,2916.6666666666665
-0.555,-0.705,2919.4444444444443
-0.565,-0.715,2922.222222222222
-0.585,-0.73,2925.0
-0.59,-0.74,2927.777777777778
-0.605,-0.735,2930.5555555555557
-0.59,-0.735,2933.3333333333335
-0.585,-0.7,2936.1111111111113
-0.56,-0.685,2938.8888888888887
-0.555,-0.645,2941.6666666666665
-0.56,-0.59,2944.4444444444443
-0.565,-0.54,2947.222222222222
-0.585,-0.495,2950.0
-0.615,-0.485,2952.777777777778
-0.62,-0.555,2955.5555555555557
-0.62,-0.715,2958.3333333333335
-0.59,-1.02,2961.1111111111113
-0.48,-1.38,2963.8888888888887
-0.305,-1.765,2966.6666666666665
-0.06,-2.1,2969.4444444444443
0.2,-2.375,2972.222222222222
0.505,-2.53,2975.0
0.855,-2.625,2977.777777777778
1.215,-2.655,2980.5555555555557
1.56,-2.63,2983.3333333333335
1.81,-2.6,2986.1111111111113
1.88,-2.54,2988.8888888888887
1.76,-2.465,2991.6666666666665
1.45,-2.405,2994.4444444444443
1.015,-2.295,2997.222222222222
0.52,-2.14,3000.0
0.035,-1.895,3002.777777777778
-0.39,-1.63,3005.5555555555557
-0.76,-1.39,3008.3333333333335
-1.055,-1.215,3011.1111111111113
-1.31,-1.12,3013.8888888888887
-1.46,-1.055,3016.6666666666665
-1.5,-1.0,3019.4444444444443
-1.43,-0.95,3022.222222222222
-1.305,-0.9,3025.0
-1.15,-0.855,3027.777777777778
-1.015,-0.81,3030.5555555555557
-0.93,-0.79,3033.3333333333335
-0.905,-0.775,3036.1111111111113
-0.91,-0.77,3038.8888888888887
-0.915,-0.76,3041.6666666666665
-0.935,-0.735,3044.4444444444443
-0.945,-0.74,3047.222222222222
-0.97,-0.725,3050.0
-0.98,-0.715,3052.777777777778
-0.995,-0.72,3055.5555555555557
-1.01,-0.725,3058.3333333333335
-1.015,-0.73,3061.1111111111113
-1.01,-0.72,3063.8888888888887
-1.015,-0.705,3066.6666666666665
-1.02,-0.69,3069.4444444444443
-1.015,-0.655,3072.222222222222
-1.025,-0.66,3075.0
-1.025,-0.655,3077.777777777778
-1.025,-0.645,3080.5555555555557
-1.02,-0.645,3083.3333333333335
-1.015,-0.645,3086.1111111111113
-1.015,-0.64,3088.8888888888887
-1.015,-0.62,3091.6666666666665
-1.02,-0.605,3094.4444444444443
-1.025,-0.59,3097.222222222222
-1.045,-0.58,3100.0
-1.03,-0.58,3102.777777777778
-1.02,-0.575,3105.5555555555557
-1.0,-0.57,3108.3333333333335
-0.975,-0.535,3111.1111111111113
-0.96,-0.52,3113.8888888888887
-0.945,-0.485,3116.6666666666665
-0.935,-0.47,3119.4444444444443
-0.935,-0.46,3122.222222222222
-0.935,-0.455,3125.0
-0.91,-0.46,3127.777777777778
-0.885,-0.465,3130.5555555555557
-0.855,-0.445,3133.3333333333335
-0.82,-0.42,3136.1111111111113
-0.79,-0.38,3138.8888888888887
-0.775,-0.355,3141.6666666666665
-0.745,-0.33,3144.4444444444443
-0.72,-0.315,3147.222222222222
-0.695,-0.32,3150.0
-0.675,-0.33,3152.777777777778
-0.625,-0.325,3155.5555555555557
-0.605,-0.325,3158.3333333333335
-0.595,-0.315,3161.1111111111113
-0.575,-0.3,3163.8888888888887
-0.56,-0.285,3166.6666666666665
-0.53,-0.285,3169.4444444444443
-0.47,-0.28,3172.222222222222
-0.43,-0.29,3175.0
-0.375,-0.295,3177.777777777778
-0.335,-0.295,3180.5555555555557
-0.295,-0.285,3183.3333333333335
-0.27,-0.29,3186.1111111111113
-0.25,-0.285,3188.8888888888887
-0.22,-0.3,3191.6666666666665
-0.18,-0.325,3194.4444444444443
-0.14,-0.34,3197.222222222222
-0.115,-0.37,3200.0
-0.065,-0.38,3202.777777777778
-0.025,-0.385,3205.5555555555557
-0.015,-0.4,3208.3333333333335
0.015,-0.395,3211.1111111111113
0.03,-0.43,3213.8888888888887
0.04,-0.445,3216.6666666666665
0.05,-0.48,3219.4444444444443
0.07,-0.515,3222.222222222222
0.085,-0.535,3225.0
0.095,-0.55,3227.777777777778
0.095,-0.56,3230.5555555555557
0.095,-0.57,3233.3333333333335
0.095,-0.57,3236.1111111111113
0.09,-0.565,3238.8888888888887
0.11,-0.585,3241.6666666666665
0.115,-0.585,3244.4444444444443
0.105,-0.595,3247.222222222222
0.1,-0.605,3250.0
0.07,-0.61,3252.777777777778
0.035,-0.64,3255.5555555555557
0.005,-0.64,3258.3333333333335
-0.03,-0.635,3261.1111111111113
-0.06,-0.62,3263.8888888888887
-0.08,-0.63,3266.6666666666665
-0.1,-0.62,3269.4444444444443
-0.1,-0.6,3272.222222222222
-0.13,-0.595,3275.0
-0.15,-0.575,3277.777777777778
-0.185,-0.58,3280.5555555555557
-0.215,-0.56,3283.3333333333335
-0.255,-0.555,3286.1111111111113
-0.28,-0.555,3288.8888888888887
-0.29,-0.555,3291.6666666666665
-0.31,-0.55,3294.4444444444443
-0.345,-0.545,3297.222222222222
-0.375,-0.535,3300.0
-0.385,-0.525,3302.777777777778
-0.415,-0.5,3305.5555555555557
-0.44,-0.48,3308.3333333333335
-0.435,-0.47,3311.1111111111113
-0.45,-0.46,3313.8888888888887
-0.465,-0.47,3316.6666666666665
-0.49,-0.475,3319.4444444444443
-0.52,-0.475,3322.222222222222
-0.545,-0.485,3325.0
-0.585,-0.48,3327.777777777778
-0.595,-0.445,3330.5555555555557
-0.605,-0.435,3333.3333333333335
-0.59,-0.42,3336.1111111111113
-0.575,-0.385,3338.8888888888887
-0.58,-0.36,3341.6666666666665
-0.57,-0.355,3344.4444444444443
-0.57,-0.34,3347.222222222222
-0.57,-0.325,3350.0
-0.575,-0.305,3352.777777777778
-0.58,-0.265,3355.5555555555557
-0.57,-0.24,3358.3333333333335
-0.565,-0.235,3361.1111111111113
-0.555,-0.23,3363.8888888888887
-0.55,-0.26,3366.6666666666665
-0.525,-0.28,3369.4444444444443
-0.515,-0.3,3372.222222222222
-0.475,-0.305,3375.0
-0.42,-0.31,3377.777777777778
-0.385,-0.315,3380.5555555555557
-0.335,-0.345,3383.3333333333335
-0.32,-0.385,3386.1111111111113
-0.3,-0.435,3388.8888888888887
-0.305,-0.485,3391.6666666666665
-0.31,-0.53,3394.4444444444443
-0.305,-0.535,3397.222222222222
-0.285,-0.54,3400.0
-0.265,-0.53,3402.777777777778
-0.25,-0.515,3405.5555555555557
-0.255,-0.515,3408.3333333333335
-0.265,-0.54,3411.1111111111113
-0.3,-0.555,3413.8888888888887
-0.35,-0.575,3416.6666666666665
-0.42,-0.595,3419.4444444444443
-0.485,-0.615,3422.222222222222
-0.535,-0.62,3425.0
-0.58,-0.635,3427.777777777778
-0.62,-0.63,3430.5555555555557
-0.66,-0.63,3433.3333333333335
-0.67,-0.625,3436.1111111111113
-0.675,-0.645,3438.8888888888887
-0.675,-0.655,3441.6666666666665
-0.67,-0.65,3444.4444444444443
-0.655,-0.65,3447.222222222222
-0.66,-0.655,3450.0
-0.645,-0.675,3452.777777777778
-0.67,-0.68,3455.5555555555557
-0.695,-0.705,3458.3333333333335
-0.695,-0.71,3461.1111111111113
-0.705,-0.71,3463.8888888888887
-0.71,-0.715,3466.6666666666665
-0.685,-0.695,3469.4444444444443
-0.67,-0.68,3472.222222222222
-0.665,-0.665,3475.0
-0.66,-0.67,3477.777777777778
-0.67,-0.665,3480.5555555555557
-0.675,-0.665,3483.3333333333335
-0.675,-0.665,3486.1111111111113
-0.675,-0.64,3488.8888888888887
-0.685,-0.595,3491.6666666666665
-0.685,-0.545,3494.4444444444443
-0.715,-0.505,3497.222222222222
-0.735,-0.525,3500.0
-0.755,-0.62,3502.777777777778
-0.75,-0.84,3505.5555555555557
-0.69,-1.16,3508.3333333333335
-0.55,-1.54,3511.1111111111113
-0.33,-1.955,3513.8888888888887
-0.035,-2.285,3516.6666666666665
0.29,-2.51,3519.4444444444443
0.655,-2.65,3522.222222222222
1.02,-2.715,3525.0
1.36,-2.745,3527.777777777778
1.645,-2.735,3530.5555555555557
1.825,-2.72,3533.3333333333335
1.86,-2.68,3536.1111111111113
1.725,-2.61,3538.8888888888887
1.43,-2.55,3541.6666666666665
1.045,-2.45,3544.4444444444443
0.605,-2.295,3547.222222222222
0.11,-2.06,3550.0
-0.33,-1.75,3552.777777777778
-0.735,-1.47,3555.5555555555557
-1.045,-1.235,3558.3333333333335
-1.305,-1.085,3561.1111111111113
-1.46,-0.985,3563.8888888888887
-1.495,-0.94,3566.6666666666665
-1.42,-0.915,3569.4444444444443
-1.3,-0.895,3572.222222222222
-1.165,-0.89,3575.0
-1.045,-0.845,3577.777777777778
-0.96,-0.835,3580.5555555555557
-0.935,-0.815,3583.3333333333335
-0.945,-0.805,3586.1111111111113
-0.975,-0.79,3588.8888888888887
-1.02,-0.78,3591.6666666666665
-1.06,-0.785,3594.4444444444443
-1.085,-0.77,3597.222222222222
-1.095,-0.775,3600.0
-1.09,-0.76,3602.777777777778
-1.075,-0.76,3605.5555555555557
-1.075,-0.73,3608.3333333333335
-1.07,-0.72,3611.1111111111113
-1.065,-0.7,3613.8888888888887
-1.085,-0.695,3616.6666666666665
-1.115,-0.7,3619.4444444444443
-1.125,-0.695,3622.222222222222
-1.14,-0.705,3625.0
-1.13,-0.71,3627.777777777778
-1.14,-0.685,3630.5555555555557
-1.125,-0.675,3633.3333333333335
-1.13,-0.645,3636.1111111111113
-1.13,-0.625,3638.8888888888887
-1.145,-0.615,3641.6666666666665
-1.15,-0.6,3644.4444444444443
-1.15,-0.6,3647.222222222222
-1.15,-0.6,3650.0
-1.13,-0.59,3652.777777777778
-1.14,-0.58,3655.5555555555557
-1.14,-0.565,3658.3333333333335
-1.165,-0.555,3661.1111111111113
-1.155,-0.545,3663.8888888888887
-1.145,-0.51,3666.6666666666665
-1.13,-0.5,3669.4444444444443
-1.115,-0.48,3672.222222222222
-1.095,-0.47,3675.0
-1.065,-0.455,3677.777777777778
-1.04,-0.445,3680.5555555555557
-1.04,-0.44,3683.3333333333335
-1.025,-0.415,3686.1111111111113
-1.015,-0.41,3688.8888888888887
-0.995,-0.39,3691.6666666666665
-0.975,-0.395,3694.4444444444443
-0.945,-0.38,3697.222222222222
-0.91,-0.36,3700.0
-0.88,-0.345,3702.777777777778
-0.84,-0.325,3705.5555555555557
-0.805,-0.3,3708.3333333333335
-0.77,-0.27,3711.1111111111113
-0.74,-0.275,3713.8888888888887
-0.7,-0.28,3716.6666666666665
-0.655,-0.28,3719.4444444444443
-0.645,-0.285,3722.222222222222
-0.6,-0.29,3725.0
-0.585,-0.295,3727.777777777778
-0.555,-0.3,3730.5555555555557
-0.525,-0.285,3733.3333333333335
-0.475,-0.28,3736.1111111111113
-0.41,-0.27,3738.8888888888887
-0.36,-0.265,3741.6666666666665
-0.3,-0.28,3744.4444444444443
-0.265,-0.29,3747.222222222222
-0.225,-0.305,3750.0
-0.195,-0.315,3752.777777777778
-0.17,-0.34,3755.5555555555557
-0.125,-0.36,3758.3333333333335
-0.095,-0.375,3761.1111111111113
-0.055,-0.4,3763.8888888888887
-0.025,-0.41,3766.6666666666665
0.005,-0.425,3769.4444444444443
0.035,-0.43,3772.222222222222
0.03,-0.435,3775.0
0.045,-0.45,3777.777777777778
0.06,-0.465,3780.5555555555557
0.085,-0.475,3783.3333333333335
0.1,-0.505,3786.1111111111113
0.115,-0.525,3788.8888888888887
0.115,-0.545,3791.6666666666665
0.1,-0.57,3794.4444444444443
0.085,-0.575,3797.222222222222
0.065,-0.575,3800.0
0.055,-0.585,3802.777777777778
0.045,-0.58,3805.5555555555557
0.04,-0.585,3808.3333333333335
0.045,-0.575,3811.1111111111113
0.045,-0.59,3813.8888888888887
0.035,-0.605,3816.6666666666665
0.0,-0.615,3819.4444444444443
-0.03,-0.625,3822.222222222222
-0.065,-0.625,3825.0
-0.1,-0.63,3827.777777777778
-0.12,-0.635,3830.5555555555557
-0.145,-0.62,3833.3333333333335
-0.155,-0.595,3836.1111111111113
-0.185,-0.595,3838.8888888888887
-0.195,-0.585,3841.6666666666665
-0.22,-0.57,3844.4444444444443
-0.26,-0.56,3847.222222222222
-0.28,-0.55,3850.0
-0.315,-0.555,3852.777777777778
-0.33,-0.545,3855.5555555555557
-0.365,-0.54,3858.3333333333335
-0.39,-0.545,3861.1111111111113
-0.42,-0.53,3863.8888888888887
-0.455,-0.52,3866.6666666666665
-0.475,-0.505,3869.4444444444443
-0.505,-0.49,3872.222222222222
-0.505,-0.465,3875.0
-0.51,-0.445,3877.777777777778
-0.51,-0.405,3880.5555555555557
-0.51,-0.38,3883.3333333333335
-0.52,-0.37,3886.1111111111113
-0.54,-0.35,3888.8888888888887
-0.545,-0.33,3891.6666666666665
-0.565,-0.295,3894.4444444444443
-0.56,-0.27,3897.222222222222
-0.565,-0.235,3900.0
-0.55,-0.22,3902.777777777778
-0.54,-0.21,3905.5555555555557
-0.535,-0.23,3908.3333333333335
-0.52,-0.255,3911.1111111111113
-0.495,-0.28,3913.8888888888887
-0.455,-0.31,3916.6666666666665
-0.415,-0.34,3919.4444444444443
-0.38,-0.375,3922.222222222222
-0.36,-0.41,3925.0
-0.325,-0.46,3927.777777777778
-0.32,-0.5,3930.5555555555557
-0.315,-0.53,3933.3333333333335
-0.29,-0.55,3936.1111111111113
-0.27,-0.56,3938.8888888888887
-0.24,-0.55,3941.6666666666665
-0.215,-0.535,3944.4444444444443
-0.225,-0.525,3947.222222222222
-0.235,-0.525,3950.0
-0.285,-0.535,3952.777777777778
-0.34,-0.565,3955.5555555555557
-0.405,-0.595,3958.3333333333335
-0.47,-0.615,3961.1111111111113
-0.535,-0.63,3963.8888888888887
-0.595,-0.63,3966.6666666666665
-0.625,-0.635,3969.4444444444443
-0.67,-0.635,3972.222222222222
-0.71,-0.625,3975.0
-0.705,-0.64,3977.777777777778
-0.71,-0.65,3980.5555555555557
-0.705,-0.675,3983.3333333333335
-0.705,-0.675,3986.1111111111113
-0.7,-0.675,3988.8888888888887
-0.7,-0.675,3991.6666666666665
-0.72,-0.68,3994.4444444444443
-0.735,-0.685,3997.222222222222
-0.75,-0.69,4000.0
-0.75,-0.685,4002.777777777778
-0.74,-0.68,4005.5555555555557
-0.72,-0.68,4008.3333333333335
-0.695,-0.675,4011.1111111111113
-0.68,-0.675,4013.8888888888887
-0.685,-0.675,4016.6666666666665
-0.69,-0.69,4019.4444444444443
-0.71,-0.685,4022.222222222222
-0.705,-0.67,4025.0
-0.72,-0.665,4027.777777777778
-0.71,-0.625,4030.5555555555557
-0.74,-0.57,4033.3333333333335
-0.74,-0.505,4036.1111111111113
-0.755,-0.475,4038.8888888888887
-0.78,-0.49,4041.6666666666665
-0.79,-0.6,4044.4444444444443
-0.75,-0.865,4047.222222222222
-0.645,-1.235,4050.0
-0.48,-1.675,4052.777777777778
-0.24,-2.11,4055.5555555555557
0.07,-2.47,4058.3333333333335
0.43,-2.715,4061.1111111111113
0.855,-2.865,4063.8888888888887
1.27,-2.895,4066.6666666666665
1.64,-2.89,4069.4444444444443
1.82,-2.845,4072.222222222222
1.76,-2.79,4075.0
1.515,-2.73,4077.777777777778
1.135,-2.685,4080.5555555555557
0.66,-2.615,4083.3333333333335
0.2,-2.47,4086.1111111111113
-0.23,-2.21,4088.8888888888887
-0.59,-1.85,4091.6666666666665
-0.89,-1.47,4094.4444444444443
-1.14,-1.165,4097.222222222223
-1.315,-0.97,4100.0
-1.405,-0.865,4102.777777777777
-1.395,-0.845,4105.555555555556
-1.3,-0.845,4108.333333333333
-1.16,-0.85,4111.111111111111
-1.02,-0.845,4113.888888888889
-0.935,-0.845,4116.666666666667
-0.91,-0.82,4119.444444444444
-0.935,-0.815,4122.222222222223
-0.975,-0.795,4125.0
-1.025,-0.79,4127.777777777777
-1.08,-0.775,4130.555555555556
-1.095,-0.775,4133.333333333333
-1.09,-0.755,4136.111111111111
-1.07,-0.745,4138.888888888889
-1.065,-0.73,4141.666666666667
-1.055,-0.71,4144.444444444444
-1.05,-0.705,4147.222222222223
-1.075,-0.7,4150.0
-1.095,-0.69,4152.777777777777
-1.105,-0.685,4155.555555555556
-1.125,-0.68,4158.333333333333
-1.135,-0.66,4161.111111111111
-1.135,-0.66,4163.888888888889
-1.145,-0.655,4166.666666666667
-1.15,-0.64,4169.444444444444
-1.175,-0.615,4172.222222222223
-1.17,-0.6,4175.0
-1.16,-0.58,4177.777777777777
-1.15,-0.575,4180.555555555556
-1.145,-0.545,4183.333333333333
-1.135,-0.545,4186.111111111111
-1.15,-0.55,4188.888888888889
-1.15,-0.545,4191.666666666667
-1.17,-0.545,4194.444444444444
-1.175,-0.525,4197.222222222223
-1.175,-0.51,4200.0
-1.155,-0.475,4202.777777777777
-1.125,-0.455,4205.555555555556
-1.105,-0.435,4208.333333333333
-1.085,-0.415,4211.111111111111
-1.07,-0.405,4213.888888888889
-1.065,-0.395,4216.666666666667
-1.045,-0.375,4219.444444444444
-1.03,-0.37,4222.222222222223
-1.0,-0.355,4225.0
-0.97,-0.34,4227.777777777777
-0.94,-0.33,4230.555555555556
-0.905,-0.315,4233.333333333333
-0.875,-0.295,4236.111111111111
-0.835,-0.265,4238.888888888889
-0.77,-0.24,4241.666666666667
-0.715,-0.22,4244.444444444444
-0.665,-0.21,4247.222222222223
-0.61,-0.21,4250.0
-0.575,-0.205,4252.777777777777
-0.545,-0.205,4255.555555555556
-0.51,-0.225,4258.333333333333
-0.48,-0.22,4261.111111111111
-0.435,-0.21,4263.888888888889
-0.39,-0.2,4266.666666666667
-0.335,-0.2,4269.444444444444
-0.285,-0.19,4272.222222222223
-0.255,-0.21,4275.0
-0.215,-0.23,4277.777777777777
-0.175,-0.24,4280.555555555556
-0.105,-0.265,4283.333333333333
-0.06,-0.27,4286.111111111111
-0.025,-0.285,4288.888888888889
0.015,-0.305,4291.666666666667
0.02,-0.34,4294.444444444444
0.03,-0.355,4297.222222222223
0.035,-0.38,4300.0
0.055,-0.385,4302.777777777777
0.055,-0.39,4305.555555555556
0.095,-0.405,4308.333333333333
0.11,-0.395,4311.111111111111
0.115,-0.41,4313.888888888889
0.115,-0.435,4316.666666666667
0.085,-0.46,4319.444444444444
0.06,-0.49,4322.222222222223
0.04,-0.53,4325.0
0.02,-0.545,4327.777777777777
0.025,-0.545,4330.555555555556
0.005,-0.545,4333.333333333333
-0.015,-0.55,4336.111111111111
-0.035,-0.565,4338.888888888889
-0.05,-0.58,4341.666666666667
-0.07,-0.575,4344.444444444444
-0.09,-0.59,4347.222222222223
-0.095,-0.585,4350.0
-0.115,-0.585,4352.777777777777
-0.14,-0.6,4355.555555555556
-0.165,-0.6,4358.333333333333
-0.205,-0.605,4361.111111111111
-0.25,-0.605,4363.888888888889
-0.275,-0.6,4366.666666666667
-0.305,-0.6,4369.444444444444
-0.305,-0.575,4372.222222222223
-0.325,-0.545,4375.0
-0.34,-0.51,4377.777777777777
-0.36,-0.495,4380.555555555556
-0.4,-0.49,4383.333333333333
-0.425,-0.5,4386.111111111111
-0.44,-0.495,4388.888888888889
-0.455,-0.495,4391.666666666667
-0.48,-0.48,4394.444444444444
-0.485,-0.465,4397.222222222223
-0.515,-0.44,4400.0
-0.53,-0.415,4402.777777777777
-0.55,-0.385,4405.555555555556
-0.57,-0.35,4408.333333333333
-0.58,-0.325,4411.111111111111
-0.58,-0.305,4413.888888888889
-0.575,-0.26,4416.666666666667
-0.575,-0.23,4419.444444444444
-0.59,-0.21,4422.222222222223
-0.595,-0.21,4425.0
-0.6,-0.22,4427.777777777777
-0.59,-0.255,4430.555555555556
-0.58,-0.27,4433.333333333333
-0.53,-0.295,4436.111111111111
-0.48,-0.31,4438.888888888889
-0.435,-0.32,4441.666666666667
-0.4,-0.355,4444.444444444444
-0.37,-0.39,4447.222222222223
-0.345,-0.445,4450.0
-0.335,-0.505,4452.777777777777
-0.3,-0.555,4455.555555555556
-0.27,-0.58,4458.333333333333
-0.25,-0.59,4461.111111111111
-0.235,-0.595,4463.888888888889
-0.245,-0.565,4466.666666666667
-0.255,-0.575,4469.444444444444
-0.265,-0.565,4472.222222222223
-0.295,-0.585,4475.0
-0.335,-0.605,4477.777777777777
-0.385,-0.615,4480.555555555556
-0.44,-0.64,4483.333333333333
-0.495,-0.645,4486.111111111111
-0.55,-0.66,4488.888888888889
-0.585,-0.68,4491.666666666667
-0.625,-0.69,4494.444444444444
-0.64,-0.705,4497.222222222223
-0.64,-0.7,4500.0
-0.62,-0.695,4502.777777777777
-0.62,-0.685,4505.555555555556
-0.62,-0.68,4508.333333333333
-0.625,-0.675,4511.111111111111
-0.605,-0.685,4513.888888888889
-0.605,-0.67,4516.666666666667
-0.615,-0.69,4519.444444444444
-0.625,-0.715,4522.222222222223
-0.625,-0.705,4525.0
-0.635,-0.72,4527.777777777777
-0.65,-0.725,4530.555555555556
-0.66,-0.715,4533.333333333333
-0.65,-0.71,4536.111111111111
-0.645,-0.705,4538.888888888889
-0.635,-0.705,4541.666666666667
-0.605,-0.69,4544.444444444444
-0.575,-0.68,4547.222222222223
-0.57,-0.66,4550.0
-0.575,-0.625,4552.777777777777
-0.585,-0.575,4555.555555555556
-0.61,-0.53,4558.333333333333
-0.645,-0.5,4561.111111111111
-0.665,-0.54,4563.888888888889
-0.675,-0.665,4566.666666666667
-0.655,-0.9,4569.444444444444
-0.59,-1.25,4572.222222222223
-0.435,-1.645,4575.0
-0.22,-2.045,4577.777777777777
0.035,-2.405,4580.555555555556
0.38,-2.67,4583.333333333333
0.75,-2.84,4586.111111111111
1.14,-2.92,4588.888888888889
1.52,-2.945,4591.666666666667
1.775,-2.935,4594.444444444444
1.82,-2.89,4597.222222222223
1.625,-2.855,4600.0
1.275,-2.785,4602.777777777777
0.845,-2.73,4605.555555555556
0.375,-2.66,4608.333333333333
-0.04,-2.475,4611.111111111111
-0.405,-2.175,4613.888888888889
-0.7,-1.805,4616.666666666667
-0.945,-1.46,4619.444444444444
-1.135,-1.195,4622.222222222223
-1.29,-1.025,4625.0
-1.345,-0.95,4627.777777777777
-1.335,-0.92,4630.555555555556
-1.24,-0.915,4633.333333333333
-1.115,-0.895,4636.111111111111
-0.965,-0.89,4638.888888888889
-0.88,-0.865,4641.666666666667
-0.845,-0.84,4644.444444444444
-0.855,-0.825,4647.222222222223
-0.885,-0.805,4650.0
-0.93,-0.805,4652.777777777777
-0.96,-0.79,4655.555555555556
-0.98,-0.785,4658.333333333333
-0.99,-0.79,4661.111111111111
-0.99,-0.785,4663.888888888889
-0.98,-0.775,4666.666666666667
-0.985,-0.755,4669.444444444444
-1.005,-0.725,4672.222222222223
-1.015,-0.705,4675.0
-1.005,-0.68,4677.777777777777
-1.0,-0.67,4680.555555555556
-0.99,-0.65,4683.333333333333
-0.99,-0.655,4686.111111111111
-1.015,-0.65,4688.888888888889
-1.03,-0.66,4691.666666666667
-1.045,-0.65,4694.444444444444
-1.04,-0.64,4697.222222222223
-1.045,-0.615,4700.0
-1.025,-0.585,4702.777777777777
-1.01,-0.55,4705.555555555556
-0.995,-0.53,4708.333333333333
-1.005,-0.53,4711.111111111111
-1.02,-0.535,4713.888888888889
-1.01,-0.52,4716.666666666667
-0.995,-0.52,4719.444444444444
-0.99,-0.5,4722.222222222223
-0.99,-0.485,4725.0
-0.975,-0.46,4727.777777777777
-0.95,-0.44,4730.555555555556
-0.95,-0.425,4733.333333333333
-0.925,-0.42,4736.111111111111
-0.905,-0.4,4738.888888888889
-0.88,-0.37,4741.666666666667
-0.865,-0.365,4744.444444444444
-0.84,-0.345,4747.222222222223
-0.795,-0.33,4750.0
-0.77,-0.305,4752.777777777777
-0.75,-0.3,4755.555555555556
-0.715,-0.295,4758.333333333333
-0.695,-0.29,4761.111111111111
-0.67,-0.28,4763.888888888889
-0.635,-0.27,4766.666666666667
-0.57,-0.255,4769.444444444444
-0.52,-0.235,4772.222222222223
-0.5,-0.225,4775.0
-0.45,-0.22,4777.777777777777
-0.405,-0.215,4780.555555555556
-0.375,-0.225,4783.333333333333
-0.35,-0.21,4786.111111111111
-0.335,-0.225,4788.888888888889
-0.3,-0.23,4791.666666666667
-0.245,-0.205,4794.444444444444
-0.22,-0.215,4797.222222222223
-0.185,-0.205,4800.0
-0.16,-0.205,4802.777777777777
-0.125,-0.225,4805.555555555556
-0.08,-0.24,4808.333333333333
-0.03,-0.255,4811.111111111111
0.01,-0.265,4813.888888888889
0.055,-0.28,4816.666666666667
0.095,-0.295,4819.444444444444
0.11,-0.315,4822.222222222223
0.125,-0.335,4825.0
0.125,-0.36,4827.777777777777
0.14,-0.385,4830.555555555556
0.14,-0.395,4833.333333333333
0.16,-0.405,4836.111111111111
0.18,-0.41,4838.888888888889
0.19,-0.425,4841.666666666667
0.205,-0.415,4844.444444444444
0.205,-0.425,4847.222222222223
0.195,-0.45,4850.0
0.19,-0.475,4852.777777777777
0.175,-0.51,4855.555555555556
0.16,-0.54,4858.333333333333
0.15,-0.56,4861.111111111111
0.135,-0.585,4863.888888888889
0.095,-0.57,4866.666666666667
0.065,-0.56,4869.444444444444
0.05,-0.57,4872.222222222223
0.025,-0.575,4875.0
0.01,-0.575,4877.777777777777
0.015,-0.585,4880.555555555556
0.01,-0.6,4883.333333333333
-0.005,-0.6,4886.111111111111
-0.03,-0.62,4888.888888888889
-0.07,-0.615,4891.666666666667
-0.11,-0.62,4894.444444444444
-0.155,-0.605,4897.222222222223
-0.19,-0.61,4900.0
-0.21,-0.59,4902.777777777777
-0.23,-0.585,4905.555555555556
-0.25,-0.565,4908.333333333333
-0.28,-0.535,4911.111111111111
-0.305,-0.525,4913.888888888889
-0.32,-0.525,4916.666666666667
-0.355,-0.515,4919.444444444444
-0.385,-0.525,4922.222222222223
-0.415,-0.525,4925.0
-0.42,-0.53,4927.777777777777
-0.455,-0.515,4930.555555555556
-0.47,-0.525,4933.333333333333
-0.5,-0.49,4936.111111111111
-0.525,-0.485,4938.888888888889
-0.535,-0.46,4941.666666666667
-0.54,-0.43,4944.444444444444
-0.54,-0.41,4947.222222222223
-0.53,-0.4,4950.0
-0.535,-0.39,4952.777777777777
-0.555,-0.365,4955.555555555556
-0.58,-0.345,4958.333333333333
-0.6,-0.325,4961.111111111111
-0.605,-0.29,4963.888888888889
-0.6,-0.26,4966.666666666667
-0.59,-0.255,4969.444444444444
-0.57,-0.23,4972.222222222223
-0.55,-0.235,4975.0
-0.53,-0.245,4977.777777777777
-0.51,-0.28,4980.555555555556
-0.475,-0.295,4983.333333333333
-0.44,-0.32,4986.111111111111
-0.4,-0.345,4988.888888888889
-0.365,-0.385,4991.666666666667
-0.34,-0.415,4994.444444444444
-0.325,-0.465,4997.222222222223
-0.3,-0.49,5000.0
-0.28,-0.505,5002.777777777777
-0.24,-0.525,5005.555555555556
-0.205,-0.535,5008.333333333333
-0.18,-0.54,5011.111111111111
-0.17,-0.53,5013.888888888889
-0.185,-0.54,5016.666666666667
-0.235,-0.56,5019.444444444444
-0.3,-0.58,5022.222222222223
-0.38,-0.59,5025.0
-0.46,-0.615,5027.777777777777
-0.525,-0.63,5030.555555555556
-0.57,-0.63,5033.333333333333
-0.6,-0.64,5036.111111111111
-0.63,-0.64,5038.888888888889
-0.645,-0.645,5041.666666666667
-0.655,-0.63,5044.444444444444
-0.655,-0.64,5047.222222222223
-0.66,-0.635,5050.0
-0.645,-0.65,5052.777777777777
-0.63,-0.655,5055.555555555556
-0.635,-0.67,5058.333333333333
-0.655,-0.68,5061.111111111111
-0.66,-0.695,5063.888888888889
-0.68,-0.69,5066.666666666667
-0.675,-0.68,5069.444444444444
-0.67,-0.675,5072.222222222223
-0.64,-0.655,5075.0
-0.63,-0.65,5077.777777777777
-0.625,-0.65,5080.555555555556
-0.62,-0.64,5083.333333333333
-0.62,-0.635,5086.111111111111
-0.64,-0.625,5088.888888888889
-0.655,-0.595,5091.666666666667
-0.65,-0.565,5094.444444444444
-0.665,-0.52,5097.222222222223
-0.675,-0.465,5100.0
-0.685,-0.445,5102.777777777777
-0.7,-0.515,5105.555555555556
-0.72,-0.66,5108.333333333333
-0.7,-0.945,5111.111111111111
-0.6,-1.32,5113.888888888889
-0.415,-1.75,5116.666666666667
-0.145,-2.115,5119.444444444444
0.18,-2.4,5122.222222222223
0.56,-2.575,5125.0
0.96,-2.65,5127.777777777777
1.345,-2.665,5130.555555555556
1.675,-2.605,5133.333333333333
1.86,-2.545,5136.111111111111
1.825,-2.465,5138.888888888889
1.59,-2.375,5141.666666666667
1.21,-2.31,5144.444444444444
0.75,-2.22,5147.222222222223
0.27,-2.11,5150.0
-0.16,-1.91,5152.777777777777
-0.525,-1.67,5155.555555555556
-0.825,-1.43,5158.333333333333
-1.08,-1.22,5161.111111111111
-1.285,-1.095,5163.888888888889
-1.425,-0.975,5166.666666666667
-1.46,-0.915,5169.444444444444
-1.41,-0.87,5172.222222222223
-1.305,-0.855,5175.0
-1.165,-0.815,5177.777777777777
-1.045,-0.79,5180.555555555556
-0.965,-0.765,5183.333333333333
-0.93,-0.745,5186.111111111111
-0.93,-0.73,5188.888888888889
-0.96,-0.725,5191.666666666667
-1.0,-0.725,5194.444444444444
-1.04,-0.72,5197.222222222223
-1.065,-0.715,5200.0
-1.07,-0.71,5202.777777777777
-1.06,-0.7,5205.555555555556
-1.05,-0.685,5208.333333333333
-1.045,-0.66,5211.111111111111
-1.045,-0.64,5213.888888888889
-1.025,-0.65,5216.666666666667
-1.04,-0.64,5219.444444444444
-1.06,-0.645,5222.222222222223
-1.08,-0.655,5225.0
-1.095,-0.66,5227.777777777777
-1.09,-0.645,5230.555555555556
-1.1,-0.63,5233.333333333333
-1.1,-0.605,5236.111111111111
-1.09,-0.585,5238.888888888889
-1.095,-0.575,5241.666666666667
-1.085,-0.565,5244.444444444444
-1.085,-0.54,5247.222222222223
-1.07,-0.55,5250.0
-1.05,-0.545,5252.777777777777
-1.045,-0.525,5255.555555555556
-1.045,-0.515,5258.333333333333
-1.045,-0.49,5261.111111111111
-1.055,-0.49,5263.888888888889
-1.06,-0.46,5266.666666666667
-1.045,-0.455,5269.444444444444
-1.025,-0.435,5272.222222222223
-0.995,-0.415,5275.0
-0.975,-0.375,5277.777777777777
-0.95,-0.37,5280.555555555556
-0.935,-0.355,5283.333333333333
-0.92,-0.345,5286.111111111111
-0.91,-0.345,5288.888888888889
-0.905,-0.335,5291.666666666667
-0.88,-0.34,5294.444444444444
-0.85,-0.335,5297.222222222223
-0.82,-0.32,5300.0
-0.78,-0.3,5302.777777777777
-0.745,-0.26,5305.555555555556
-0.725,-0.245,5308.333333333333
-0.69,-0.225,5311.111111111111
-0.65,-0.215,5313.888888888889
-0.61,-0.225,5316.666666666667
-0.575,-0.235,5319.444444444444
-0.53,-0.225,5322.222222222223
-0.495,-0.23,5325.0
-0.47,-0.235,5327.777777777777
-0.445,-0.22,5330.555555555556
-0.425,-0.235,5333.333333333333
-0.395,-0.235,5336.111111111111
-0.36,-0.245,5338.888888888889
-0.32,-0.25,5341.666666666667
-0.285,-0.275,5344.444444444444
-0.23,-0.275,5347.222222222223
-0.21,-0.29,5350.0
-0.17,-0.305,5352.777777777777
-0.145,-0.325,5355.555555555556
-0.115,-0.35,5358.333333333333
-0.09,-0.395,5361.111111111111
-0.065,-0.41,5363.888888888889
-0.035,-0.43,5366.666666666667
-0.01,-0.46,5369.444444444444
0.02,-0.46,5372.222222222223
0.035,-0.465,5375.0
0.05,-0.465,5377.777777777777
0.055,-0.46,5380.555555555556
0.07,-0.48,5383.333333333333
0.07,-0.5,5386.111111111111
0.085,-0.53,5388.888888888889
0.085,-0.555,5391.666666666667
0.06,-0.575,5394.444444444444
0.05,-0.58,5397.222222222223
0.02,-0.575,5400.0
0.005,-0.57,5402.777777777777
-0.015,-0.57,5405.555555555556
-0.015,-0.575,5408.333333333333
-0.015,-0.59,5411.111111111111
-0.02,-0.59,5413.888888888889
-0.035,-0.605,5416.666666666667
-0.065,-0.595,5419.444444444444
-0.11,-0.595,5422.222222222223
-0.145,-0.59,5425.0
-0.17,-0.585,5427.777777777777
-0.21,-0.58,5430.555555555556
-0.22,-0.58,5433.333333333333
-0.23,-0.575,5436.111111111111
-0.27,-0.555,5438.888888888889
-0.285,-0.545,5441.666666666667
-0.32,-0.525,5444.444444444444
-0.345,-0.505,5447.222222222223
-0.36,-0.495,5450.0
-0.38,-0.485,5452.777777777777
-0.4,-0.49,5455.555555555556
-0.425,-0.485,5458.333333333333
-0.46,-0.5,5461.111111111111
-0.49,-0.485,5463.888888888889
-0.53,-0.47,5466.666666666667
-0.53,-0.46,5469.444444444444
-0.535,-0.445,5472.222222222223
-0.55,-0.43,5475.0
-0.555,-0.42,5477.777777777777
-0.555,-0.395,5480.555555555556
-0.58,-0.395,5483.333333333333
-0.595,-0.37,5486.111111111111
-0.62,-0.35,5488.888888888889
-0.625,-0.345,5491.666666666667
-0.635,-0.325,5494.444444444444
-0.625,-0.28,5497.222222222223
-0.605,-0.26,5500.0
-0.58,-0.21,5502.777777777777
-0.555,-0.195,5505.555555555556
-0.55,-0.175,5508.333333333333
-0.545,-0.19,5511.111111111111
-0.54,-0.215,5513.888888888889
-0.515,-0.25,5516.666666666667
-0.495,-0.275,5519.444444444444
-0.46,-0.28,5522.222222222223
-0.43,-0.305,5525.0
-0.43,-0.34,5527.777777777777
-0.42,-0.37,5530.555555555556
-0.405,-0.41,5533.333333333333
-0.395,-0.435,5536.111111111111
-0.355,-0.475,5538.888888888889
-0.335,-0.485,5541.666666666667
-0.285,-0.495,5544.444444444444
-0.245,-0.5,5547.222222222223
-0.22,-0.51,5550.0
-0.23,-0.495,5552.777777777777
-0.24,-0.52,5555.555555555556
-0.27,-0.54,5558.333333333333
-0.32,-0.56,5561.111111111111
-0.385,-0.565,5563.888888888889
-0.45,-0.57,5566.666666666667
-0.495,-0.57,5569.444444444444
-0.555,-0.575,5572.222222222223
-0.585,-0.595,5575.0
-0.625,-0.59,5577.777777777777
-0.66,-0.6,5580.555555555556
-0.68,-0.625,5583.333333333333
-0.69,-0.63,5586.111111111111
-0.695,-0.635,5588.888888888889
-0.695,-0.645,5591.666666666667
-0.685,-0.64,5594.444444444444
-0.685,-0.64,5597.222222222223
-0.69,-0.645,5600.0
-0.705,-0.65,5602.777777777777
-0.715,-0.655,5605.555555555556
-0.725,-0.67,5608.333333333333
-0.71,-0.665,5611.111111111111
-0.69,-0.655,5613.888888888889
-0.69,-0.65,5616.666666666667
-0.69,-0.645,5619.444444444444
-0.68,-0.655,5622.222222222223
-0.69,-0.67,5625.0
-0.695,-0.69,5627.777777777777
-0.72,-0.705,5630.555555555556
-0.73,-0.695,5633.333333333333
-0.735,-0.675,5636.111111111111
-0.735,-0.635,5638.888888888889
-0.715,-0.595,5641.666666666667
-0.725,-0.53,5644.444444444444
-0.705,-0.485,5647.222222222223
-0.725,-0.465,5650.0
-0.75,-0.515,5652.777777777777
-0.745,-0.67,5655.555555555556
-0.72,-0.93,5658.333333333333
-0.635,-1.295,5661.111111111111
-0.47,-1.705,5663.888888888889
-0.23,-2.095,5666.666666666667
0.07,-2.41,5669.444444444444
0.43,-2.61,5672.222222222223
0.84,-2.735,5675.0
1.265,-2.765,5677.777777777777
1.64,-2.75,5680.555555555556
1.9,-2.72,5683.333333333333
1.955,-2.67,5686.111111111111
1.81,-2.61,5688.888888888889
1.47,-2.555,5691.666666666667
1.03,-2.495,5694.444444444444
0.55,-2.36,5697.222222222223
0.05,-2.135,5700.0
-0.385,-1.805,5702.777777777777
-0.77,-1.48,5705.555555555556
-1.085,-1.2,5708.333333333333
-1.31,-1.025,5711.111111111111
-1.445,-0.925,5713.888888888889
-1.46,-0.885,5716.666666666667
-1.385,-0.88,5719.444444444444
-1.265,-0.88,5722.222222222223
-1.12,-0.87,5725.0
-1.005,-0.85,5727.777777777777
-0.955,-0.825,5730.555555555556
-0.945,-0.815,5733.333333333333
-0.96,-0.785,5736.111111111111
-1.0,-0.765,5738.888888888889
-1.05,-0.75,5741.666666666667
-1.07,-0.73,5744.444444444444
-1.08,-0.745,5747.222222222223
-1.07,-0.725,5750.0
-1.06,-0.74,5752.777777777777
-1.06,-0.725,5755.555555555556
-1.075,-0.71,5758.333333333333
-1.085,-0.7,5761.111111111111
-1.12,-0.685,5763.888888888889
-1.12,-0.68,5766.666666666667
-1.125,-0.66,5769.444444444444
-1.115,-0.66,5772.222222222223
-1.11,-0.645,5775.0
-1.105,-0.64,5777.777777777777
-1.115,-0.625,5780.555555555556
-1.12,-0.605,5783.333333333333
-1.135,-0.6,5786.111111111111
-1.14,-0.595,5788.888888888889
-1.145,-0.59,5791.666666666667
-1.145,-0.58,5794.444444444444
-1.145,-0.59,5797.222222222223
-1.16,-0.565,5800.0
-1.155,-0.545,5802.777777777777
-1.165,-0.515,5805.555555555556
-1.16,-0.49,5808.333333333333
-1.135,-0.485,5811.111111111111
-1.115,-0.475,5813.888888888889
-1.085,-0.47,5816.666666666667
-1.07,-0.455,5819.444444444444
-1.06,-0.435,5822.222222222223
-1.06,-0.44,5825.0
-1.05,-0.43,5827.777777777777
-1.045,-0.415,5830.555555555556
-1.035,-0.375,5833.333333333333
-1.015,-0.375,5836.111111111111
-0.96,-0.355,5838.888888888889
-0.93,-0.35,5841.666666666667
-0.89,-0.345,5844.444444444444
-0.865,-0.335,5847.222222222223
-0.84,-0.315,5850.0
-0.825,-0.29,5852.777777777777
-0.8,-0.29,5855.555555555556
-0.77,-0.28,5858.333333333333
-0.735,-0.28,5861.111111111111
-0.685,-0.285,5863.888888888889
-0.655,-0.27,5866.666666666667
-0.605,-0.26,5869.444444444444
-0.565,-0.255,5872.222222222223
-0.52,-0.245,5875.0
-0.485,-0.23,5877.777777777777
-0.445,-0.24,5880.555555555556
-0.375,-0.24,5883.333333333333
-0.325,-0.26,5886.111111111111
-0.285,-0.265,5888.888888888889
-0.255,-0.3,5891.666666666667
-0.235,-0.3,5894.444444444444
-0.22,-0.31,5897.222222222223
-0.17,-0.33,5900.0
-0.12,-0.33,5902.777777777777
-0.075,-0.345,5905.555555555556
-0.03,-0.365,5908.333333333333
0.005,-0.375,5911.111111111111
0.035,-0.4,5913.888888888889
0.04,-0.415,5916.666666666667
0.065,-0.425,5919.444444444444
0.07,-0.43,5922.222222222223
0.08,-0.455,5925.0
0.09,-0.46,5927.777777777777
0.095,-0.495,5930.555555555556
0.085,-0.52,5933.333333333333
0.08,-0.53,5936.111111111111
0.07,-0.535,5938.888888888889
0.07,-0.545,5941.666666666667
0.065,-0.53,5944.444444444444
0.075,-0.55,5947.222222222223
0.07,-0.575,5950.0
0.025,-0.58,5952.777777777777
-0.01,-0.59,5955.555555555556
-0.04,-0.595,5958.333333333333
-0.065,-0.615,5961.111111111111
-0.09,-0.61,5963.888888888889
-0.11,-0.615,5966.666666666667
-0.13,-0.59,5969.444444444444
-0.135,-0.605,5972.222222222223
-0.16,-0.595,5975.0
-0.185,-0.59,5977.777777777777
-0.22,-0.585,5980.555555555556
-0.255,-0.57,5983.333333333333
-0.29,-0.575,5986.111111111111
-0.295,-0.57,5988.888888888889
-0.315,-0.56,5991.666666666667
-0.345,-0.545,5994.444444444444
-0.38,-0.545,5997.222222222223
-0.41,-0.53,6000.0
-0.46,-0.53,6002.777777777777
-0.475,-0.5,6005.555555555556
-0.475,-0.485,6008.333333333333
-0.48,-0.47,6011.111111111111
-0.49,-0.455,6013.888888888889
-0.5,-0.43,6016.666666666667
-0.505,-0.42,6019.444444444444
-0.53,-0.4,6022.222222222223
-0.55,-0.39,6025.0
-0.56,-0.37,6027.777777777777
-0.57,-0.325,6030.555555555556
-0.57,-0.275,6033.333333333333
-0.565,-0.23,6036.111111111111
-0.57,-0.205,6038.888888888889
-0.57,-0.2,6041.666666666667
-0.565,-0.21,6044.444444444444
-0.535,-0.225,6047.222222222223
-0.51,-0.26,6050.0
-0.48,-0.29,6052.777777777777
-0.435,-0.31,6055.555555555556
-0.41,-0.335,6058.333333333333
-0.385,-0.375,6061.111111111111
-0.37,-0.425,6063.888888888889
-0.37,-0.47,6066.666666666667
-0.35,-0.51,6069.444444444444
-0.325,-0.525,6072.222222222223
-0.29,-0.54,6075.0
-0.25,-0.53,6077.777777777777
-0.24,-0.525,6080.555555555556
-0.245,-0.535,6083.333333333333
-0.265,-0.535,6086.111111111111
-0.3,-0.565,6088.888888888889
-0.365,-0.585,6091.666666666667
-0.405,-0.6,6094.444444444444
-0.46,-0.61,6097.222222222223
-0.51,-0.61,6100.0
-0.585,-0.625,6102.777777777777
-0.64,-0.635,6105.555555555556
-0.665,-0.63,6108.333333333333
-0.7,-0.64,6111.111111111111
-0.715,-0.65,6113.888888888889
-0.715,-0.655,6116.666666666667
-0.705,-0.64,6119.444444444444
-0.71,-0.645,6122.222222222223
-0.73,-0.65,6125.0
-0.73,-0.665,6127.777777777777
-0.735,-0.68,6130.555555555556
-0.735,-0.685,6133.333333333333
-0.735,-0.7,6136.111111111111
-0.735,-0.705,6138.888888888889
-0.715,-0.685,6141.666666666667
-0.71,-0.67,6144.444444444444
-0.695,-0.665,6147.222222222223
-0.71,-0.66,6150.0
-0.72,-0.66,6152.777777777777
-0.735,-0.68,6155.555555555556
-0.72,-0.69,6158.333333333333
-0.735,-0.695,6161.111111111111
-0.73,-0.67,6163.888888888889
-0.73,-0.63,6166.666666666667
-0.75,-0.575,6169.444444444444
-0.76,-0.51,6172.222222222223
-0.765,-0.475,6175.0
-0.77,-0.46,6177.777777777777
-0.775,-0.54,6180.555555555556
-0.76,-0.695,6183.333333333333
-0.71,-0.955,6186.111111111111
-0.62,-1.29,6188.888888888889
-0.465,-1.685,6191.666666666667
-0.27,-2.08,6194.444444444444
0.005,-2.39,6197.222222222223
0.345,-2.635,6200.0
0.745,-2.795,6202.777777777777
1.165,-2.86,6205.555555555556
1.55,-2.865,6208.333333333333
1.79,-2.83,6211.111111111111
1.84,-2.8,6213.888888888889
1.635,-2.755,6216.666666666667
1.28,-2.69,6219.444444444444
0.815,-2.605,6222.222222222223
0.3,-2.415,6225.0
-0.19,-2.09,6227.777777777777
-0.615,-1.715,6230.555555555556
-0.98,-1.36,6233.333333333333
-1.25,-1.115,6236.111111111111
-1.425,-0.955,6238.888888888889
-1.48,-0.875,6241.666666666667
-1.43,-0.86,6244.444444444444
-1.315,-0.87,6247.222222222223
-1.16,-0.89,6250.0
-1.025,-0.88,6252.777777777777
-0.925,-0.885,6255.555555555556
-0.91,-0.855,6258.333333333333
-0.935,-0.84,6261.111111111111
-1.0,-0.825,6263.888888888889
-1.045,-0.795,6266.666666666667
-1.075,-0.805,6269.444444444444
-1.08,-0.79,6272.222222222223
-1.085,-0.78,6275.0
-1.065,-0.775,6277.777777777777
-1.06,-0.75,6280.555555555556
-1.06,-0.735,6283.333333333333
-1.075,-0.735,6286.111111111111
-1.075,-0.705,6288.888888888889
-1.08,-0.715,6291.666666666667
-1.09,-0.71,6294.444444444444
-1.08,-0.69,6297.222222222223
-1.105,-0.69,6300.0
-1.115,-0.68,6302.777777777777
-1.125,-0.655,6305.555555555556
-1.125,-0.64,6308.333333333333
-1.14,-0.63,6311.111111111111
-1.125,-0.62,6313.888888888889
-1.115,-0.615,6316.666666666667
-1.12,-0.61,6319.444444444444
-1.105,-0.6,6322.222222222223
-1.115,-0.595,6325.0
-1.12,-0.57,6327.777777777777
-1.125,-0.57,6330.555555555556
-1.11,-0.535,6333.333333333333
-1.09,-0.515,6336.111111111111
-1.06,-0.505,6338.888888888889
-1.025,-0.475,6341.666666666667
-0.995,-0.445,6344.444444444444
-0.985,-0.435,6347.222222222223
-0.965,-0.42,6350.0
-0.955,-0.41,6352.777777777777
-0.94,-0.395,6355.555555555556
-0.9,-0.385,6358.333333333333
-0.87,-0.375,6361.111111111111
-0.845,-0.365,6363.888888888889
-0.81,-0.365,6366.666666666667
-0.76,-0.355,6369.444444444444
-0.735,-0.33,6372.222222222223
-0.69,-0.315,6375.0
-0.64,-0.29,6377.777777777777
-0.58,-0.275,6380.555555555556
-0.54,-0.26,6383.333333333333
-0.495,-0.23,6386.111111111111
-0.45,-0.24,6388.888888888889
-0.43,-0.25,6391.666666666667
-0.41,-0.255,6394.444444444444
-0.39,-0.255,6397.222222222223
-0.36,-0.26,6400.0
-0.31,-0.255,6402.777777777777
-0.255,-0.26,6405.555555555556
-0.21,-0.245,6408.333333333333
-0.17,-0.23,6411.111111111111
-0.125,-0.235,6413.888888888889
-0.1,-0.245,6416.666666666667
-0.065,-0.255,6419.444444444444
-0.015,-0.27,6422.222222222223
0.03,-0.285,6425.0
0.085,-0.29,6427.777777777777
0.115,-0.305,6430.555555555556
0.135,-0.315,6433.333333333333
0.145,-0.335,6436.111111111111
0.15,-0.355,6438.888888888889
0.155,-0.37,6441.666666666667
0.16,-0.395,6444.444444444444
0.185,-0.39,6447.222222222223
0.215,-0.41,6450.0
0.24,-0.43,6452.777777777777
0.235,-0.445,6455.555555555556
0.225,-0.47,6458.333333333333
0.21,-0.49,6461.111111111111
0.175,-0.53,6463.888888888889
0.16,-0.535,6466.666666666667
0.145,-0.55,6469.444444444444
0.14,-0.545,6472.222222222223
0.135,-0.555,6475.0
0.11,-0.56,6477.777777777777
0.095,-0.56,6480.555555555556
0.065,-0.565,6483.333333333333
0.045,-0.585,6486.111111111111
0.015,-0.605,6488.888888888889
-0.01,-0.62,6491.666666666667
-0.015,-0.635,6494.444444444444
-0.025,-0.645,6497.222222222223
-0.06,-0.65,6500.0
-0.1,-0.64,6502.777777777777
-0.12,-0.64,6505.555555555556
-0.14,-0.625,6508.333333333333
-0.175,-0.62,6511.111111111111
-0.17,-0.615,6513.888888888889
-0.185,-0.61,6516.666666666667
-0.21,-0.595,6519.444444444444
-0.245,-0.58,6522.222222222223
-0.26,-0.575,6525.0
-0.32,-0.565,6527.777777777777
-0.365,-0.565,6530.555555555556
-0.4,-0.555,6533.333333333333
-0.415,-0.545,6536.111111111111
-0.42,-0.53,6538.888888888889
-0.425,-0.515,6541.666666666667
-0.435,-0.505,6544.444444444444
-0.445,-0.47,6547.222222222223
-0.465,-0.465,6550.0
-0.495,-0.46,6552.777777777777
-0.535,-0.445,6555.555555555556
-0.54,-0.45,6558.333333333333
-0.56,-0.44,6561.111111111111
-0.57,-0.43,6563.888888888889
-0.57,-0.39,6566.666666666667
-0.57,-0.35,6569.444444444444
-0.575,-0.31,6572.222222222223
-0.585,-0.275,6575.0
-0.575,-0.255,6577.777777777777
-0.58,-0.25,6580.555555555556
-0.575,-0.265,6583.333333333333
-0.555,-0.275,6586.111111111111
-0.545,-0.305,6588.888888888889
-0.53,-0.32,6591.666666666667
-0.515,-0.335,6594.444444444444
-0.495,-0.35,6597.222222222223
-0.465,-0.365,6600.0
-0.425,-0.375,6602.777777777777
-0.385,-0.405,6605.555555555556
-0.35,-0.445,6608.333333333333
-0.31,-0.48,6611.111111111111
-0.28,-0.505,6613.888888888889
-0.26,-0.555,6616.666666666667
-0.25,-0.565,6619.444444444444
-0.245,-0.585,6622.222222222223
-0.235,-0.595,6625.0
-0.245,-0.605,6627.777777777777
-0.255,-0.62,6630.555555555556
-0.275,-0.635,6633.333333333333
-0.3,-0.645,6636.111111111111
-0.335,-0.64,6638.888888888889
-0.385,-0.64,6641.666666666667
-0.445,-0.645,6644.444444444444
-0.505,-0.64,6647.222222222223
-0.545,-0.65,6650.0
-0.575,-0.68,6652.777777777777
-0.6,-0.7,6655.555555555556
-0.605,-0.705,6658.333333333333
-0.61,-0.71,6661.111111111111
-0.62,-0.715,6663.888888888889
-0.63,-0.71,6666.666666666667
-0.65,-0.7,6669.444444444444
-0.655,-0.705,6672.222222222223
-0.655,-0.705,6675.0
-0.63,-0.7,6677.777777777777
-0.615,-0.7,6680.555555555556
-0.615,-0.715,6683.333333333333
-0.63,-0.715,6686.111111111111
-0.625,-0.725,6688.888888888889
-0.645,-0.72,6691.666666666667
-0.65,-0.745,6694.444444444444
-0.655,-0.745,6697.222222222223
-0.65,-0.75,6700.0
-0.655,-0.76,6702.777777777777
-0.655,-0.74,6705.555555555556
-0.645,-0.7,6708.333333333333
-0.65,-0.675,6711.111111111111
-0.64,-0.62,6713.888888888889
-0.63,-0.56,6716.666666666667
-0.64,-0.5,6719.444444444444
-0.66,-0.47,6722.222222222223
-0.67,-0.48,6725.0
-0.69,-0.57,6727.777777777777
-0.705,-0.75,6730.555555555556
-0.665,-1.035,6733.333333333333
-0.55,-1.41,6736.111111111111
-0.38,-1.81,6738.888888888889
-0.125,-2.18,6741.666666666667
0.185,-2.455,6744.444444444444
0.55,-2.63,6747.222222222223
0.95,-2.73,6750.0
1.355,-2.745,6752.777777777777
1.675,-2.72,6755.555555555556
1.83,-2.67,6758.333333333333
1.785,-2.605,6761.111111111111
1.51,-2.535,6763.888888888889
1.115,-2.465,6766.666666666667
0.625,-2.365,6769.444444444444
0.13,-2.185,6772.222222222223
-0.31,-1.915,6775.0
-0.685,-1.62,6777.777777777777
-0.97,-1.36,6780.555555555556
-1.19,-1.2,6783.333333333333
-1.36,-1.095,6786.111111111111
-1.45,-1.04,6788.888888888889
-1.475,-0.995,6791.666666666667
-1.405,-0.985,6794.444444444444
-1.305,-0.945,6797.222222222223
-1.18,-0.91,6800.0
-1.07,-0.875,6802.777777777777
-0.98,-0.84,6805.555555555556
-0.935,-0.825,6808.333333333333
-0.91,-0.805,6811.111111111111
-0.92,-0.815,6813.888888888889
-0.945,-0.805,6816.666666666667
-0.97,-0.785,6819.444444444444
-0.995,-0.78,6822.222222222223
-1.025,-0.78,6825.0
-1.03,-0.76,6827.777777777777
-1.04,-0.765,6830.555555555556
-1.04,-0.765,6833.333333333333
-1.04,-0.75,6836.111111111111
-1.045,-0.73,6838.888888888889
-1.04,-0.72,6841.666666666667
-1.05,-0.695,6844.444444444444
-1.055,-0.685,6847.222222222223
-1.055,-0.695,6850.0
-1.05,-0.675,6852.777777777777
-1.05,-0.665,6855.555555555556
-1.035,-0.66,6858.333333333333
-1.04,-0.655,6861.111111111111
-1.045,-0.655,6863.888888888889
-1.06,-0.63,6866.666666666667
-1.065,-0.645,6869.444444444444
-1.07,-0.63,6872.222222222223
-1.08,-0.615,6875.0
-1.075,-0.6,6877.777777777777
-1.055,-0.575,6880.555555555556
-1.035,-0.555,6883.333333333333
-1.01,-0.53,6886.111111111111
-0.995,-0.535,6888.888888888889
-0.985,-0.52,6891.666666666667
-0.985,-0.52,6894.444444444444
-0.985,-0.52,6897.222222222223
-0.965,-0.495,6900.0
-0.955,-0.465,6902.777777777777
-0.925,-0.445,6905.555555555556
-0.885,-0.41,6908.333333333333
-0.865,-0.395,6911.111111111111
-0.825,-0.35,6913.888888888889
-0.815,-0.36,6916.666666666667
-0.785,-0.355,6919.444444444444
-0.765,-0.36,6922.222222222223
-0.74,-0.35,6925.0
-0.72,-0.36,6927.777777777777
-0.685,-0.335,6930.555555555556
-0.635,-0.315,6933.333333333333
-0.605,-0.31,6936.111111111111
-0.58,-0.31,6938.888888888889
-0.545,-0.315,6941.666666666667
-0.515,-0.29,6944.444444444444
-0.475,-0.28,6947.222222222223
-0.43,-0.28,6950.0
-0.385,-0.265,6952.777777777777
-0.355,-0.27,6955.555555555556
-0.33,-0.29,6958.333333333333
-0.3,-0.315,6961.111111111111
-0.28,-0.33,6963.888888888889
-0.245,-0.34,6966.666666666667
-0.2,-0.35,6969.444444444444
-0.155,-0.35,6972.222222222223
-0.105,-0.35,6975.0
-0.07,-0.345,6977.777777777777
-0.04,-0.355,6980.555555555556
-0.015,-0.39,6983.333333333333
0.005,-0.41,6986.111111111111
0.025,-0.45,6988.888888888889
0.03,-0.475,6991.666666666667
0.07,-0.5,6994.444444444444
0.075,-0.52,6997.222222222223
0.085,-0.53,7000.0
0.095,-0.555,7002.777777777777
0.105,-0.555,7005.555555555556
0.1,-0.575,7008.333333333333
0.09,-0.565,7011.111111111111
0.105,-0.565,7013.888888888889
0.11,-0.585,7016.666666666667
0.11,-0.585,7019.444444444444
0.1,-0.58,7022.222222222223
0.065,-0.605,7025.0
0.025,-0.61,7027.777777777777
-0.02,-0.625,7030.555555555556
-0.04,-0.635,7033.333333333333
-0.065,-0.65,7036.111111111111
-0.09,-0.645,7038.888888888889
-0.105,-0.64,7041.666666666667
-0.135,-0.615,7044.444444444444
-0.16,-0.61,7047.222222222223
-0.17,-0.605,7050.0
-0.195,-0.61,7052.777777777777
-0.21,-0.61,7055.555555555556
-0.225,-0.625,7058.333333333333
-0.255,-0.615,7061.111111111111
-0.27,-0.6,7063.888888888889
-0.32,-0.59,7066.666666666667
-0.355,-0.575,7069.444444444444
-0.375,-0.555,7072.222222222223
-0.4,-0.545,7075.0
-0.41,-0.55,7077.777777777777
-0.405,-0.525,7080.555555555556
-0.435,-0.515,7083.333333333333
-0.45,-0.495,7086.111111111111
-0.5,-0.485,7088.888888888889
-0.525,-0.475,7091.666666666667
-0.56,-0.48,7094.444444444444
-0.58,-0.485,7097.222222222223
-0.575,-0.485,7100.0
-0.6,-0.49,7102.777777777777
-0.595,-0.465,7105.555555555556
-0.6,-0.45,7108.333333333333
-0.605,-0.405,7111.111111111111
-0.605,-0.37,7113.888888888889
-0.615,-0.355,7116.666666666667
-0.61,-0.32,7119.444444444444
-0.61,-0.305,7122.222222222223
-0.595,-0.28,7125.0
-0.61,-0.255,7127.777777777777
-0.605,-0.25,7130.555555555556
-0.605,-0.24,7133.333333333333
-0.595,-0.24,7136.111111111111
-0.58,-0.23,7138.888888888889
-0.535,-0.265,7141.666666666667
-0.49,-0.285,7144.444444444444
-0.44,-0.29,7147.222222222223
-0.4,-0.315,7150.0
-0.375,-0.34,7152.777777777777
-0.36,-0.375,7155.555555555556
-0.36,-0.435,7158.333333333333
-0.35,-0.455,7161.111111111111
-0.34,-0.485,7163.888888888889
-0.33,-0.49,7166.666666666667
-0.31,-0.505,7169.444444444444
-0.28,-0.51,7172.222222222223
-0.265,-0.52,7175.0
-0.28,-0.52,7177.777777777777
-0.305,-0.53,7180.555555555556
-0.335,-0.555,7183.333333333333
-0.375,-0.56,7186.111111111111
-0.43,-0.575,7188.888888888889
-0.475,-0.6,7191.666666666667
-0.535,-0.62,7194.444444444444
-0.585,-0.65,7197.222222222223
-0.64,-0.665,7200.0
-0.68,-0.66,7202.777777777777
-0.705,-0.66,7205.555555555556
-0.715,-0.65,7208.333333333333
-0.7,-0.63,7211.111111111111
-0.695,-0.635,7213.888888888889
-0.68,-0.64,7216.666666666667
-0.685,-0.645,7219.444444444444
-0.69,-0.655,7222.222222222223
-0.705,-0.66,7225.0
-0.72,-0.66,7227.777777777777
-0.715,-0.675,7230.555555555556
-0.725,-0.67,7233.333333333333
-0.715,-0.67,7236.111111111111
-0.715,-0.68,7238.888888888889
-0.69,-0.665,7241.666666666667
-0.69,-0.67,7244.444444444444
-0.695,-0.665,7247.222222222223
-0.695,-0.68,7250.0
-0.69,-0.67,7252.777777777777
-0.7,-0.675,7255.555555555556
-0.71,-0.655,7258.333333333333
-0.705,-0.65,7261.111111111111
-0.71,-0.63,7263.888888888889
-0.715,-0.575,7266.666666666667
-0.73,-0.525,7269.444444444444
-0.745,-0.475,7272.222222222223
-0.77,-0.49,7275.0
-0.775,-0.595,7277.777777777777
-0.76,-0.8,7280.555555555556
-0.685,-1.125,7283.333333333333
-0.54,-1.505,7286.111111111111
-0.34,-1.915,7288.888888888889
-0.065,-2.25,7291.666666666667
0.25,-2.505,7294.444444444444
0.63,-2.65,7297.222222222223
1.025,-2.715,7300.0
1.4,-2.735,7302.777777777777
1.71,-2.72,7305.555555555556
1.895,-2.685,7308.333333333333
1.915,-2.63,7311.111111111111
1.75,-2.565,7313.888888888889
1.45,-2.5,7316.666666666667
1.04,-2.435,7319.444444444444
0.595,-2.325,7322.222222222223
0.125,-2.135,7325.0
-0.285,-1.855,7327.777777777777
-0.64,-1.56,7330.555555555556
-0.97,-1.285,7333.333333333333
-1.235,-1.115,7336.111111111111
-1.43,-1.01,7338.888888888889
-1.515,-0.95,7341.666666666667
-1.485,-0.935,7344.444444444444
-1.4,-0.9,7347.222222222223
-1.265,-0.88,7350.0
-1.11,-0.835,7352.777777777777
-1.015,-0.8,7355.555555555556
-0.96,-0.785,7358.333333333333
-0.965,-0.77,7361.111111111111
-1.0,-0.785,7363.888888888889
-1.05,-0.775,7366.666666666667
-1.095,-0.775,7369.444444444444
-1.125,-0.765,7372.222222222223
-1.12,-0.74,7375.0
-1.13,-0.725,7377.777777777777
-1.115,-0.705,7380.555555555556
-1.1,-0.705,7383.333333333333
-1.11,-0.69,7386.111111111111
-1.12,-0.7,7388.888888888889
-1.155,-0.695,7391.666666666667
-1.165,-0.69,7394.444444444444
-1.18,-0.69,7397.222222222223
-1.18,-0.655,7400.0
-1.18,-0.645,7402.777777777777
-1.175,-0.63,7405.555555555556
-1.16,-0.625,7408.333333333333
-1.17,-0.625,7411.111111111111
-1.175,-0.6,7413.888888888889
-1.18,-0.605,7416.666666666667
-1.19,-0.6,7419.444444444444
-1.19,-0.59,7422.222222222223
-1.195,-0.595,7425.0
-1.195,-0.585,7427.777777777777
-1.195,-0.55,7430.555555555556
-1.195,-0.54,7433.333333333333
-1.2,-0.535,7436.111111111111
-1.205,-0.52,7438.888888888889
-1.2,-0.505,7441.666666666667
-1.175,-0.475,7444.444444444444
-1.155,-0.465,7447.222222222223
-1.125,-0.45,7450.0
-1.115,-0.43,7452.777777777777
-1.11,-0.415,7455.555555555556
-1.1,-0.415,7458.333333333333
-1.105,-0.41,7461.111111111111
-1.11,-0.42,7463.888888888889
-1.085,-0.41,7466.666666666667
-1.05,-0.395,7469.444444444444
-1.025,-0.355,7472.222222222223
-0.99,-0.345,7475.0
-0.965,-0.3,7477.777777777777
-0.93,-0.285,7480.555555555556
-0.91,-0.27,7483.333333333333
-0.87,-0.28,7486.111111111111
-0.85,-0.3,7488.888888888889
-0.815,-0.305,7491.666666666667
-0.78,-0.3,7494.444444444444
-0.745,-0.285,7497.222222222223
-0.715,-0.27,7500.0
-0.685,-0.27,7502.777777777777
-0.66,-0.255,7505.555555555556
-0.635,-0.25,7508.333333333333
-0.6,-0.245,7511.111111111111
-0.555,-0.25,7513.888888888889
-0.52,-0.27,7516.666666666667
-0.475,-0.28,7519.444444444444
-0.41,-0.275,7522.222222222223
-0.38,-0.285,7525.0
-0.345,-0.285,7527.777777777777
-0.32,-0.305,7530.555555555556
-0.29,-0.32,7533.333333333333
-0.265,-0.355,7536.111111111111
-0.225,-0.355,7538.888888888889
-0.175,-0.375,7541.666666666667
-0.135,-0.37,7544.444444444444
-0.105,-0.385,7547.222222222223
-0.075,-0.385,7550.0
-0.055,-0.41,7552.777777777777
-0.05,-0.425,7555.555555555556
-0.04,-0.46,7558.333333333333
-0.04,-0.485,7561.111111111111
-0.02,-0.52,7563.888888888889
-0.015,-0.525,7566.666666666667
-0.015,-0.53,7569.444444444444
-0.01,-0.535,7572.222222222223
-0.005,-0.525,7575.0
-0.01,-0.535,7577.777777777777
-0.025,-0.55,7580.555555555556
-0.035,-0.57,7583.333333333333
-0.04,-0.575,7586.111111111111
-0.05,-0.595,7588.888888888889
-0.065,-0.595,7591.666666666667
-0.105,-0.59,7594.444444444444
-0.15,-0.6,7597.222222222223
-0.155,-0.6,7600.0
-0.205,-0.6,7602.777777777777
-0.225,-0.605,7605.555555555556
-0.225,-0.61,7608.333333333333
-0.215,-0.61,7611.111111111111
-0.225,-0.585,7613.888888888889
-0.235,-0.585,7616.666666666667
-0.265,-0.565,7619.444444444444
-0.31,-0.56,7622.222222222223
-0.335,-0.565,7625.0
-0.375,-0.56,7627.777777777777
-0.4,-0.565,7630.555555555556
-0.415,-0.56,7633.333333333333
-0.445,-0.55,7636.111111111111
-0.46,-0.53,7638.888888888889
-0.49,-0.495,7641.666666666667
-0.51,-0.475,7644.444444444444
-0.54,-0.455,7647.222222222223
-0.555,-0.445,7650.0
-0.565,-0.44,7652.777777777777
-0.575,-0.44,7655.555555555556
-0.59,-0.445,7658.333333333333
-0.595,-0.44,7661.111111111111
-0.615,-0.43,7663.888888888889
-0.64,-0.4,7666.666666666667
-0.67,-0.36,7669.444444444444
-0.675,-0.31,7672.222222222223
-0.675,-0.28,7675.0
-0.66,-0.25,7677.777777777777
-0.655,-0.205,7680.555555555556
-0.64,-0.175,7683.333333333333
-0.645,-0.17,7686.111111111111
-0.64,-0.175,7688.888888888889
-0.65,-0.205,7691.666666666667
-0.66,-0.23,7694.444444444444
-0.62,-0.26,7697.222222222223
-0.6,-0.29,7700.0
-0.555,-0.29,7702.777777777777
-0.515,-0.315,7705.555555555556
-0.475,-0.33,7708.333333333333
-0.455,-0.365,7711.111111111111
-0.435,-0.395,7713.888888888889
-0.42,-0.435,7716.666666666667
-0.415,-0.46,7719.444444444444
-0.405,-0.495,7722.222222222223
-0.375,-0.51,7725.0
-0.35,-0.53,7727.777777777777
-0.34,-0.535,7730.555555555556
-0.345,-0.55,7733.333333333333
-0.37,-0.56,7736.111111111111
-0.4,-0.56,7738.888888888889
-0.44,-0.55,7741.666666666667
-0.485,-0.545,7744.444444444444
-0.52,-0.55,7747.222222222223
-0.56,-0.565,7750.0
-0.595,-0.565,7752.777777777777
-0.64,-0.59,7755.555555555556
-0.685,-0.605,7758.333333333333
-0.74,-0.625,7761.111111111111
-0.79,-0.64,7763.888888888889
-0.815,-0.63,7766.666666666667
-0.82,-0.625,7769.444444444444
-0.785,-0.625,7772.222222222223
-0.775,-0.61,7775.0
-0.76,-0.61,7777.777777777777
-0.755,-0.62,7780.555555555556
-0.76,-0.625,7783.333333333333
-0.77,-0.635,7786.111111111111
-0.785,-0.645,7788.888888888889
-0.79,-0.655,7791.666666666667
-0.775,-0.655,7794.444444444444
-0.775,-0.665,7797.222222222223
-0.78,-0.66,7800.0
-0.775,-0.665,7802.777777777777
-0.77,-0.66,7805.555555555556
-0.775,-0.655,7808.333333333333
-0.775,-0.655,7811.111111111111
-0.775,-0.65,7813.888888888889
-0.765,-0.635,7816.666666666667
-0.76,-0.615,7819.444444444444
-0.745,-0.575,7822.222222222223
-0.76,-0.53,7825.0
-0.775,-0.485,7827.777777777777
-0.805,-0.475,7830.555555555556
-0.835,-0.505,7833.333333333333
-0.835,-0.615,7836.111111111111
-0.805,-0.795,7838.888888888889
-0.72,-1.06,7841.666666666667
-0.575,-1.38,7844.444444444444
-0.375,-1.765,7847.222222222223
-0.135,-2.11,7850.0
0.16,-2.42,7852.777777777777
0.49,-2.64,7855.555555555556
0.845,-2.78,7858.333333333333
1.22,-2.83,7861.111111111111
1.54,-2.845,7863.888888888889
1.74,-2.82,7866.666666666667
1.775,-2.78,7869.444444444444
1.61,-2.715,7872.222222222223
1.305,-2.68,7875.0
0.9,-2.63,7877.777777777777
0.45,-2.505,7880.555555555556
-0.005,-2.25,7883.333333333333
-0.42,-1.89,7886.111111111111
-0.805,-1.52,7888.888888888889
-1.125,-1.215,7891.666666666667
-1.35,-1.02,7894.444444444444
-1.485,-0.92,7897.222222222223
-1.51,-0.885,7900.0
-1.44,-0.88,7902.777777777777
-1.305,-0.885,7905.555555555556
-1.15,-0.875,7908.333333333333
-1.03,-0.855,7911.111111111111
-0.955,-0.815,7913.888888888889
-0.935,-0.78,7916.666666666667
-0.97,-0.77,7919.444444444444
-1.025,-0.765,7922.222222222223
-1.065,-0.765,7925.0
-1.1,-0.765,7927.777777777777
-1.135,-0.76,7930.555555555556
-1.13,-0.755,7933.333333333333
-1.135,-0.74,7936.111111111111
-1.125,-0.725,7938.888888888889
-1.13,-0.7,7941.666666666667
-1.125,-0.69,7944.444444444444
-1.145,-0.685,7947.222222222223
-1.145,-0.66,7950.0
-1.145,-0.66,7952.777777777777
-1.15,-0.645,7955.555555555556
-1.16,-0.64,7958.333333333333
-1.175,-0.62,7961.111111111111
-1.19,-0.615,7963.888888888889
-1.21,-0.605,7966.666666666667
-1.22,-0.59,7969.444444444444
-1.22,-0.58,7972.222222222223
-1.195,-0.565,7975.0
-1.195,-0.545,7977.777777777777
-1.19,-0.525,7980.555555555556
-1.18,-0.505,7983.333333333333
-1.18,-0.49,7986.111111111111
-1.19,-0.49,7988.888888888889
-1.195,-0.475,7991.666666666667
-1.185,-0.475,7994.444444444444
-1.18,-0.47,7997.222222222223
-1.155,-0.45,8000.0
-1.14,-0.43,8002.777777777777
-1.135,-0.405,8005.555555555556
-1.11,-0.38,8008.333333333333
-1.085,-0.36,8011.111111111111
-1.05,-0.34,8013.888888888889
-1.015,-0.33,8016.666666666667
-0.965,-0.33,8019.444444444444
-0.935,-0.305,8022.222222222223
-0.915,-0.285,8025.0
-0.89,-0.275,8027.777777777777
-0.865,-0.275,8030.555555555556
-0.835,-0.265,8033.333333333333
-0.81,-0.265,8036.111111111111
-0.76,-0.255,8038.888888888889
-0.7,-0.245,8041.666666666667
-0.635,-0.22,8044.444444444444
-0.595,-0.2,8047.222222222223
-0.54,-0.185,8050.0
-0.5,-0.195,8052.777777777777
-0.455,-0.21,8055.555555555556
-0.4,-0.225,8058.333333333333
-0.365,-0.245,8061.111111111111
-0.32,-0.25,8063.888888888889
-0.27,-0.25,8066.666666666667
-0.245,-0.24,8069.444444444444
-0.22,-0.225,8072.222222222223
-0.19,-0.24,8075.0
-0.14,-0.245,8077.777777777777
-0.095,-0.245,8080.555555555556
-0.045,-0.29,8083.333333333333
-0.005,-0.315,8086.111111111111
0.025,-0.335,8088.888888888889
0.045,-0.37,8091.666666666667
0.06,-0.375,8094.444444444444
0.065,-0.4,8097.222222222223
0.085,-0.41,8100.0
0.08,-0.43,8102.777777777777
0.09,-0.45,8105.555555555556
0.105,-0.46,8108.333333333333
0.09,-0.475,8111.111111111111
0.095,-0.47,8113.888888888889
0.095,-0.475,8116.666666666667
0.08,-0.49,8119.444444444444
0.07,-0.5,8122.222222222223
0.05,-0.54,8125.0
0.035,-0.56,8127.777777777777
0.02,-0.575,8130.555555555556
-0.025,-0.585,8133.333333333333
-0.055,-0.58,8136.111111111111
-0.065,-0.585,8138.888888888889
-0.09,-0.585,8141.666666666667
-0.09,-0.59,8144.444444444444
-0.1,-0.59,8147.222222222223
-0.12,-0.59,8150.0
-0.14,-0.58,8152.777777777777
-0.165,-0.585,8155.555555555556
-0.19,-0.585,8158.333333333333
-0.215,-0.575,8161.111111111111
-0.22,-0.57,8163.888888888889
-0.25,-0.56,8166.666666666667
-0.27,-0.565,8169.444444444444
-0.29,-0.545,8172.222222222223
-0.325,-0.515,8175.0
-0.365,-0.495,8177.777777777777
-0.4,-0.485,8180.555555555556
-0.42,-0.465,8183.333333333333
-0.425,-0.45,8186.111111111111
-0.435,-0.45,8188.888888888889
-0.46,-0.445,8191.666666666667
-0.48,-0.455,8194.444444444445
-0.51,-0.445,8197.222222222223
-0.54,-0.425,8200.0
-0.565,-0.4,8202.777777777777
-0.565,-0.375,8205.555555555555
-0.565,-0.34,8208.333333333334
-0.55,-0.31,8211.111111111111
-0.54,-0.26,8213.888888888889
-0.525,-0.225,8216.666666666666
-0.525,-0.215,8219.444444444445
-0.54,-0.215,8222.222222222223
-0.545,-0.23,8225.0
-0.53,-0.27,8227.777777777777
-0.52,-0.29,8230.555555555555
-0.49,-0.31,8233.333333333334
-0.455,-0.325,8236.111111111111
-0.415,-0.345,8238.888888888889
-0.38,-0.365,8241.666666666666
-0.35,-0.395,8244.444444444445
-0.315,-0.42,8247.222222222223
-0.31,-0.465,8250.0
-0.275,-0.51,8252.777777777777
-0.26,-0.53,8255.555555555555
-0.235,-0.55,8258.333333333334
-0.22,-0.55,8261.111111111111
-0.225,-0.57,8263.888888888889
-0.22,-0.565,8266.666666666666
-0.24,-0.585,8269.444444444445
-0.265,-0.6,8272.222222222223
-0.285,-0.615,8275.0
-0.315,-0.615,8277.777777777777
-0.36,-0.615,8280.555555555555
-0.42,-0.625,8283.333333333334
-0.48,-0.64,8286.111111111111
-0.535,-0.655,8288.888888888889
-0.59,-0.67,8291.666666666666
-0.62,-0.68,8294.444444444445
-0.63,-0.7,8297.222222222223
-0.61,-0.705,8300.0
-0.595,-0.695,8302.777777777777
-0.595,-0.68,8305.555555555555
-0.6,-0.675,8308.333333333334
-0.605,-0.675,8311.111111111111
-0.63,-0.68,8313.888888888889
-0.63,-0.69,8316.666666666666
-0.63,-0.69,8319.444444444445
-0.615,-0.69,8322.222222222223
-0.615,-0.69,8325.0
-0.605,-0.7,8327.777777777777
-0.61,-0.71,8330.555555555555
-0.625,-0.73,8333.333333333334
-0.625,-0.73,8336.111111111111
-0.605,-0.73,8338.888888888889
-0.615,-0.71,8341.666666666666
-0.605,-0.695,8344.444444444445
-0.6,-0.64,8347.222222222223
-0.605,-0.6,8350.0
-0.62,-0.555,8352.777777777777
-0.645,-0.51,8355.555555555555
-0.67,-0.53,8358.333333333334
-0.665,-0.61,8361.111111111111
-0.645,-0.795,8363.888888888889
-0.575,-1.105,8366.666666666666
-0.43,-1.49,8369.444444444445
-0.235,-1.91,8372.222222222223
0.015,-2.285,8375.0
0.315,-2.565,8377.777777777777
0.655,-2.75,8380.555555555555
1.04,-2.865,8383.333333333334
1.4,-2.91,8386.111111111111
1.7,-2.91,8388.888888888889
1.83,-2.89,8391.666666666666
1.755,-2.86,8394.444444444445
1.465,-2.82,8397.222222222223
1.055,-2.765,8400.0
0.595,-2.695,8402.777777777777
0.11,-2.54,8405.555555555555
-0.295,-2.25,8408.333333333334
-0.65,-1.865,8411.111111111111
-0.925,-1.49,8413.888888888889
-1.135,-1.195,8416.666666666666
-1.285,-0.985,8419.444444444445
-1.38,-0.91,8422.222222222223
-1.375,-0.89,8425.0
-1.295,-0.9,8427.777777777777
-1.165,-0.91,8430.555555555555
-1.035,-0.905,8433.333333333334
-0.935,-0.875,8436.111111111111
-0.88,-0.845,8438.888888888889
-0.88,-0.805,8441.666666666666
-0.905,-0.785,8444.444444444445
-0.94,-0.77,8447.222222222223
-0.965,-0.76,8450.0
-0.975,-0.75,8452.777777777777
-0.99,-0.745,8455.555555555555
-1.0,-0.755,8458.333333333334
-1.01,-0.73,8461.111111111111
-1.015,-0.72,8463.888888888889
-1.025,-0.7,8466.666666666666
-1.045,-0.685,8469.444444444445
-1.025,-0.67,8472.222222222223
-1.02,-0.665,8475.0
-1.025,-0.63,8477.777777777777
-1.03,-0.615,8480.555555555555
-1.045,-0.6,8483.333333333334
-1.05,-0.59,8486.111111111111
-1.07,-0.595,8488.888888888889
-1.075,-0.595,8491.666666666666
-1.065,-0.59,8494.444444444445
-1.05,-0.595,8497.222222222223
-1.06,-0.575,8500.0
-1.055,-0.555,8502.777777777777
-1.055,-0.525,8505.555555555555
-1.05,-0.5,8508.333333333334
-1.055,-0.49,8511.111111111111
-1.03,-0.48,8513.888888888889
-1.005,-0.46,8516.666666666666
-0.97,-0.445,8519.444444444445
-0.95,-0.43,8522.222222222223
-0.94,-0.425,8525.0
-0.94,-0.415,8527.777777777777
-0.935,-0.4,8530.555555555555
-0.93,-0.375,8533.333333333334
-0.905,-0.36,8536.111111111111
-0.875,-0.335,8538.888888888889
-0.84,-0.31,8541.666666666666
-0.81,-0.29,8544.444444444445
-0.795,-0.275,8547.222222222223
-0.77,-0.26,8550.0
-0.735,-0.26,8552.777777777777
-0.715,-0.235,8555.555555555555
-0.68,-0.235,8558.333333333334
-0.645,-0.235,8561.111111111111
-0.6,-0.24,8563.888888888889
-0.555,-0.225,8566.666666666666
-0.52,-0.22,8569.444444444445
-0.495,-0.205,8572.222222222223
-0.465,-0.2,8575.0
-0.435,-0.17,8577.777777777777
-0.4,-0.175,8580.555555555555
-0.34,-0.165,8583.333333333334
-0.295,-0.175,8586.111111111111
-0.24,-0.175,8588.888888888889
-0.19,-0.195,8591.666666666666
-0.165,-0.22,8594.444444444445
-0.15,-0.23,8597.222222222223
-0.13,-0.235,8600.0
-0.105,-0.23,8602.777777777777
-0.065,-0.235,8605.555555555555
-0.025,-0.225,8608.333333333334
0.005,-0.24,8611.111111111111
0.03,-0.25,8613.888888888889
0.055,-0.28,8616.666666666666
0.075,-0.3,8619.444444444445
0.105,-0.315,8622.222222222223
0.12,-0.335,8625.0
0.14,-0.36,8627.777777777777
0.15,-0.39,8630.555555555555
0.16,-0.395,8633.333333333334
0.145,-0.415,8636.111111111111
0.12,-0.425,8638.888888888889
0.1,-0.44,8641.666666666666
0.09,-0.45,8644.444444444445
0.08,-0.46,8647.222222222223
0.07,-0.455,8650.0
0.08,-0.475,8652.777777777777
0.085,-0.48,8655.555555555555
0.07,-0.495,8658.333333333334
0.055,-0.52,8661.111111111111
0.02,-0.54,8663.888888888889
-0.005,-0.555,8666.666666666666
-0.045,-0.565,8669.444444444445
-0.08,-0.57,8672.222222222223
-0.095,-0.565,8675.0
-0.11,-0.57,8677.777777777777
-0.11,-0.56,8680.555555555555
-0.135,-0.555,8683.333333333334
-0.16,-0.555,8686.111111111111
-0.19,-0.56,8688.888888888889
-0.225,-0.56,8691.666666666666
-0.245,-0.54,8694.444444444445
-0.275,-0.535,8697.222222222223
-0.29,-0.535,8700.0
-0.335,-0.515,8702.777777777777
-0.345,-0.505,8705.555555555555
-0.38,-0.5,8708.333333333334
-0.4,-0.49,8711.111111111111
-0.44,-0.46,8713.888888888889
-0.43,-0.465,8716.666666666666
-0.455,-0.45,8719.444444444445
-0.49,-0.44,8722.222222222223
-0.51,-0.445,8725.0
-0.545,-0.435,8727.777777777777
-0.58,-0.455,8730.555555555555
-0.61,-0.465,8733.333333333334
-0.61,-0.445,8736.111111111111
-0.62,-0.425,8738.888888888889
-0.62,-0.395,8741.666666666666
-0.62,-0.355,8744.444444444445
-0.61,-0.32,8747.222222222223
-0.625,-0.29,8750.0
-0.625,-0.29,8752.777777777777
-0.64,-0.275,8755.555555555555
-0.65,-0.26,8758.333333333334
-0.665,-0.215,8761.111111111111
-0.675,-0.205,8763.888888888889
-0.68,-0.195,8766.666666666666
-0.67,-0.195,8769.444444444445
-0.64,-0.215,8772.222222222223
-0.6,-0.24,8775.0
-0.555,-0.26,8777.777777777777
-0.505,-0.285,8780.555555555555
-0.455,-0.295,8783.333333333334
-0.415,-0.295,8786.111111111111
-0.405,-0.31,8788.888888888889
-0.395,-0.355,8791.666666666666
-0.375,-0.4,8794.444444444445
-0.375,-0.455,8797.222222222223
-0.365,-0.49,8800.0
-0.34,-0.495,8802.777777777777
-0.3,-0.51,8805.555555555555
-0.28,-0.5,8808.333333333334
-0.27,-0.5,8811.111111111111
-0.275,-0.49,8813.888888888889
-0.3,-0.505,8816.666666666666
-0.345,-0.51,8819.444444444445
-0.395,-0.525,8822.222222222223
-0.465,-0.56,8825.0
-0.52,-0.58,8827.777777777777
-0.57,-0.6,8830.555555555555
-0.615,-0.595,8833.333333333334
-0.645,-0.605,8836.111111111111
-0.67,-0.615,8838.888888888889
-0.69,-0.61,8841.666666666666
-0.715,-0.61,8844.444444444445
-0.705,-0.62,8847.222222222223
-0.7,-0.625,8850.0
-0.695,-0.635,8852.777777777777
-0.7,-0.64,8855.555555555555
-0.715,-0.635,8858.333333333334
-0.7,-0.655,8861.111111111111
-0.715,-0.655,8863.888888888889
-0.71,-0.655,8866.666666666666
-0.72,-0.66,8869.444444444445
-0.725,-0.66,8872.222222222223
-0.715,-0.655,8875.0
-0.705,-0.65,8877.777777777777
-0.695,-0.65,8880.555555555555
-0.68,-0.645,8883.333333333334
-0.69,-0.635,8886.111111111111
-0.675,-0.64,8888.888888888889
-0.695,-0.645,8891.666666666666
-0.7,-0.62,8894.444444444445
-0.7,-0.605,8897.222222222223
-0.7,-0.58,8900.0
-0.725,-0.52,8902.777777777777
-0.735,-0.46,8905.555555555555
-0.77,-0.45,8908.333333333334
-0.785,-0.505,8911.111111111111
-0.785,-0.665,8913.888888888889
-0.72,-0.965,8916.666666666666
-0.595,-1.37,8919.444444444445
-0.38,-1.79,8922.222222222223
-0.105,-2.165,8925.0
0.255,-2.415,8927.777777777777
0.635,-2.575,8930.555555555555
1.05,-2.62,8933.333333333334
1.435,-2.635,8936.111111111111
1.75,-2.595,8938.888888888889
1.905,-2.54,8941.666666666666
1.86,-2.49,8944.444444444445
1.615,-2.43,8947.222222222223
1.26,-2.345,8950.0
0.82,-2.255,8952.777777777777
0.355,-2.095,8955.555555555555
-0.1,-1.865,8958.333333333334
-0.52,-1.575,8961.111111111111
-0.905,-1.34,8963.888888888889
-1.22,-1.145,8966.666666666666
-1.445,-0.99,8969.444444444445
-1.525,-0.915,8972.222222222223
-1.515,-0.86,8975.0
-1.395,-0.82,8977.777777777777
-1.25,-0.785,8980.555555555555
-1.115,-0.755,8983.333333333334
-1.02,-0.74,8986.111111111111
-0.955,-0.72,8988.888888888889
-0.96,-0.715,8991.666666666666
-0.99,-0.705,8994.444444444445
-1.025,-0.715,8997.222222222223
-1.08,-0.705,9000.0
-1.105,-0.695,9002.777777777777
-1.11,-0.685,9005.555555555555
-1.105,-0.655,9008.333333333334
-1.08,-0.645,9011.111111111111
-1.075,-0.645,9013.888888888889
-1.08,-0.64,9016.666666666666
-1.095,-0.645,9019.444444444445
-1.115,-0.63,9022.222222222223
-1.14,-0.61,9025.0
-1.15,-0.605,9027.777777777777
-1.155,-0.6,9030.555555555555
-1.15,-0.595,9033.333333333334
-1.16,-0.59,9036.111111111111
-1.16,-0.58,9038.888888888889
-1.17,-0.57,9041.666666666666
-1.16,-0.565,9044.444444444445
-1.15,-0.545,9047.222222222223
-1.12,-0.52,9050.0
-1.1,-0.505,9052.777777777777
-1.085,-0.49,9055.555555555555
-1.09,-0.485,9058.333333333334
-1.09,-0.465,9061.111111111111
-1.1,-0.465,9063.888888888889
-1.1,-0.445,9066.666666666666
-1.08,-0.425,9069.444444444445
-1.07,-0.4,9072.222222222223
-1.045,-0.38,9075.0
-1.02,-0.375,9077.777777777777
-0.995,-0.345,9080.555555555555
-0.97,-0.35,9083.333333333334
-0.955,-0.335,9086.111111111111
-0.925,-0.325,9088.888888888889
-0.9,-0.305,9091.666666666666
-0.87,-0.3,9094.444444444445
-0.835,-0.285,9097.222222222223
-0.815,-0.27,9100.0
-0.8,-0.265,9102.777777777777
-0.78,-0.265,9105.555555555555
-0.75,-0.255,9108.333333333334
-0.71,-0.235,9111.111111111111
-0.66,-0.225,9113.888888888889
-0.615,-0.2,9116.666666666666
-0.57,-0.205,9119.444444444445
-0.525,-0.21,9122.222222222223
-0.5,-0.22,9125.0
-0.475,-0.225,9127.777777777777
-0.435,-0.245,9130.555555555555
-0.4,-0.24,9133.333333333334
-0.355,-0.25,9136.111111111111
-0.31,-0.245,9138.888888888889
-0.27,-0.245,9141.666666666666
-0.25,-0.25,9144.444444444445
-0.235,-0.27,9147.222222222223
-0.185,-0.295,9150.0
-0.155,-0.315,9152.777777777777
-0.115,-0.33,9155.555555555555
-0.095,-0.355,9158.333333333334
-0.075,-0.375,9161.111111111111
-0.055,-0.405,9163.888888888889
-0.055,-0.435,9166.666666666666
-0.035,-0.445,9169.444444444445
-0.02,-0.465,9172.222222222223
-0.005,-0.48,9175.0
0.015,-0.48,9177.777777777777
0.04,-0.47,9180.555555555555
0.05,-0.48,9183.333333333334
0.04,-0.5,9186.111111111111
0.02,-0.52,9188.888888888889
-0.005,-0.54,9191.666666666666
-0.035,-0.555,9194.444444444445
-0.055,-0.575,9197.222222222223
-0.06,-0.57,9200.0
-0.075,-0.58,9202.777777777777
-0.085,-0.57,9205.555555555555
-0.115,-0.545,9208.333333333334
-0.14,-0.54,9211.111111111111
-0.15,-0.535,9213.888888888889
-0.18,-0.54,9216.666666666666
-0.2,-0.56,9219.444444444445
-0.21,-0.565,9222.222222222223
-0.23,-0.565,9225.0
-0.255,-0.56,9227.777777777777
-0.3,-0.54,9230.555555555555
-0.335,-0.545,9233.333333333334
-0.38,-0.53,9236.111111111111
-0.39,-0.515,9238.888888888889
-0.415,-0.51,9241.666666666666
-0.425,-0.485,9244.444444444445
-0.44,-0.475,9247.222222222223
-0.46,-0.46,9250.0
-0.48,-0.445,9252.777777777777
-0.52,-0.43,9255.555555555555
-0.545,-0.435,9258.333333333334
-0.58,-0.44,9261.111111111111
-0.6,-0.44,9263.888888888889
-0.625,-0.435,9266.666666666666
-0.635,-0.415,9269.444444444445
-0.65,-0.4,9272.222222222223
-0.64,-0.365,9275.0
-0.64,-0.35,9277.777777777777
-0.655,-0.32,9280.555555555555
-0.66,-0.295,9283.333333333334
-0.645,-0.28,9286.111111111111
-0.645,-0.26,9288.888888888889
-0.635,-0.235,9291.666666666666
-0.645,-0.2,9294.444444444445
-0.65,-0.17,9297.222222222223
-0.66,-0.165,9300.0
-0.66,-0.165,9302.777777777777
-0.635,-0.195,9305.555555555555
-0.6,-0.225,9308.333333333334
-0.55,-0.235,9311.111111111111
-0.505,-0.255,9313.888888888889
-0.465,-0.265,9316.666666666666
-0.435,-0.295,9319.444444444445
-0.42,-0.335,9322.222222222223
-0.415,-0.375,9325.0
-0.395,-0.415,9327.777777777777
-0.375,-0.445,9330.555555555555
-0.36,-0.475,9333.333333333334
-0.345,-0.475,9336.111111111111
-0.34,-0.475,9338.888888888889
-0.34,-0.47,9341.666666666666
-0.35,-0.47,9344.444444444445
-0.37,-0.47,9347.222222222223
-0.41,-0.48,9350.0
-0.455,-0.505,9352.777777777777
-0.5,-0.53,9355.555555555555
-0.55,-0.555,9358.333333333334
-0.615,-0.58,9361.111111111111
-0.67,-0.595,9363.888888888889
-0.71,-0.595,9366.666666666666
-0.75,-0.595,9369.444444444445
-0.77,-0.585,9372.222222222223
-0.755,-0.585,9375.0
-0.73,-0.585,9377.777777777777
-0.73,-0.585,9380.555555555555
-0.735,-0.6,9383.333333333334
-0.75,-0.615,9386.111111111111
-0.765,-0.605,9388.888888888889
-0.77,-0.615,9391.666666666666
-0.775,-0.63,9394.444444444445
-0.78,-0.625,9397.222222222223
-0.775,-0.635,9400.0
-0.79,-0.63,9402.777777777777
-0.79,-0.635,9405.555555555555
-0.795,-0.635,9408.333333333334
-0.795,-0.63,9411.111111111111
-0.765,-0.61,9413.888888888889
-0.76,-0.59,9416.666666666666
-0.745,-0.58,9419.444444444445
-0.73,-0.575,9422.222222222223
-0.74,-0.525,9425.0
-0.765,-0.485,9427.777777777777
-0.805,-0.445,9430.555555555555
-0.835,-0.455,9433.333333333334
-0.86,-0.535,9436.111111111111
-0.825,-0.705,9438.888888888889
-0.745,-0.99,9441.666666666666
-0.615,-1.36,9444.444444444445
-0.4,-1.74,9447.222222222223
-0.15,-2.115,9450.0
0.195,-2.385,9452.777777777777
0.56,-2.57,9455.555555555555
0.96,-2.675,9458.333333333334
1.345,-2.72,9461.111111111111
1.66,-2.705,9463.888888888889
1.83,-2.67,9466.666666666666
1.81,-2.65,9469.444444444445
1.61,-2.615,9472.222222222223
1.29,-2.56,9475.0
0.92,-2.495,9477.777777777777
0.515,-2.375,9480.555555555555
0.105,-2.175,9483.333333333334
-0.295,-1.875,9486.111111111111
-0.67,-1.525,9488.888888888889
-1.015,-1.245,9491.666666666666
-1.29,-1.035,9494.444444444445
-1.485,-0.925,9497.222222222223
-1.535,-0.86,9500.0
-1.475,-0.84,9502.777777777777
-1.35,-0.82,9505.555555555555
-1.185,-0.805,9508.333333333334
-1.075,-0.78,9511.111111111111
-0.995,-0.76,9513.888888888889
-0.975,-0.74,9516.666666666666
-1.02,-0.74,9519.444444444445
-1.08,-0.735,9522.222222222223
-1.12,-0.72,9525.0
-1.145,-0.72,9527.777777777777
-1.155,-0.705,9530.555555555555
-1.145,-0.69,9533.333333333334
-1.15,-0.675,9536.111111111111
-1.14,-0.675,9538.888888888889
-1.15,-0.665,9541.666666666666
-1.16,-0.67,9544.444444444445
-1.17,-0.65,9547.222222222223
-1.175,-0.635,9550.0
-1.175,-0.625,9552.777777777777
-1.17,-0.6,9555.555555555555
-1.18,-0.6,9558.333333333334
-1.195,-0.585,9561.111111111111
-1.215,-0.585,9563.888888888889
-1.235,-0.6,9566.666666666666
-1.25,-0.59,9569.444444444445
-1.26,-0.575,9572.222222222223
-1.24,-0.555,9575.0
-1.23,-0.52,9577.777777777777
-1.215,-0.49,9580.555555555555
-1.215,-0.475,9583.333333333334
-1.205,-0.485,9586.111111111111
-1.215,-0.485,9588.888888888889
-1.21,-0.47,9591.666666666666
-1.22,-0.465,9594.444444444445
-1.205,-0.455,9597.222222222223
-1.185,-0.45,9600.0
-1.18,-0.41,9602.777777777777
-1.175,-0.39,9605.555555555555
-1.16,-0.38,9608.333333333334
-1.145,-0.36,9611.111111111111
-1.135,-0.35,9613.888888888889
-1.095,-0.34,9616.666666666666
-1.065,-0.32,9619.444444444445
-1.03,-0.3,9622.222222222223
-1.01,-0.285,9625.0
-0.995,-0.29,9627.777777777777
-0.98,-0.27,9630.555555555555
-0.95,-0.27,9633.333333333334
-0.925,-0.265,9636.111111111111
-0.89,-0.26,9638.888888888889
-0.845,-0.235,9641.666666666666
-0.78,-0.22,9644.444444444445
-0.73,-0.205,9647.222222222223
-0.695,-0.185,9650.0
-0.665,-0.185,9652.777777777777
-0.635,-0.195,9655.555555555555
-0.605,-0.215,9658.333333333334
-0.545,-0.22,9661.111111111111
-0.505,-0.23,9663.888888888889
-0.46,-0.235,9666.666666666666
-0.41,-0.24,9669.444444444445
-0.37,-0.24,9672.222222222223
-0.325,-0.24,9675.0
-0.285,-0.25,9677.777777777777
-0.25,-0.26,9680.555555555555
-0.185,-0.26,9683.333333333334
-0.145,-0.28,9686.111111111111
-0.11,-0.29,9688.888888888889
-0.075,-0.315,9691.666666666666
-0.07,-0.34,9694.444444444445
-0.065,-0.35,9697.222222222223
-0.06,-0.385,9700.0
-0.045,-0.39,9702.777777777777
-0.015,-0.41,9705.555555555555
0.005,-0.415,9708.333333333334
0.03,-0.42,9711.111111111111
0.035,-0.43,9713.888888888889
0.045,-0.43,9716.666666666666
0.035,-0.46,9719.444444444445
0.025,-0.47,9722.222222222223
0.01,-0.5,9725.0
-0.01,-0.525,9727.777777777777
-0.015,-0.55,9730.555555555555
-0.04,-0.55,9733.333333333334
-0.07,-0.545,9736.111111111111
-0.085,-0.52,9738.888888888889
-0.12,-0.535,9741.666666666666
-0.135,-0.525,9744.444444444445
-0.15,-0.52,9747.222222222223
-0.17,-0.525,9750.0
-0.17,-0.525,9752.777777777777
-0.175,-0.535,9755.555555555555
-0.2,-0.53,9758.333333333334
-0.24,-0.535,9761.111111111111
-0.27,-0.53,9763.888888888889
-0.31,-0.525,9766.666666666666
-0.34,-0.505,9769.444444444445
-0.355,-0.505,9772.222222222223
-0.365,-0.495,9775.0
-0.395,-0.485,9777.777777777777
-0.415,-0.465,9780.555555555555
-0.44,-0.445,9783.333333333334
-0.475,-0.44,9786.111111111111
-0.49,-0.43,9788.888888888889
-0.515,-0.425,9791.666666666666
-0.525,-0.42,9794.444444444445
-0.54,-0.44,9797.222222222223
-0.56,-0.435,9800.0
-0.57,-0.415,9802.777777777777
-0.595,-0.38,9805.555555555555
-0.615,-0.35,9808.333333333334
-0.63,-0.305,9811.111111111111
-0.645,-0.27,9813.888888888889
-0.64,-0.235,9816.666666666666
-0.635,-0.19,9819.444444444445
-0.625,-0.17,9822.222222222223
-0.635,-0.15,9825.0
-0.655,-0.125,9827.777777777777
-0.66,-0.125,9830.555555555555
-0.685,-0.15,9833.333333333334
-0.67,-0.155,9836.111111111111
-0.665,-0.19,9838.888888888889
-0.615,-0.205,9841.666666666666
-0.56,-0.23,9844.444444444445
-0.53,-0.225,9847.222222222223
-0.485,-0.255,9850.0
-0.465,-0.295,9852.777777777777
-0.455,-0.32,9855.555555555555
-0.445,-0.36,9858.333333333334
-0.44,-0.41,9861.111111111111
-0.42,-0.435,9863.888888888889
-0.395,-0.47,9866.666666666666
-0.37,-0.49,9869.444444444445
-0.36,-0.495,9872.222222222223
-0.35,-0.475,9875.0
-0.35,-0.475,9877.777777777777
-0.37,-0.48,9880.555555555555
-0.39,-0.475,9883.333333333334
-0.42,-0.495,9886.111111111111
-0.455,-0.505,9888.888888888889
-0.505,-0.525,9891.666666666666
-0.56,-0.555,9894.444444444445
-0.625,-0.575,9897.222222222223
-0.695,-0.58,9900.0
-0.75,-0.585,9902.777777777777
-0.78,-0.59,9905.555555555555
-0.795,-0.575,9908.333333333334
-0.795,-0.57,9911.111111111111
-0.77,-0.575,9913.888888888889
-0.745,-0.58,9916.666666666666
-0.75,-0.6,9919.444444444445
-0.765,-0.595,9922.222222222223
-0.77,-0.61,9925.0
-0.785,-0.62,9927.777777777777
-0.79,-0.625,9930.555555555555
-0.79,-0.625,9933.333333333334
-0.78,-0.62,9936.111111111111
-0.775,-0.625,9938.888888888889
-0.78,-0.62,9941.666666666666
-0.78,-0.615,9944.444444444445
-0.775,-0.61,9947.222222222223
-0.765,-0.605,9950.0
-0.76,-0.6,9952.777777777777
-0.755,-0.58,9955.555555555555
-0.745,-0.575,9958.333333333334
-0.745,-0.545,9961.111111111111
-0.765,-0.51,9963.888888888889
-0.79,-0.465,9966.666666666666
-0.82,-0.42,9969.444444444445
-0.855,-0.4,9972.222222222223
-0.87,-0.45,9975.0
-0.84,-0.58,9977.777777777777
-0.78,-0.775,9980.555555555555
-0.66,-1.075,9983.333333333334
-0.495,-1.46,9986.111111111111
-0.28,-1.86,9988.888888888889
-0.02,-2.225,9991.666666666666
0.325,-2.505,9994.444444444445
0.695,-2.69,9997.222222222223
1.13,-2.8,10000.0
1.51,-2.835,10002.777777777777
1.765,-2.815,10005.555555555555
1.845,-2.785,10008.333333333334
1.71,-2.73,10011.111111111111
1.42,-2.7,10013.888888888889
1.02,-2.67,10016.666666666666
0.565,-2.63,10019.444444444445
0.1,-2.49,10022.222222222223
-0.31,-2.235,10025.0
-0.645,-1.865,10027.777777777777
-0.925,-1.49,10030.555555555555
-1.15,-1.18,10033.333333333334
-1.325,-0.97,10036.111111111111
-1.415,-0.855,10038.888888888889
-1.42,-0.835,10041.666666666666
-1.35,-0.825,10044.444444444445
-1.22,-0.835,10047.222222222223
-1.075,-0.83,10050.0
-0.98,-0.815,10052.777777777777
-0.94,-0.795,10055.555555555555
-0.965,-0.765,10058.333333333334
-1.015,-0.77,10061.111111111111
-1.07,-0.76,10063.888888888889
-1.095,-0.75,10066.666666666666
-1.1,-0.735,10069.444444444445
-1.1,-0.725,10072.222222222223
-1.09,-0.69,10075.0
-1.09,-0.68,10077.777777777777
-1.09,-0.67,10080.555555555555
-1.105,-0.66,10083.333333333334
-1.115,-0.655,10086.111111111111
-1.12,-0.655,10088.888888888889
-1.115,-0.645,10091.666666666666
-1.12,-0.65,10094.444444444445
-1.12,-0.635,10097.222222222223
-1.13,-0.625,10100.0
-1.145,-0.62,10102.777777777777
-1.155,-0.595,10105.555555555555
-1.16,-0.575,10108.333333333334
-1.155,-0.565,10111.111111111111
-1.14,-0.55,10113.888888888889
-1.13,-0.53,10116.666666666666
-1.13,-0.52,10119.444444444445
-1.125,-0.495,10122.222222222223
-1.13,-0.505,10125.0
-1.145,-0.5,10127.777777777777
-1.155,-0.495,10130.555555555555
-1.155,-0.49,10133.333333333334
-1.13,-0.47,10136.111111111111
-1.105,-0.46,10138.888888888889
-1.075,-0.42,10141.666666666666
-1.045,-0.39,10144.444444444445
-1.02,-0.375,10147.222222222223
-1.005,-0.36,10150.0
-0.99,-0.35,10152.777777777777
-0.965,-0.335,10155.555555555555
-0.945,-0.32,10158.333333333334
-0.915,-0.31,10161.111111111111
-0.88,-0.285,10163.888888888889
-0.85,-0.285,10166.666666666666
-0.83,-0.27,10169.444444444445
-0.805,-0.245,10172.222222222223
-0.77,-0.235,10175.0
-0.74,-0.22,10177.777777777777
-0.695,-0.215,10180.555555555555
-0.635,-0.205,10183.333333333334
-0.585,-0.19,10186.111111111111
-0.535,-0.185,10188.888888888889
-0.49,-0.17,10191.666666666666
-0.465,-0.16,10194.444444444445
-0.455,-0.15,10197.222222222223
-0.425,-0.17,10200.0
-0.4,-0.17,10202.777777777777
-0.355,-0.16,10205.555555555555
-0.31,-0.16,10208.333333333334
-0.26,-0.15,10211.111111111111
-0.215,-0.15,10213.888888888889
-0.17,-0.15,10216.666666666666
-0.14,-0.155,10219.444444444445
-0.105,-0.14,10222.222222222223
-0.05,-0.175,10225.0
-0.005,-0.185,10227.777777777777
0.035,-0.205,10230.555555555555
0.065,-0.24,10233.333333333334
0.075,-0.25,10236.111111111111
0.085,-0.255,10238.888888888889
0.105,-0.26,10241.666666666666
0.125,-0.265,10244.444444444445
0.14,-0.275,10247.222222222223
0.16,-0.285,10250.0
0.175,-0.305,10252.777777777777
0.185,-0.325,10255.555555555555
0.19,-0.345,10258.333333333334
0.185,-0.36,10261.111111111111
0.175,-0.385,10263.888888888889
0.155,-0.39,10266.666666666666
0.13,-0.395,10269.444444444445
0.115,-0.41,10272.222222222223
0.11,-0.415,10275.0
0.105,-0.43,10277.777777777777
0.105,-0.445,10280.555555555555
0.09,-0.455,10283.333333333334
0.07,-0.47,10286.111111111111
0.035,-0.475,10288.888888888889
0.015,-0.48,10291.666666666666
-0.015,-0.495,10294.444444444445
-0.035,-0.515,10297.222222222223
-0.055,-0.545,10300.0
-0.07,-0.545,10302.777777777777
-0.1,-0.545,10305.555555555555
-0.125,-0.545,10308.333333333334
-0.14,-0.525,10311.111111111111
-0.155,-0.52,10313.888888888889
-0.18,-0.505,10316.666666666666
-0.2,-0.515,10319.444444444445
-0.23,-0.505,10322.222222222223
-0.245,-0.515,10325.0
-0.26,-0.505,10327.777777777777
-0.295,-0.505,10330.555555555555
-0.33,-0.5,10333.333333333334
-0.37,-0.485,10336.111111111111
-0.405,-0.47,10338.888888888889
-0.425,-0.455,10341.666666666666
-0.445,-0.445,10344.444444444445
-0.465,-0.42,10347.222222222223
-0.485,-0.415,10350.0
-0.495,-0.41,10352.777777777777
-0.52,-0.41,10355.555555555555
-0.56,-0.4,10358.333333333334
-0.575,-0.395,10361.111111111111
-0.585,-0.375,10363.888888888889
-0.59,-0.36,10366.666666666666
-0.595,-0.325,10369.444444444445
-0.61,-0.31,10372.222222222223
-0.615,-0.295,10375.0
-0.635,-0.275,10377.777777777777
-0.64,-0.23,10380.555555555555
-0.66,-0.205,10383.333333333334
-0.675,-0.17,10386.111111111111
-0.67,-0.145,10388.888888888889
-0.66,-0.13,10391.666666666666
-0.635,-0.145,10394.444444444445
-0.605,-0.16,10397.222222222223
-0.595,-0.195,10400.0
-0.565,-0.225,10402.777777777777
-0.54,-0.25,10405.555555555555
-0.515,-0.265,10408.333333333334
-0.475,-0.265,10411.111111111111
-0.445,-0.29,10413.888888888889
-0.395,-0.315,10416.666666666666
-0.36,-0.37,10419.444444444445
-0.335,-0.415,10422.222222222223
-0.32,-0.445,10425.0
-0.315,-0.48,10427.777777777777
-0.31,-0.5,10430.555555555555
-0.3,-0.505,10433.333333333334
-0.295,-0.495,10436.111111111111
-0.3,-0.48,10438.888888888889
-0.3,-0.485,10441.666666666666
-0.32,-0.485,10444.444444444445
-0.37,-0.49,10447.222222222223
-0.425,-0.51,10450.0
-0.505,-0.53,10452.777777777777
-0.57,-0.55,10455.555555555555
-0.63,-0.555,10458.333333333334
-0.665,-0.57,10461.111111111111
-0.685,-0.57,10463.888888888889
-0.705,-0.58,10466.666666666666
-0.7,-0.595,10469.444444444445
-0.715,-0.595,10472.222222222223
-0.725,-0.61,10475.0
-0.72,-0.6,10477.777777777777
-0.725,-0.6,10480.555555555555
-0.695,-0.58,10483.333333333334
-0.705,-0.565,10486.111111111111
-0.69,-0.575,10488.888888888889
-0.695,-0.59,10491.666666666666
-0.715,-0.585,10494.444444444445
-0.715,-0.615,10497.222222222223
-0.715,-0.62,10500.0
-0.73,-0.63,10502.777777777777
-0.735,-0.625,10505.555555555555
-0.71,-0.605,10508.333333333334
-0.7,-0.6,10511.111111111111
-0.685,-0.585,10513.888888888889
-0.675,-0.575,10516.666666666666
-0.685,-0.565,10519.444444444445
-0.705,-0.55,10522.222222222223
-0.71,-0.525,10525.0
-0.725,-0.49,10527.777777777777
-0.735,-0.435,10530.555555555555
-0.75,-0.38,10533.333333333334
-0.775,-0.36,10536.111111111111
-0.78,-0.4,10538.888888888889
-0.785,-0.53,10541.666666666666
-0.72,-0.775,10544.444444444445
-0.64,-1.125,10547.222222222223
-0.465,-1.53,10550.0
-0.23,-1.935,10552.777777777777
0.055,-2.25,10555.555555555555
0.415,-2.495,10558.333333333334
0.795,-2.615,10561.111111111111
1.185,-2.655,10563.888888888889
1.52,-2.65,10566.666666666666
1.755,-2.63,10569.444444444445
1.79,-2.57,10572.222222222223
1.625,-2.515,10575.0
1.315,-2.45,10577.777777777777
0.92,-2.395,10580.555555555555
0.49,-2.34,10583.333333333334
0.05,-2.225,10586.111111111111
-0.34,-2.02,10588.888888888889
-0.65,-1.745,10591.666666666666
-0.895,-1.465,10594.444444444445
-1.115,-1.225,10597.222222222223
-1.295,-1.065,10600.0
-1.435,-0.95,10602.777777777777
-1.49,-0.885,10605.555555555555
-1.45,-0.845,10608.333333333334
-1.36,-0.81,10611.111111111111
-1.235,-0.78,10613.888888888889
-1.115,-0.76,10616.666666666666
-1.045,-0.735,10619.444444444445
-0.99,-0.715,10622.222222222223
-0.965,-0.705,10625.0
-0.985,-0.695,10627.777777777777
-1.005,-0.7,10630.555555555555
-1.055,-0.695,10633.333333333334
-1.08,-0.68,10636.111111111111
-1.095,-0.66,10638.888888888889
-1.105,-0.65,10641.666666666666
-1.09,-0.645,10644.444444444445
-1.085,-0.64,10647.222222222223
-1.07,-0.625,10650.0
-1.07,-0.61,10652.777777777777
-1.08,-0.61,10655.555555555555
-1.095,-0.6,10658.333333333334
-1.105,-0.58,10661.111111111111
-1.13,-0.585,10663.888888888889
-1.14,-0.575,10666.666666666666
-1.15,-0.565,10669.444444444445
-1.155,-0.545,10672.222222222223
-1.14,-0.53,10675.0
-1.13,-0.52,10677.777777777777
-1.135,-0.49,10680.555555555555
-1.125,-0.475,10683.333333333334
-1.125,-0.465,10686.111111111111
-1.125,-0.465,10688.888888888889
-1.12,-0.465,10691.666666666666
-1.11,-0.465,10694.444444444445
-1.125,-0.455,10697.222222222223
-1.11,-0.45,10700.0
-1.1,-0.435,10702.777777777777
-1.1,-0.43,10705.555555555555
-1.09,-0.395,10708.333333333334
-1.075,-0.37,10711.111111111111
-1.06,-0.35,10713.888888888889
-1.03,-0.335,10716.666666666666
-1.0,-0.325,10719.444444444445
-0.965,-0.305,10722.222222222223
-0.96,-0.3,10725.0
-0.945,-0.295,10727.777777777777
-0.925,-0.275,10730.555555555555
-0.91,-0.275,10733.333333333334
-0.875,-0.255,10736.111111111111
-0.845,-0.25,10738.888888888889
-0.8,-0.24,10741.666666666666
-0.77,-0.235,10744.444444444445
-0.74,-0.23,10747.222222222223
-0.72,-0.2,10750.0
-0.68,-0.175,10752.777777777777
-0.665,-0.165,10755.555555555555
-0.625,-0.165,10758.333333333334
-0.56,-0.16,10761.111111111111
-0.525,-0.175,10763.888888888889
-0.495,-0.19,10766.666666666666
-0.47,-0.195,10769.444444444445
-0.435,-0.19,10772.222222222223
-0.425,-0.185,10775.0
-0.38,-0.185,10777.777777777777
-0.345,-0.17,10780.555555555555
-0.3,-0.175,10783.333333333334
-0.24,-0.215,10786.111111111111
-0.2,-0.21,10788.888888888889
-0.165,-0.24,10791.666666666666
-0.14,-0.27,10794.444444444445
-0.13,-0.29,10797.222222222223
-0.11,-0.3,10800.0
-0.08,-0.305,10802.777777777777
-0.04,-0.31,10805.555555555555
-0.025,-0.33,10808.333333333334
0.01,-0.345,10811.111111111111
0.035,-0.365,10813.888888888889
0.035,-0.385,10816.666666666666
0.04,-0.4,10819.444444444445
0.045,-0.41,10822.222222222223
0.055,-0.43,10825.0
0.05,-0.44,10827.777777777777
0.05,-0.46,10830.555555555555
0.06,-0.47,10833.333333333334
0.055,-0.48,10836.111111111111
0.04,-0.49,10838.888888888889
0.035,-0.5,10841.666666666666
0.025,-0.5,10844.444444444445
0.02,-0.505,10847.222222222223
0.0,-0.505,10850.0
0.0,-0.51,10852.777777777777
-0.015,-0.515,10855.555555555555
-0.04,-0.52,10858.333333333334
-0.045,-0.54,10861.111111111111
-0.085,-0.545,10863.888888888889
-0.11,-0.545,10866.666666666666
-0.15,-0.55,10869.444444444445
-0.18,-0.555,10872.222222222223
-0.19,-0.54,10875.0
-0.2,-0.53,10877.777777777777
-0.205,-0.515,10880.555555555555
-0.215,-0.505,10883.333333333334
-0.235,-0.5,10886.111111111111
-0.255,-0.49,10888.888888888889
-0.295,-0.5,10891.666666666666
-0.34,-0.49,10894.444444444445
-0.375,-0.5,10897.222222222223
-0.405,-0.49,10900.0
-0.425,-0.47,10902.777777777777
-0.43,-0.46,10905.555555555555
-0.445,-0.455,10908.333333333334
-0.47,-0.43,10911.111111111111
-0.49,-0.42,10913.888888888889
-0.52,-0.41,10916.666666666666
-0.545,-0.39,10919.444444444445
-0.555,-0.395,10922.222222222223
-0.565,-0.375,10925.0
-0.57,-0.37,10927.777777777777
-0.57,-0.365,10930.555555555555
-0.59,-0.36,10933.333333333334
-0.61,-0.335,10936.111111111111
-0.64,-0.305,10938.888888888889
-0.645,-0.275,10941.666666666666
-0.65,-0.24,10944.444444444445
-0.64,-0.21,10947.222222222223
-0.62,-0.155,10950.0
-0.605,-0.135,10952.777777777777
-0.59,-0.115,10955.555555555555
-0.59,-0.115,10958.333333333334
-0.595,-0.145,10961.111111111111
-0.575,-0.19,10963.888888888889
-0.56,-0.23,10966.666666666666
-0.53,-0.24,10969.444444444445
-0.495,-0.255,10972.222222222223
-0.455,-0.255,10975.0
-0.415,-0.27,10977.777777777777
-0.385,-0.295,10980.555555555555
-0.36,-0.345,10983.333333333334
-0.36,-0.4,10986.111111111111
-0.34,-0.435,10988.888888888889
-0.325,-0.465,10991.666666666666
-0.31,-0.465,10994.444444444445
-0.295,-0.475,10997.222222222223
-0.3,-0.475,11000.0
-0.32,-0.47,11002.777777777777
-0.36,-0.49,11005.555555555555
-0.4,-0.5,11008.333333333334
-0.45,-0.515,11011.111111111111
-0.5,-0.515,11013.888888888889
-0.54,-0.525,11016.666666666666
-0.59,-0.54,11019.444444444445
-0.625,-0.54,11022.222222222223
-0.67,-0.545,11025.0
-0.715,-0.555,11027.777777777777
-0.75,-0.57,11030.555555555555
-0.76,-0.595,11033.333333333334
-0.785,-0.59,11036.111111111111
-0.775,-0.595,11038.888888888889
-0.755,-0.6,11041.666666666666
-0.745,-0.6,11044.444444444445
-0.745,-0.585,11047.222222222223
-0.735,-0.57,11050.0
-0.74,-0.58,11052.777777777777
-0.735,-0.59,11055.555555555555
-0.745,-0.585,11058.333333333334
-0.755,-0.615,11061.111111111111
-0.755,-0.625,11063.888888888889
-0.75,-0.625,11066.666666666666
-0.76,-0.63,11069.444444444445
-0.76,-0.605,11072.222222222223
-0.75,-0.615,11075.0
-0.745,-0.605,11077.777777777777
-0.75,-0.585,11080.555555555555
-0.735,-0.57,11083.333333333334
-0.735,-0.54,11086.111111111111
-0.725,-0.485,11088.888888888889
-0.735,-0.44,11091.666666666666
-0.77,-0.4,11094.444444444445
-0.8,-0.425,11097.222222222223
-0.825,-0.53,11100.0
-0.81,-0.73,11102.777777777777
-0.73,-1.04,11105.555555555555
-0.57,-1.41,11108.333333333334
-0.35,-1.775,11111.111111111111
-0.07,-2.105,11113.888888888889
0.24,-2.36,11116.666666666666
0.59,-2.54,11119.444444444445
0.965,-2.655,11122.222222222223
1.345,-2.72,11125.0
1.655,-2.745,11127.777777777777
1.855,-2.76,11130.555555555555
1.875,-2.74,11133.333333333334
1.685,-2.685,11136.111111111111
1.35,-2.635,11138.888888888889
0.91,-2.55,11141.666666666666
0.42,-2.405,11144.444444444445
-0.055,-2.145,11147.222222222223
-0.485,-1.79,11150.0
-0.855,-1.445,11152.777777777777
-1.145,-1.145,11155.555555555555
-1.35,-0.95,11158.333333333334
-1.445,-0.865,11161.111111111111
