MLII,V1,time_ms
-0.095,0.025,0.0
-0.095,0.025,2.7777777777777777
-0.095,0.025,5.555555555555555
-0.095,0.025,8.333333333333334
-0.095,0.025,11.11111111111111
-0.095,0.025,13.88888888888889
-0.095,0.025,16.666666666666668
-0.095,0.025,19.444444444444443
-0.11,0.025,22.22222222222222
-0.14,0.01,25.0
-0.14,0.025,27.77777777777778
-0.135,0.055,30.555555555555557
-0.115,0.045,33.333333333333336
-0.11,0.04,36.111111111111114
-0.135,0.025,38.888888888888886
-0.15,0.02,41.666666666666664
-0.18,0.015,44.44444444444444
-0.175,0.025,47.22222222222222
-0.16,0.04,50.0
-0.15,0.045,52.77777777777778
-0.16,0.03,55.55555555555556
-0.17,0.0,58.333333333333336
-0.185,0.02,61.111111111111114
-0.18,0.015,63.888888888888886
-0.175,0.03,66.66666666666667
-0.155,0.02,69.44444444444444
-0.17,0.01,72.22222222222223
-0.195,-0.015,75.0
-0.21,-0.015,77.77777777777777
-0.175,0.0,80.55555555555556
-0.145,0.01,83.33333333333333
-0.135,-0.01,86.11111111111111
-0.125,-0.01,88.88888888888889
-0.145,-0.015,91.66666666666667
-0.165,-0.02,94.44444444444444
-0.155,-0.005,97.22222222222223
-0.135,0.015,100.0
-0.12,0.0,102.77777777777777
-0.11,-0.005,105.55555555555556
-0.11,0.01,108.33333333333333
-0.125,0.06,111.11111111111111
-0.12,0.105,113.88888888888889
-0.12,0.115,116.66666666666667
-0.1,0.055,119.44444444444444
-0.03,-0.015,122.22222222222223
0.075,-0.14,125.0
0.2,-0.24,127.77777777777777
0.315,-0.325,130.55555555555554
0.405,-0.42,133.33333333333334
0.48,-0.555,136.11111111111111
0.57,-0.715,138.88888888888889
0.66,-0.86,141.66666666666666
0.815,-0.975,144.44444444444446
1.005,-1.055,147.22222222222223
1.24,-1.1,150.0
1.465,-1.15,152.77777777777777
1.7,-1.195,155.55555555555554
1.91,-1.23,158.33333333333334
2.055,-1.225,161.11111111111111
2.1,-1.21,163.88888888888889
2.045,-1.205,166.66666666666666
1.85,-1.235,169.44444444444446
1.47,-1.245,172.22222222222223
1.045,-1.235,175.0
0.745,-1.16,177.77777777777777
0.595,-1.085,180.55555555555554
0.5,-1.005,183.33333333333334
0.465,-0.925,186.11111111111111
0.435,-0.825,188.88888888888889
0.415,-0.72,191.66666666666666
0.395,-0.615,194.44444444444446
0.375,-0.515,197.22222222222223
0.35,-0.44,200.0
0.3,-0.385,202.77777777777777
0.245,-0.335,205.55555555555554
0.18,-0.285,208.33333333333334
0.135,-0.225,211.11111111111111
0.115,-0.165,213.88888888888889
0.115,-0.115,216.66666666666666
0.075,-0.06,219.44444444444446
0.025,-0.04,222.22222222222223
-0.02,-0.01,225.0
-0.07,0.055,227.77777777777777
-0.1,0.12,230.55555555555554
-0.13,0.165,233.33333333333334
-0.155,0.195,236.11111111111111
-0.2,0.215,238.88888888888889
-0.245,0.215,241.66666666666666
-0.275,0.24,244.44444444444446
-0.29,0.285,247.22222222222223
-0.285,0.29,250.0
-0.275,0.29,252.77777777777777
-0.29,0.295,255.55555555555554
-0.305,0.29,258.3333333333333
-0.325,0.315,261.1111111111111
-0.325,0.335,263.8888888888889
-0.32,0.35,266.6666666666667
-0.33,0.365,269.44444444444446
-0.34,0.355,272.22222222222223
-0.35,0.345,275.0
-0.35,0.375,277.77777777777777
-0.345,0.395,280.55555555555554
-0.34,0.435,283.3333333333333
-0.34,0.43,286.1111111111111
-0.35,0.44,288.8888888888889
-0.36,0.43,291.6666666666667
-0.365,0.435,294.44444444444446
-0.375,0.475,297.22222222222223
-0.375,0.505,300.0
-0.36,0.51,302.77777777777777
-0.365,0.515,305.55555555555554
-0.395,0.53,308.3333333333333
-0.39,0.56,311.1111111111111
-0.395,0.585,313.8888888888889
-0.385,0.605,316.6666666666667
-0.405,0.615,319.44444444444446
-0.42,0.635,322.22222222222223
-0.425,0.645,325.0
-0.44,0.67,327.77777777777777
-0.44,0.715,330.55555555555554
-0.44,0.745,333.3333333333333
-0.45,0.745,336.1111111111111
-0.465,0.725,338.8888888888889
-0.46,0.725,341.6666666666667
-0.49,0.765,344.44444444444446
-0.475,0.795,347.22222222222223
-0.465,0.825,350.0
-0.48,0.835,352.77777777777777
-0.51,0.835,355.55555555555554
-0.53,0.85,358.3333333333333
-0.555,0.845,361.1111111111111
-0.56,0.875,363.8888888888889
-0.525,0.905,366.6666666666667
-0.535,0.885,369.44444444444446
-0.56,0.875,372.22222222222223
-0.59,0.86,375.0
-0.62,0.875,377.77777777777777
-0.585,0.88,380.55555555555554
-0.57,0.875,383.3333333333333
-0.56,0.85,386.1111111111111
-0.575,0.83,388.8888888888889
-0.585,0.78,391.6666666666667
-0.595,0.765,394.44444444444446
-0.565,0.755,397.22222222222223
-0.54,0.745,400.0
-0.525,0.695,402.77777777777777
-0.51,0.66,405.55555555555554
-0.525,0.6,408.3333333333333
-0.515,0.585,411.1111111111111
-0.47,0.575,413.8888888888889
-0.445,0.545,416.6666666666667
-0.41,0.515,419.44444444444446
-0.4,0.455,422.22222222222223
-0.39,0.4,425.0
-0.37,0.355,427.77777777777777
-0.345,0.34,430.55555555555554
-0.3,0.32,433.3333333333333
-0.29,0.285,436.1111111111111
-0.25,0.245,438.8888888888889
-0.235,0.205,441.6666666666667
-0.23,0.175,444.44444444444446
-0.22,0.185,447.22222222222223
-0.19,0.165,450.0
-0.165,0.15,452.77777777777777
-0.16,0.12,455.55555555555554
-0.16,0.115,458.3333333333333
-0.165,0.105,461.1111111111111
-0.15,0.115,463.8888888888889
-0.15,0.11,466.6666666666667
-0.15,0.07,469.44444444444446
-0.155,0.065,472.22222222222223
-0.165,0.045,475.0
-0.16,0.045,477.77777777777777
-0.155,0.07,480.55555555555554
-0.15,0.08,483.3333333333333
-0.155,0.055,486.1111111111111
-0.155,0.04,488.8888888888889
-0.165,0.03,491.6666666666667
-0.16,0.035,494.44444444444446
-0.145,0.05,497.22222222222223
-0.165,0.065,500.0
-0.165,0.05,502.77777777777777
-0.17,0.04,505.55555555555554
-0.175,0.035,508.3333333333333
-0.175,0.05,511.1111111111111
-0.16,0.05,513.8888888888889
-0.155,0.055,516.6666666666666
-0.155,0.055,519.4444444444445
-0.17,0.03,522.2222222222222
-0.205,0.05,525.0
-0.195,0.045,527.7777777777778
-0.185,0.07,530.5555555555555
-0.165,0.075,533.3333333333334
-0.175,0.06,536.1111111111111
-0.19,0.05,538.8888888888889
-0.2,0.04,541.6666666666666
-0.205,0.05,544.4444444444445
-0.185,0.07,547.2222222222222
-0.165,0.075,550.0
-0.155,0.075,552.7777777777778
-0.17,0.055,555.5555555555555
-0.195,0.05,558.3333333333334
-0.215,0.035,561.1111111111111
-0.205,0.06,563.8888888888889
-0.195,0.085,566.6666666666666
-0.19,0.07,569.4444444444445
-0.19,0.065,572.2222222222222
-0.195,0.05,575.0
-0.205,0.045,577.7777777777778
-0.195,0.075,580.5555555555555
-0.185,0.075,583.3333333333334
-0.185,0.075,586.1111111111111
-0.195,0.06,588.8888888888889
-0.185,0.055,591.6666666666666
-0.205,0.05,594.4444444444445
-0.195,0.065,597.2222222222222
-0.2,0.085,600.0
-0.17,0.08,602.7777777777778
-0.175,0.055,605.5555555555555
-0.19,0.04,608.3333333333334
-0.195,0.045,611.1111111111111
-0.185,0.055,613.8888888888889
-0.17,0.075,616.6666666666666
-0.185,0.065,619.4444444444445
-0.18,0.04,622.2222222222222
-0.18,0.025,625.0
-0.175,0.04,627.7777777777778
-0.175,0.035,630.5555555555555
-0.165,0.055,633.3333333333334
-0.165,0.05,636.1111111111111
-0.18,0.045,638.8888888888889
-0.19,0.04,641.6666666666666
-0.2,0.045,644.4444444444445
-0.19,0.045,647.2222222222222
-0.16,0.07,650.0
-0.165,0.055,652.7777777777778
-0.2,0.025,655.5555555555555
-0.195,0.015,658.3333333333334
-0.195,0.015,661.1111111111111
-0.18,0.045,663.8888888888889
-0.18,0.05,666.6666666666666
-0.16,0.045,669.4444444444445
-0.185,0.02,672.2222222222222
-0.205,0.02,675.0
-0.205,0.015,677.7777777777778
-0.21,0.025,680.5555555555555
-0.185,0.03,683.3333333333334
-0.185,0.02,686.1111111111111
-0.19,0.005,688.8888888888889
-0.205,0.0,691.6666666666666
-0.22,0.005,694.4444444444445
-0.21,0.0,697.2222222222222
-0.19,0.015,700.0
-0.17,0.005,702.7777777777778
-0.18,-0.005,705.5555555555555
-0.195,0.0,708.3333333333334
-0.21,-0.01,711.1111111111111
-0.2,0.02,713.8888888888889
-0.185,0.015,716.6666666666666
-0.195,0.015,719.4444444444445
-0.185,-0.01,722.2222222222222
-0.19,-0.01,725.0
-0.19,-0.005,727.7777777777778
-0.175,0.01,730.5555555555555
-0.17,0.03,733.3333333333334
-0.16,0.025,736.1111111111111
-0.175,0.015,738.8888888888889
-0.18,-0.005,741.6666666666666
-0.175,0.035,744.4444444444445
-0.165,0.035,747.2222222222222
-0.145,0.075,750.0
-0.14,0.075,752.7777777777778
-0.15,0.055,755.5555555555555
-0.19,0.065,758.3333333333334
-0.185,0.08,761.1111111111111
-0.13,0.09,763.8888888888889
-0.09,0.11,766.6666666666666
-0.11,0.115,769.4444444444445
-0.105,0.09,772.2222222222222
-0.125,0.09,775.0
-0.14,0.11,777.7777777777778
-0.115,0.11,780.5555555555555
-0.1,0.135,783.3333333333334
-0.1,0.1,786.1111111111111
-0.105,0.075,788.8888888888889
-0.14,0.045,791.6666666666666
-0.16,0.04,794.4444444444445
-0.155,0.055,797.2222222222222
-0.145,0.06,800.0
-0.16,0.065,802.7777777777778
-0.16,0.03,805.5555555555555
-0.175,0.02,808.3333333333334
-0.17,0.0,811.1111111111111
-0.175,0.015,813.8888888888889
-0.15,0.025,816.6666666666666
-0.16,0.03,819.4444444444445
-0.175,0.025,822.2222222222222
-0.19,0.02,825.0
-0.205,0.025,827.7777777777778
-0.2,0.03,830.5555555555555
-0.19,0.035,833.3333333333334
-0.19,0.025,836.1111111111111
-0.205,0.015,838.8888888888889
-0.2,-0.01,841.6666666666666
-0.205,0.01,844.4444444444445
-0.19,0.03,847.2222222222222
-0.18,0.045,850.0
-0.21,0.045,852.7777777777778
-0.215,0.01,855.5555555555555
-0.215,-0.005,858.3333333333334
-0.23,0.005,861.1111111111111
-0.215,0.005,863.8888888888889
-0.195,0.005,866.6666666666666
-0.185,0.005,869.4444444444445
-0.195,-0.015,872.2222222222222
-0.205,-0.02,875.0
-0.21,-0.03,877.7777777777778
-0.18,-0.025,880.5555555555555
-0.155,-0.015,883.3333333333334
-0.14,-0.015,886.1111111111111
-0.15,-0.025,888.8888888888889
-0.17,-0.035,891.6666666666666
-0.175,-0.03,894.4444444444445
-0.165,-0.03,897.2222222222222
-0.145,0.015,900.0
-0.135,0.005,902.7777777777778
-0.135,0.02,905.5555555555555
-0.16,0.025,908.3333333333334
-0.17,0.015,911.1111111111111
-0.145,0.005,913.8888888888889
-0.075,-0.075,916.6666666666666
0.055,-0.215,919.4444444444445
0.18,-0.38,922.2222222222222
0.275,-0.55,925.0
0.36,-0.705,927.7777777777778
0.46,-0.815,930.5555555555555
0.565,-0.905,933.3333333333334
0.67,-1.0,936.1111111111111
0.795,-1.075,938.8888888888889
0.92,-1.17,941.6666666666666
1.06,-1.225,944.4444444444445
1.24,-1.265,947.2222222222222
1.42,-1.29,950.0
1.635,-1.3,952.7777777777778
1.805,-1.29,955.5555555555555
1.95,-1.275,958.3333333333334
2.05,-1.22,961.1111111111111
2.085,-1.19,963.8888888888889
2.025,-1.165,966.6666666666666
1.86,-1.15,969.4444444444445
1.545,-1.135,972.2222222222222
1.185,-1.1,975.0
0.87,-1.04,977.7777777777778
0.695,-0.975,980.5555555555555
0.6,-0.93,983.3333333333334
0.555,-0.895,986.1111111111111
0.495,-0.86,988.8888888888889
0.46,-0.785,991.6666666666666
0.435,-0.685,994.4444444444445
0.42,-0.58,997.2222222222222
0.415,-0.49,1000.0
0.39,-0.46,1002.7777777777778
0.33,-0.415,1005.5555555555555
0.26,-0.37,1008.3333333333334
0.22,-0.31,1011.1111111111111
0.185,-0.24,1013.8888888888889
0.16,-0.17,1016.6666666666666
0.115,-0.13,1019.4444444444445
0.06,-0.095,1022.2222222222222
0.01,-0.065,1025.0
-0.015,-0.02,1027.7777777777778
-0.05,0.035,1030.5555555555557
-0.075,0.09,1033.3333333333333
-0.115,0.105,1036.111111111111
-0.16,0.14,1038.888888888889
-0.21,0.155,1041.6666666666667
-0.24,0.18,1044.4444444444443
-0.265,0.225,1047.2222222222222
-0.25,0.26,1050.0
-0.285,0.27,1052.7777777777778
-0.315,0.265,1055.5555555555557
-0.36,0.27,1058.3333333333333
-0.38,0.29,1061.111111111111
-0.38,0.32,1063.888888888889
-0.36,0.335,1066.6666666666667
-0.355,0.34,1069.4444444444443
-0.365,0.335,1072.2222222222222
-0.385,0.33,1075.0
-0.415,0.355,1077.7777777777778
-0.415,0.385,1080.5555555555557
-0.41,0.395,1083.3333333333333
-0.415,0.395,1086.111111111111
-0.42,0.37,1088.888888888889
-0.43,0.39,1091.6666666666667
-0.43,0.415,1094.4444444444443
-0.42,0.445,1097.2222222222222
-0.41,0.455,1100.0
-0.425,0.455,1102.7777777777778
-0.435,0.45,1105.5555555555557
-0.47,0.47,1108.3333333333333
-0.465,0.49,1111.111111111111
-0.46,0.51,1113.888888888889
-0.445,0.545,1116.6666666666667
-0.44,0.55,1119.4444444444443
-0.46,0.54,1122.2222222222222
-0.48,0.545,1125.0
-0.485,0.58,1127.7777777777778
-0.485,0.61,1130.5555555555557
-0.49,0.655,1133.3333333333333
-0.485,0.675,1136.111111111111
-0.51,0.665,1138.888888888889
-0.535,0.66,1141.6666666666667
-0.555,0.685,1144.4444444444443
-0.55,0.7,1147.2222222222222
-0.53,0.73,1150.0
-0.515,0.75,1152.7777777777778
-0.535,0.74,1155.5555555555557
-0.57,0.77,1158.3333333333333
-0.565,0.795,1161.111111111111
-0.575,0.825,1163.888888888889
-0.585,0.845,1166.6666666666667
-0.585,0.85,1169.4444444444443
-0.59,0.845,1172.2222222222222
-0.615,0.855,1175.0
-0.63,0.88,1177.7777777777778
-0.645,0.905,1180.5555555555557
-0.635,0.94,1183.3333333333333
-0.64,0.925,1186.111111111111
-0.67,0.925,1188.888888888889
-0.675,0.91,1191.6666666666667
-0.685,0.915,1194.4444444444443
-0.66,0.925,1197.2222222222222
-0.645,0.935,1200.0
-0.66,0.925,1202.7777777777778
-0.695,0.905,1205.5555555555557
-0.71,0.875,1208.3333333333333
-0.71,0.885,1211.111111111111
-0.685,0.885,1213.888888888889
-0.675,0.875,1216.6666666666667
-0.665,0.865,1219.4444444444443
-0.67,0.8,1222.2222222222222
-0.675,0.79,1225.0
-0.685,0.75,1227.7777777777778
-0.675,0.765,1230.5555555555557
-0.655,0.74,1233.3333333333333
-0.625,0.695,1236.111111111111
-0.6,0.655,1238.888888888889
-0.62,0.62,1241.6666666666667
-0.6,0.585,1244.4444444444443
-0.575,0.575,1247.2222222222222
-0.54,0.55,1250.0
-0.53,0.505,1252.7777777777778
-0.505,0.465,1255.5555555555557
-0.495,0.41,1258.3333333333333
-0.465,0.395,1261.111111111111
-0.43,0.38,1263.888888888889
-0.39,0.355,1266.6666666666667
-0.355,0.3,1269.4444444444443
-0.335,0.25,1272.2222222222222
-0.33,0.21,1275.0
-0.31,0.21,1277.7777777777778
-0.27,0.225,1280.5555555555557
-0.265,0.225,1283.3333333333333
-0.26,0.19,1286.111111111111
-0.27,0.15,1288.888888888889
-0.27,0.13,1291.6666666666667
-0.265,0.11,1294.4444444444443
-0.235,0.115,1297.2222222222222
-0.195,0.125,1300.0
-0.195,0.1,1302.7777777777778
-0.21,0.095,1305.5555555555557
-0.235,0.075,1308.3333333333333
-0.23,0.08,1311.111111111111
-0.22,0.085,1313.888888888889
-0.195,0.095,1316.6666666666667
-0.195,0.07,1319.4444444444443
-0.21,0.05,1322.2222222222222
-0.22,0.03,1325.0
-0.22,0.04,1327.7777777777778
-0.21,0.065,1330.5555555555557
-0.2,0.075,1333.3333333333333
-0.205,0.07,1336.111111111111
-0.21,0.04,1338.888888888889
-0.21,0.025,1341.6666666666667
-0.21,0.025,1344.4444444444443
-0.215,0.05,1347.2222222222222
-0.195,0.07,1350.0
-0.195,0.06,1352.7777777777778
-0.205,0.045,1355.5555555555557
-0.215,0.035,1358.3333333333333
-0.215,0.055,1361.111111111111
-0.21,0.055,1363.888888888889
-0.19,0.065,1366.6666666666667
-0.205,0.055,1369.4444444444443
-0.21,0.055,1372.2222222222222
-0.22,0.055,1375.0
-0.23,0.07,1377.7777777777778
-0.215,0.09,1380.5555555555557
-0.195,0.1,1383.3333333333333
-0.195,0.085,1386.111111111111
-0.21,0.075,1388.888888888889
-0.235,0.065,1391.6666666666667
-0.24,0.06,1394.4444444444443
-0.235,0.085,1397.2222222222222
-0.23,0.085,1400.0
-0.215,0.075,1402.7777777777778
-0.215,0.075,1405.5555555555557
-0.23,0.07,1408.3333333333333
-0.245,0.07,1411.111111111111
-0.24,0.085,1413.888888888889
-0.23,0.095,1416.6666666666667
-0.23,0.1,1419.4444444444443
-0.235,0.09,1422.2222222222222
-0.255,0.065,1425.0
-0.235,0.085,1427.7777777777778
-0.24,0.09,1430.5555555555557
-0.22,0.115,1433.3333333333333
-0.235,0.11,1436.111111111111
-0.24,0.085,1438.888888888889
-0.24,0.065,1441.6666666666667
-0.245,0.075,1444.4444444444443
-0.22,0.095,1447.2222222222222
-0.225,0.11,1450.0
-0.215,0.105,1452.7777777777778
-0.225,0.095,1455.5555555555557
-0.24,0.09,1458.3333333333333
-0.25,0.085,1461.111111111111
-0.235,0.09,1463.888888888889
-0.205,0.105,1466.6666666666667
-0.2,0.09,1469.4444444444443
-0.22,0.08,1472.2222222222222
-0.225,0.06,1475.0
-0.23,0.07,1477.7777777777778
-0.215,0.095,1480.5555555555557
-0.2,0.105,1483.3333333333333
-0.2,0.095,1486.111111111111
-0.21,0.065,1488.888888888889
-0.21,0.055,1491.6666666666667
-0.215,0.065,1494.4444444444443
-0.21,0.07,1497.2222222222222
-0.205,0.09,1500.0
-0.2,0.095,1502.7777777777778
-0.2,0.075,1505.5555555555557
-0.21,0.065,1508.3333333333333
-0.215,0.07,1511.111111111111
-0.205,0.065,1513.888888888889
-0.185,0.07,1516.6666666666667
-0.2,0.055,1519.4444444444443
-0.215,0.045,1522.2222222222222
-0.225,0.04,1525.0
-0.205,0.06,1527.7777777777778
-0.195,0.07,1530.5555555555557
-0.19,0.095,1533.3333333333333
-0.185,0.08,1536.111111111111
-0.185,0.065,1538.888888888889
-0.21,0.055,1541.6666666666667
-0.225,0.055,1544.4444444444443
-0.225,0.065,1547.2222222222222
-0.185,0.07,1550.0
-0.18,0.075,1552.7777777777778
-0.18,0.055,1555.5555555555557
-0.215,0.06,1558.3333333333333
-0.245,0.07,1561.111111111111
-0.23,0.07,1563.888888888889
-0.205,0.08,1566.6666666666667
-0.185,0.07,1569.4444444444443
-0.19,0.045,1572.2222222222222
-0.205,0.035,1575.0
-0.21,0.055,1577.7777777777778
-0.19,0.055,1580.5555555555557
-0.19,0.065,1583.3333333333333
-0.185,0.075,1586.111111111111
-0.205,0.05,1588.888888888889
-0.21,0.035,1591.6666666666667
-0.22,0.05,1594.4444444444443
-0.205,0.075,1597.2222222222222
-0.19,0.09,1600.0
-0.19,0.09,1602.7777777777778
-0.185,0.08,1605.5555555555557
-0.2,0.075,1608.3333333333333
-0.205,0.09,1611.111111111111
-0.175,0.1,1613.888888888889
-0.155,0.1,1616.6666666666667
-0.135,0.12,1619.4444444444443
-0.17,0.105,1622.2222222222222
-0.165,0.11,1625.0
-0.165,0.125,1627.7777777777778
-0.15,0.145,1630.5555555555557
-0.125,0.16,1633.3333333333333
-0.11,0.16,1636.111111111111
-0.125,0.145,1638.888888888889
-0.13,0.145,1641.6666666666667
-0.13,0.14,1644.4444444444443
-0.125,0.15,1647.2222222222222
-0.13,0.16,1650.0
-0.125,0.14,1652.7777777777778
-0.125,0.11,1655.5555555555557
-0.14,0.085,1658.3333333333333
-0.145,0.08,1661.111111111111
-0.125,0.105,1663.888888888889
-0.13,0.075,1666.6666666666667
-0.145,0.07,1669.4444444444443
-0.16,0.06,1672.2222222222222
-0.18,0.03,1675.0
-0.18,0.045,1677.7777777777778
-0.18,0.04,1680.5555555555557
-0.16,0.06,1683.3333333333333
-0.14,0.06,1686.111111111111
-0.155,0.045,1688.888888888889
-0.17,0.035,1691.6666666666667
-0.2,0.025,1694.4444444444443
-0.205,0.035,1697.2222222222222
-0.175,0.05,1700.0
-0.19,0.045,1702.7777777777778
-0.195,0.04,1705.5555555555557
-0.215,0.03,1708.3333333333333
-0.215,0.045,1711.111111111111
-0.215,0.04,1713.888888888889
-0.215,0.045,1716.6666666666667
-0.215,0.035,1719.4444444444443
-0.215,0.005,1722.2222222222222
-0.22,0.005,1725.0
-0.21,0.02,1727.7777777777778
-0.195,0.035,1730.5555555555557
-0.185,0.05,1733.3333333333333
-0.195,0.045,1736.111111111111
-0.205,0.025,1738.888888888889
-0.21,0.005,1741.6666666666667
-0.19,0.01,1744.4444444444443
-0.165,0.005,1747.2222222222222
-0.155,0.03,1750.0
-0.155,0.01,1752.7777777777778
-0.165,0.005,1755.5555555555557
-0.18,0.005,1758.3333333333333
-0.175,0.0,1761.111111111111
-0.16,0.01,1763.888888888889
-0.135,0.02,1766.6666666666667
-0.13,0.01,1769.4444444444443
-0.14,0.015,1772.2222222222222
-0.15,0.025,1775.0
-0.145,0.06,1777.7777777777778
-0.145,0.095,1780.5555555555557
-0.125,0.13,1783.3333333333333
-0.105,0.105,1786.111111111111
-0.075,0.06,1788.888888888889
-0.035,-0.015,1791.6666666666667
0.065,-0.125,1794.4444444444443
0.185,-0.22,1797.2222222222222
0.31,-0.335,1800.0
0.41,-0.48,1802.7777777777778
0.515,-0.61,1805.5555555555557
0.595,-0.74,1808.3333333333333
0.705,-0.83,1811.111111111111
0.83,-0.905,1813.888888888889
0.975,-0.985,1816.6666666666667
1.125,-1.095,1819.4444444444443
1.265,-1.175,1822.2222222222222
1.43,-1.235,1825.0
1.63,-1.26,1827.7777777777778
1.84,-1.275,1830.5555555555557
2.0,-1.28,1833.3333333333333
2.065,-1.28,1836.111111111111
2.05,-1.29,1838.888888888889
1.955,-1.295,1841.6666666666667
1.775,-1.285,1844.4444444444443
1.52,-1.265,1847.2222222222222
1.205,-1.2,1850.0
0.905,-1.145,1852.7777777777778
0.67,-1.115,1855.5555555555557
0.52,-1.08,1858.3333333333333
0.445,-1.02,1861.111111111111
0.44,-0.94,1863.888888888889
0.455,-0.84,1866.6666666666667
0.45,-0.745,1869.4444444444443
0.41,-0.64,1872.2222222222222
0.365,-0.555,1875.0
0.315,-0.475,1877.7777777777778
0.265,-0.4,1880.5555555555557
0.225,-0.315,1883.3333333333333
0.195,-0.265,1886.111111111111
0.145,-0.225,1888.888888888889
0.1,-0.17,1891.6666666666667
0.065,-0.11,1894.4444444444443
0.035,-0.045,1897.2222222222222
-0.02,0.015,1900.0
-0.06,0.05,1902.7777777777778
-0.1,0.085,1905.5555555555557
-0.15,0.11,1908.3333333333333
-0.17,0.13,1911.111111111111
-0.205,0.195,1913.888888888889
-0.215,0.235,1916.6666666666667
-0.23,0.25,1919.4444444444443
-0.26,0.26,1922.2222222222222
-0.31,0.255,1925.0
-0.335,0.29,1927.7777777777778
-0.315,0.315,1930.5555555555557
-0.3,0.33,1933.3333333333333
-0.315,0.32,1936.111111111111
-0.325,0.33,1938.888888888889
-0.34,0.325,1941.6666666666667
-0.35,0.35,1944.4444444444443
-0.33,0.38,1947.2222222222222
-0.33,0.4,1950.0
-0.345,0.4,1952.7777777777778
-0.37,0.395,1955.5555555555557
-0.385,0.385,1958.3333333333333
-0.395,0.395,1961.111111111111
-0.36,0.44,1963.888888888889
-0.34,0.46,1966.6666666666667
-0.345,0.465,1969.4444444444443
-0.355,0.465,1972.2222222222222
-0.385,0.45,1975.0
-0.4,0.48,1977.7777777777778
-0.405,0.49,1980.5555555555557
-0.38,0.5,1983.3333333333333
-0.39,0.525,1986.111111111111
-0.4,0.525,1988.888888888889
-0.41,0.55,1991.6666666666667
-0.445,0.565,1994.4444444444443
-0.43,0.585,1997.2222222222222
-0.42,0.61,2000.0
-0.42,0.625,2002.7777777777778
-0.415,0.64,2005.5555555555557
-0.435,0.615,2008.3333333333333
-0.455,0.645,2011.111111111111
-0.45,0.675,2013.888888888889
-0.455,0.725,2016.6666666666667
-0.45,0.72,2019.4444444444443
-0.475,0.74,2022.2222222222222
-0.495,0.74,2025.0
-0.495,0.775,2027.7777777777778
-0.505,0.805,2030.5555555555557
-0.495,0.835,2033.3333333333333
-0.51,0.845,2036.111111111111
-0.535,0.86,2038.888888888889
-0.55,0.845,2041.6666666666667
-0.55,0.875,2044.4444444444443
-0.55,0.89,2047.2222222222222
-0.55,0.905,2050.0
-0.56,0.91,2052.777777777778
-0.59,0.9,2055.5555555555557
-0.62,0.895,2058.3333333333335
-0.615,0.915,2061.1111111111113
-0.62,0.94,2063.8888888888887
-0.62,0.95,2066.6666666666665
-0.615,0.92,2069.4444444444443
-0.62,0.9,2072.222222222222
-0.635,0.875,2075.0
-0.655,0.885,2077.777777777778
-0.65,0.865,2080.5555555555557
-0.615,0.87,2083.3333333333335
-0.6,0.85,2086.1111111111113
-0.615,0.805,2088.8888888888887
-0.62,0.775,2091.6666666666665
-0.63,0.755,2094.4444444444443
-0.615,0.745,2097.222222222222
-0.595,0.72,2100.0
-0.565,0.685,2102.777777777778
-0.56,0.645,2105.5555555555557
-0.54,0.595,2108.3333333333335
-0.52,0.57,2111.1111111111113
-0.495,0.54,2113.8888888888887
-0.47,0.505,2116.6666666666665
-0.435,0.46,2119.4444444444443
-0.41,0.41,2122.222222222222
-0.39,0.38,2125.0
-0.375,0.34,2127.777777777778
-0.35,0.33,2130.5555555555557
-0.32,0.31,2133.3333333333335
-0.28,0.29,2136.1111111111113
-0.275,0.23,2138.8888888888887
-0.27,0.195,2141.6666666666665
-0.255,0.185,2144.4444444444443
-0.225,0.19,2147.222222222222
-0.19,0.185,2150.0
-0.185,0.17,2152.777777777778
-0.175,0.14,2155.5555555555557
-0.195,0.115,2158.3333333333335
-0.205,0.115,2161.1111111111113
-0.18,0.115,2163.8888888888887
-0.17,0.105,2166.6666666666665
-0.15,0.095,2169.4444444444443
-0.155,0.08,2172.222222222222
-0.16,0.055,2175.0
-0.18,0.04,2177.777777777778
-0.18,0.065,2180.5555555555557
-0.155,0.075,2183.3333333333335
-0.15,0.075,2186.1111111111113
-0.16,0.055,2188.8888888888887
-0.16,0.045,2191.6666666666665
-0.155,0.055,2194.4444444444443
-0.17,0.06,2197.222222222222
-0.175,0.06,2200.0
-0.14,0.04,2202.777777777778
-0.145,0.03,2205.5555555555557
-0.155,0.035,2208.3333333333335
-0.16,0.035,2211.1111111111113
-0.16,0.065,2213.8888888888887
-0.145,0.055,2216.6666666666665
-0.145,0.055,2219.4444444444443
-0.165,0.02,2222.222222222222
-0.17,0.01,2225.0
-0.18,0.04,2227.777777777778
-0.175,0.045,2230.5555555555557
-0.155,0.06,2233.3333333333335
-0.145,0.05,2236.1111111111113
-0.16,0.04,2238.8888888888887
-0.18,0.015,2241.6666666666665
-0.19,0.025,2244.4444444444443
-0.18,0.06,2247.222222222222
-0.165,0.065,2250.0
-0.155,0.045,2252.777777777778
-0.145,0.035,2255.5555555555557
-0.17,0.025,2258.3333333333335
-0.18,0.045,2261.1111111111113
-0.175,0.065,2263.8888888888887
-0.165,0.08,2266.6666666666665
-0.16,0.07,2269.4444444444443
-0.185,0.05,2272.222222222222
-0.195,0.035,2275.0
-0.215,0.035,2277.777777777778
-0.18,0.065,2280.5555555555557
-0.165,0.09,2283.3333333333335
-0.17,0.065,2286.1111111111113
-0.175,0.055,2288.8888888888887
-0.18,0.05,2291.6666666666665
-0.18,0.055,2294.4444444444443
-0.18,0.06,2297.222222222222
-0.16,0.075,2300.0
-0.15,0.05,2302.777777777778
-0.165,0.035,2305.5555555555557
-0.19,0.05,2308.3333333333335
-0.2,0.045,2311.1111111111113
-0.185,0.075,2313.8888888888887
-0.17,0.075,2316.6666666666665
-0.16,0.07,2319.4444444444443
-0.165,0.06,2322.222222222222
-0.19,0.04,2325.0
-0.165,0.06,2327.777777777778
-0.17,0.07,2330.5555555555557
-0.155,0.085,2333.3333333333335
-0.15,0.075,2336.1111111111113
-0.155,0.055,2338.8888888888887
-0.165,0.04,2341.6666666666665
-0.165,0.05,2344.4444444444443
-0.165,0.06,2347.222222222222
-0.155,0.07,2350.0
-0.15,0.035,2352.777777777778
-0.17,0.035,2355.5555555555557
-0.19,0.03,2358.3333333333335
-0.175,0.025,2361.1111111111113
-0.165,0.055,2363.8888888888887
-0.145,0.06,2366.6666666666665
-0.145,0.06,2369.4444444444443
-0.155,0.04,2372.222222222222
-0.175,0.03,2375.0
-0.18,0.02,2377.777777777778
-0.175,0.04,2380.5555555555557
-0.145,0.06,2383.3333333333335
-0.15,0.06,2386.1111111111113
-0.14,0.045,2388.8888888888887
-0.18,0.03,2391.6666666666665
-0.18,0.035,2394.4444444444443
-0.18,0.04,2397.222222222222
-0.16,0.06,2400.0
-0.15,0.045,2402.777777777778
-0.155,0.035,2405.5555555555557
-0.165,0.015,2408.3333333333335
-0.17,0.03,2411.1111111111113
-0.165,0.045,2413.8888888888887
-0.155,0.05,2416.6666666666665
-0.145,0.065,2419.4444444444443
-0.165,0.04,2422.222222222222
-0.18,0.02,2425.0
-0.185,0.02,2427.777777777778
-0.175,0.05,2430.5555555555557
-0.15,0.04,2433.3333333333335
-0.15,0.04,2436.1111111111113
-0.16,0.035,2438.8888888888887
-0.175,0.025,2441.6666666666665
-0.195,0.025,2444.4444444444443
-0.155,0.04,2447.222222222222
-0.14,0.05,2450.0
-0.125,0.04,2452.777777777778
-0.135,0.03,2455.5555555555557
-0.18,0.01,2458.3333333333335
-0.18,0.01,2461.1111111111113
-0.165,0.05,2463.8888888888887
-0.155,0.07,2466.6666666666665
-0.16,0.065,2469.4444444444443
-0.16,0.05,2472.222222222222
-0.155,0.03,2475.0
-0.15,0.04,2477.777777777778
-0.145,0.055,2480.5555555555557
-0.13,0.065,2483.3333333333335
-0.13,0.08,2486.1111111111113
-0.14,0.07,2488.8888888888887
-0.145,0.06,2491.6666666666665
-0.15,0.1,2494.4444444444443
-0.12,0.125,2497.222222222222
-0.105,0.115,2500.0
-0.085,0.135,2502.777777777778
-0.1,0.11,2505.5555555555557
-0.1,0.105,2508.3333333333335
-0.12,0.125,2511.1111111111113
-0.105,0.145,2513.8888888888887
-0.07,0.155,2516.6666666666665
-0.075,0.145,2519.4444444444443
-0.09,0.145,2522.222222222222
-0.1,0.115,2525.0
-0.12,0.11,2527.777777777778
-0.115,0.095,2530.5555555555557
-0.1,0.075,2533.3333333333335
-0.115,0.065,2536.1111111111113
-0.125,0.04,2538.8888888888887
-0.13,0.035,2541.6666666666665
-0.145,0.04,2544.4444444444443
-0.155,0.05,2547.222222222222
-0.155,0.05,2550.0
-0.145,0.03,2552.777777777778
-0.135,0.02,2555.5555555555557
-0.155,0.015,2558.3333333333335
-0.17,0.015,2561.1111111111113
-0.17,0.025,2563.8888888888887
-0.165,0.04,2566.6666666666665
-0.165,0.04,2569.4444444444443
-0.18,0.03,2572.222222222222
-0.19,0.01,2575.0
-0.2,0.01,2577.777777777778
-0.185,0.025,2580.5555555555557
-0.18,0.03,2583.3333333333335
-0.175,0.025,2586.1111111111113
-0.2,0.02,2588.8888888888887
-0.205,0.0,2591.6666666666665
-0.195,0.005,2594.4444444444443
-0.195,0.015,2597.222222222222
-0.175,0.035,2600.0
-0.165,0.02,2602.777777777778
-0.175,0.0,2605.5555555555557
-0.19,-0.025,2608.3333333333335
-0.195,0.0,2611.1111111111113
-0.185,0.015,2613.8888888888887
-0.17,0.02,2616.6666666666665
-0.16,0.015,2619.4444444444443
-0.17,-0.01,2622.222222222222
-0.17,-0.01,2625.0
-0.165,-0.015,2627.777777777778
-0.15,-0.005,2630.5555555555557
-0.14,0.005,2633.3333333333335
-0.125,-0.01,2636.1111111111113
-0.145,-0.02,2638.8888888888887
-0.145,-0.015,2641.6666666666665
-0.135,0.015,2644.4444444444443
-0.135,0.03,2647.222222222222
-0.12,0.05,2650.0
-0.125,0.075,2652.777777777778
-0.135,0.075,2655.5555555555557
-0.15,0.055,2658.3333333333335
-0.15,0.045,2661.1111111111113
-0.07,0.005,2663.8888888888887
0.02,-0.05,2666.6666666666665
0.12,-0.165,2669.4444444444443
0.225,-0.285,2672.222222222222
0.29,-0.42,2675.0
0.365,-0.505,2677.777777777778
0.45,-0.585,2680.5555555555557
0.53,-0.7,2683.3333333333335
0.6,-0.82,2686.1111111111113
0.685,-0.945,2688.8888888888887
0.805,-1.06,2691.6666666666665
0.965,-1.13,2694.4444444444443
1.17,-1.18,2697.222222222222
1.39,-1.22,2700.0
1.605,-1.245,2702.777777777778
1.8,-1.27,2705.5555555555557
1.92,-1.255,2708.3333333333335
1.955,-1.225,2711.1111111111113
1.92,-1.2,2713.8888888888887
1.76,-1.185,2716.6666666666665
1.5,-1.16,2719.4444444444443
1.15,-1.145,2722.222222222222
0.845,-1.11,2725.0
0.645,-1.045,2727.777777777778
0.57,-1.005,2730.5555555555557
0.535,-0.905,2733.3333333333335
0.495,-0.845,2736.1111111111113
0.485,-0.75,2738.8888888888887
0.435,-0.65,2741.6666666666665
0.395,-0.57,2744.4444444444443
0.365,-0.485,2747.222222222222
0.35,-0.415,2750.0
0.295,-0.36,2752.777777777778
0.235,-0.31,2755.5555555555557
0.165,-0.26,2758.3333333333335
0.14,-0.185,2761.1111111111113
0.085,-0.11,2763.8888888888887
0.08,-0.065,2766.6666666666665
0.03,-0.035,2769.4444444444443
-0.01,-0.01,2772.222222222222
-0.12,0.04,2775.0
-0.135,0.12,2777.777777777778
-0.13,0.17,2780.5555555555557
-0.155,0.205,2783.3333333333335
-0.195,0.2,2786.1111111111113
-0.235,0.22,2788.8888888888887
-0.27,0.235,2791.6666666666665
-0.28,0.27,2794.4444444444443
-0.29,0.29,2797.222222222222
-0.3,0.3,2800.0
-0.305,0.295,2802.777777777778
-0.325,0.3,2805.5555555555557
-0.33,0.325,2808.3333333333335
-0.33,0.345,2811.1111111111113
-0.32,0.34,2813.8888888888887
-0.33,0.335,2816.6666666666665
-0.345,0.335,2819.4444444444443
-0.35,0.33,2822.222222222222
-0.36,0.355,2825.0
-0.355,0.39,2827.777777777778
-0.355,0.42,2830.5555555555557
-0.345,0.415,2833.3333333333335
-0.36,0.425,2836.1111111111113
-0.38,0.415,2838.8888888888887
-0.405,0.42,2841.6666666666665
-0.4,0.46,2844.4444444444443
-0.39,0.48,2847.222222222222
-0.38,0.485,2850.0
-0.385,0.495,2852.777777777778
-0.41,0.5,2855.5555555555557
-0.44,0.51,2858.3333333333335
-0.41,0.54,2861.1111111111113
-0.395,0.54,2863.8888888888887
-0.395,0.56,2866.6666666666665
-0.4,0.565,2869.4444444444443
-0.42,0.58,2872.222222222222
-0.435,0.6,2875.0
-0.45,0.635,2877.777777777778
-0.45,0.67,2880.5555555555557
-0.45,0.685,2883.3333333333335
-0.455,0.69,2886.1111111111113
-0.47,0.71,2888.8888888888887
-0.475,0.72,2891.6666666666665
-0.505,0.77,2894.4444444444443
-0.485,0.805,2897.222222222222
-0.5,0.8,2900.0
-0.49,0.815,2902.777777777778
-0.51,0.815,2905.5555555555557
-0.52,0.835,2908.3333333333335
-0.52,0.86,2911.1111111111113
-0.52,0.875,2913.8888888888887
-0.52,0.885,2916.6666666666665
-0.54,0.89,2919.4444444444443
-0.56,0.88,2922.222222222222
-0.58,0.89,2925.0
-0.575,0.93,2927.777777777778
-0.58,0.935,2930.5555555555557
-0.58,0.92,2933.3333333333335
-0.595,0.9,2936.1111111111113
-0.615,0.88,2938.8888888888887
-0.625,0.895,2941.6666666666665
-0.605,0.89,2944.4444444444443
-0.595,0.885,2947.222222222222
-0.585,0.88,2950.0
-0.61,0.855,2952.777777777778
-0.63,0.82,2955.5555555555557
-0.63,0.8,2958.3333333333335
-0.605,0.775,2961.1111111111113
-0.575,0.76,2963.8888888888887
-0.56,0.72,2966.6666666666665
-0.555,0.68,2969.4444444444443
-0.555,0.65,2972.222222222222
-0.555,0.615,2975.0
-0.52,0.585,2977.777777777778
-0.49,0.56,2980.5555555555557
-0.47,0.525,2983.3333333333335
-0.43,0.47,2986.1111111111113
-0.44,0.43,2988.8888888888887
-0.425,0.395,2991.6666666666665
-0.4,0.4,2994.4444444444443
-0.375,0.36,2997.222222222222
-0.345,0.34,3000.0
-0.315,0.285,3002.777777777778
-0.3,0.265,3005.5555555555557
-0.29,0.225,3008.3333333333335
-0.255,0.21,3011.1111111111113
-0.23,0.205,3013.8888888888887
-0.23,0.19,3016.6666666666665
-0.21,0.16,3019.4444444444443
-0.205,0.14,3022.222222222222
-0.205,0.12,3025.0
-0.18,0.11,3027.777777777778
-0.185,0.125,3030.5555555555557
-0.165,0.105,3033.3333333333335
-0.18,0.09,3036.1111111111113
-0.185,0.065,3038.8888888888887
-0.175,0.075,3041.6666666666665
-0.165,0.085,3044.4444444444443
-0.14,0.105,3047.222222222222
-0.155,0.085,3050.0
-0.155,0.06,3052.777777777778
-0.19,0.04,3055.5555555555557
-0.18,0.04,3058.3333333333335
-0.18,0.055,3061.1111111111113
-0.16,0.07,3063.8888888888887
-0.155,0.075,3066.6666666666665
-0.16,0.05,3069.4444444444443
-0.185,0.05,3072.222222222222
-0.185,0.06,3075.0
-0.175,0.07,3077.777777777778
-0.16,0.07,3080.5555555555557
-0.155,0.065,3083.3333333333335
-0.165,0.05,3086.1111111111113
-0.17,0.04,3088.8888888888887
-0.19,0.055,3091.6666666666665
-0.18,0.06,3094.4444444444443
-0.17,0.07,3097.222222222222
-0.17,0.07,3100.0
-0.18,0.04,3102.777777777778
-0.18,0.03,3105.5555555555557
-0.19,0.045,3108.3333333333335
-0.18,0.06,3111.1111111111113
-0.165,0.08,3113.8888888888887
-0.16,0.075,3116.6666666666665
-0.165,0.06,3119.4444444444443
-0.2,0.05,3122.222222222222
-0.205,0.055,3125.0
-0.2,0.065,3127.777777777778
-0.17,0.09,3130.5555555555557
-0.185,0.085,3133.3333333333335
-0.17,0.07,3136.1111111111113
-0.205,0.07,3138.8888888888887
-0.2,0.065,3141.6666666666665
-0.185,0.09,3144.4444444444443
-0.17,0.105,3147.222222222222
-0.17,0.1,3150.0
-0.175,0.07,3152.777777777778
-0.19,0.07,3155.5555555555557
-0.2,0.075,3158.3333333333335
-0.18,0.09,3161.1111111111113
-0.19,0.095,3163.8888888888887
-0.19,0.105,3166.6666666666665
-0.185,0.09,3169.4444444444443
-0.195,0.095,3172.222222222222
-0.2,0.095,3175.0
-0.19,0.115,3177.777777777778
-0.175,0.115,3180.5555555555557
-0.17,0.11,3183.3333333333335
-0.19,0.09,3186.1111111111113
-0.195,0.085,3188.8888888888887
-0.2,0.095,3191.6666666666665
-0.195,0.1,3194.4444444444443
-0.175,0.12,3197.222222222222
-0.17,0.1,3200.0
-0.185,0.08,3202.777777777778
-0.205,0.085,3205.5555555555557
-0.205,0.095,3208.3333333333335
-0.19,0.11,3211.1111111111113
-0.17,0.125,3213.8888888888887
-0.17,0.095,3216.6666666666665
-0.17,0.08,3219.4444444444443
-0.175,0.06,3222.222222222222
-0.175,0.075,3225.0
-0.18,0.085,3227.777777777778
-0.17,0.095,3230.5555555555557
-0.16,0.09,3233.3333333333335
-0.155,0.09,3236.1111111111113
-0.17,0.075,3238.8888888888887
-0.165,0.075,3241.6666666666665
-0.16,0.085,3244.4444444444443
-0.16,0.1,3247.222222222222
-0.165,0.095,3250.0
-0.16,0.06,3252.777777777778
-0.175,0.065,3255.5555555555557
-0.19,0.065,3258.3333333333335
-0.16,0.085,3261.1111111111113
-0.15,0.075,3263.8888888888887
-0.135,0.08,3266.6666666666665
-0.145,0.055,3269.4444444444443
-0.165,0.055,3272.222222222222
-0.175,0.065,3275.0
-0.175,0.075,3277.777777777778
-0.165,0.095,3280.5555555555557
-0.16,0.08,3283.3333333333335
-0.165,0.075,3286.1111111111113
-0.175,0.045,3288.8888888888887
-0.18,0.04,3291.6666666666665
-0.17,0.055,3294.4444444444443
-0.175,0.075,3297.222222222222
-0.17,0.075,3300.0
-0.165,0.065,3302.777777777778
-0.18,0.055,3305.5555555555557
-0.18,0.05,3308.3333333333335
-0.175,0.07,3311.1111111111113
-0.175,0.07,3313.8888888888887
-0.17,0.065,3316.6666666666665
-0.17,0.045,3319.4444444444443
-0.2,0.05,3322.222222222222
-0.19,0.045,3325.0
-0.185,0.055,3327.777777777778
-0.16,0.06,3330.5555555555557
-0.155,0.075,3333.3333333333335
-0.145,0.05,3336.1111111111113
-0.17,0.04,3338.8888888888887
-0.185,0.04,3341.6666666666665
-0.195,0.065,3344.4444444444443
-0.165,0.085,3347.222222222222
-0.165,0.085,3350.0
-0.145,0.075,3352.777777777778
-0.165,0.055,3355.5555555555557
-0.17,0.065,3358.3333333333335
-0.16,0.08,3361.1111111111113
-0.15,0.105,3363.8888888888887
-0.135,0.11,3366.6666666666665
-0.135,0.11,3369.4444444444443
-0.135,0.1,3372.222222222222
-0.15,0.125,3375.0
-0.13,0.135,3377.777777777778
-0.12,0.165,3380.5555555555557
-0.105,0.16,3383.3333333333335
-0.115,0.145,3386.1111111111113
-0.115,0.145,3388.8888888888887
-0.145,0.145,3391.6666666666665
-0.13,0.175,3394.4444444444443
-0.105,0.19,3397.222222222222
-0.08,0.17,3400.0
-0.095,0.16,3402.777777777778
-0.1,0.14,3405.5555555555557
-0.12,0.115,3408.3333333333335
-0.115,0.115,3411.1111111111113
-0.105,0.1,3413.8888888888887
-0.1,0.105,3416.6666666666665
-0.1,0.075,3419.4444444444443
-0.135,0.07,3422.222222222222
-0.16,0.07,3425.0
-0.15,0.08,3427.777777777778
-0.13,0.085,3430.5555555555557
-0.135,0.08,3433.3333333333335
-0.125,0.055,3436.1111111111113
-0.125,0.04,3438.8888888888887
-0.14,0.05,3441.6666666666665
-0.14,0.065,3444.4444444444443
-0.145,0.075,3447.222222222222
-0.145,0.075,3450.0
-0.16,0.06,3452.777777777778
-0.18,0.06,3455.5555555555557
-0.18,0.055,3458.3333333333335
-0.18,0.06,3461.1111111111113
-0.18,0.08,3463.8888888888887
-0.18,0.08,3466.6666666666665
-0.18,0.055,3469.4444444444443
-0.185,0.055,3472.222222222222
-0.18,0.06,3475.0
-0.175,0.07,3477.777777777778
-0.14,0.085,3480.5555555555557
-0.15,0.075,3483.3333333333335
-0.17,0.06,3486.1111111111113
-0.195,0.05,3488.8888888888887
-0.21,0.04,3491.6666666666665
-0.19,0.055,3494.4444444444443
-0.165,0.05,3497.222222222222
-0.145,0.06,3500.0
-0.14,0.03,3502.777777777778
-0.165,0.03,3505.5555555555557
-0.165,0.03,3508.3333333333335
-0.165,0.04,3511.1111111111113
-0.15,0.055,3513.8888888888887
-0.14,0.04,3516.6666666666665
-0.125,0.04,3519.4444444444443
-0.13,0.04,3522.222222222222
-0.14,0.06,3525.0
-0.145,0.095,3527.777777777778
-0.125,0.12,3530.5555555555557
-0.115,0.155,3533.3333333333335
-0.115,0.125,3536.1111111111113
-0.125,0.1,3538.8888888888887
-0.13,0.085,3541.6666666666665
-0.06,0.025,3544.4444444444443
0.055,-0.09,3547.222222222222
0.175,-0.225,3550.0
0.305,-0.415,3552.777777777778
0.405,-0.605,3555.5555555555557
0.525,-0.745,3558.3333333333335
0.65,-0.87,3561.1111111111113
0.79,-0.98,3563.8888888888887
0.965,-1.085,3566.6666666666665
1.17,-1.185,3569.4444444444443
1.355,-1.27,3572.222222222222
1.555,-1.29,3575.0
1.745,-1.305,3577.777777777778
1.905,-1.315,3580.5555555555557
2.0,-1.305,3583.3333333333335
2.03,-1.3,3586.1111111111113
1.995,-1.285,3588.8888888888887
1.94,-1.255,3591.6666666666665
1.845,-1.225,3594.4444444444443
1.65,-1.185,3597.222222222222
1.335,-1.135,3600.0
1.0,-1.095,3602.777777777778
0.74,-1.025,3605.5555555555557
0.585,-0.955,3608.3333333333335
0.53,-0.86,3611.1111111111113
0.505,-0.735,3613.8888888888887
0.485,-0.635,3616.6666666666665
0.465,-0.555,3619.4444444444443
0.415,-0.495,3622.222222222222
0.355,-0.44,3625.0
0.315,-0.37,3627.777777777778
0.285,-0.31,3630.5555555555557
0.255,-0.28,3633.3333333333335
0.23,-0.24,3636.1111111111113
0.185,-0.21,3638.8888888888887
0.15,-0.165,3641.6666666666665
0.13,-0.07,3644.4444444444443
0.09,-0.02,3647.222222222222
0.06,0.02,3650.0
0.0,0.02,3652.777777777778
-0.055,0.075,3655.5555555555557
-0.1,0.135,3658.3333333333335
-0.135,0.205,3661.1111111111113
-0.175,0.25,3663.8888888888887
-0.195,0.265,3666.6666666666665
-0.235,0.27,3669.4444444444443
-0.265,0.275,3672.222222222222
-0.285,0.305,3675.0
-0.29,0.325,3677.777777777778
-0.285,0.37,3680.5555555555557
-0.28,0.37,3683.3333333333335
-0.305,0.365,3686.1111111111113
-0.33,0.36,3688.8888888888887
-0.335,0.395,3691.6666666666665
-0.345,0.41,3694.4444444444443
-0.345,0.42,3697.222222222222
-0.32,0.425,3700.0
-0.325,0.44,3702.777777777778
-0.35,0.44,3705.5555555555557
-0.35,0.455,3708.3333333333335
-0.375,0.475,3711.1111111111113
-0.36,0.495,3713.8888888888887
-0.355,0.5,3716.6666666666665
-0.365,0.49,3719.4444444444443
-0.37,0.495,3722.222222222222
-0.395,0.515,3725.0
-0.39,0.525,3727.777777777778
-0.385,0.545,3730.5555555555557
-0.4,0.56,3733.3333333333335
-0.41,0.55,3736.1111111111113
-0.41,0.55,3738.8888888888887
-0.41,0.58,3741.6666666666665
-0.395,0.6,3744.4444444444443
-0.405,0.62,3747.222222222222
-0.4,0.625,3750.0
-0.41,0.62,3752.777777777778
-0.445,0.64,3755.5555555555557
-0.455,0.655,3758.3333333333335
-0.45,0.7,3761.1111111111113
-0.435,0.72,3763.8888888888887
-0.44,0.735,3766.6666666666665
-0.465,0.75,3769.4444444444443
-0.47,0.76,3772.222222222222
-0.515,0.755,3775.0
-0.51,0.79,3777.777777777778
-0.51,0.81,3780.5555555555557
-0.5,0.83,3783.3333333333335
-0.515,0.845,3786.1111111111113
-0.52,0.84,3788.8888888888887
-0.53,0.875,3791.6666666666665
-0.52,0.895,3794.4444444444443
-0.51,0.925,3797.222222222222
-0.515,0.91,3800.0
-0.535,0.92,3802.777777777778
-0.555,0.925,3805.5555555555557
-0.585,0.95,3808.3333333333335
-0.575,0.97,3811.1111111111113
-0.565,0.99,3813.8888888888887
-0.575,0.995,3816.6666666666665
-0.59,1.0,3819.4444444444443
-0.625,0.99,3822.222222222222
-0.635,0.995,3825.0
-0.63,1.015,3827.777777777778
-0.61,1.03,3830.5555555555557
-0.615,1.005,3833.3333333333335
-0.625,0.985,3836.1111111111113
-0.66,0.985,3838.8888888888887
-0.655,1.005,3841.6666666666665
-0.65,0.99,3844.4444444444443
-0.645,1.0,3847.222222222222
-0.64,0.985,3850.0
-0.635,0.95,3852.777777777778
-0.635,0.905,3855.5555555555557
-0.62,0.89,3858.3333333333335
-0.62,0.875,3861.1111111111113
-0.605,0.865,3863.8888888888887
-0.595,0.82,3866.6666666666665
-0.595,0.79,3869.4444444444443
-0.59,0.755,3872.222222222222
-0.56,0.72,3875.0
-0.535,0.695,3877.777777777778
-0.505,0.69,3880.5555555555557
-0.485,0.64,3883.3333333333335
-0.475,0.6,3886.1111111111113
-0.465,0.555,3888.8888888888887
-0.47,0.55,3891.6666666666665
-0.42,0.525,3894.4444444444443
-0.395,0.51,3897.222222222222
-0.365,0.485,3900.0
-0.365,0.435,3902.777777777778
-0.34,0.385,3905.5555555555557
-0.325,0.36,3908.3333333333335
-0.305,0.34,3911.1111111111113
-0.28,0.33,3913.8888888888887
-0.26,0.31,3916.6666666666665
-0.25,0.27,3919.4444444444443
-0.225,0.25,3922.222222222222
-0.22,0.23,3925.0
-0.2,0.22,3927.777777777778
-0.165,0.215,3930.5555555555557
-0.15,0.205,3933.3333333333335
-0.165,0.18,3936.1111111111113
-0.16,0.16,3938.8888888888887
-0.155,0.165,3941.6666666666665
-0.145,0.165,3944.4444444444443
-0.13,0.17,3947.222222222222
-0.12,0.185,3950.0
-0.16,0.155,3952.777777777778
-0.16,0.145,3955.5555555555557
-0.165,0.14,3958.3333333333335
-0.16,0.15,3961.1111111111113
-0.145,0.135,3963.8888888888887
-0.125,0.14,3966.6666666666665
-0.13,0.135,3969.4444444444443
-0.145,0.135,3972.222222222222
-0.165,0.125,3975.0
-0.155,0.135,3977.777777777778
-0.14,0.15,3980.5555555555557
-0.13,0.145,3983.3333333333335
-0.13,0.125,3986.1111111111113
-0.15,0.115,3988.8888888888887
-0.155,0.13,3991.6666666666665
-0.15,0.145,3994.4444444444443
-0.14,0.155,3997.222222222222
-0.145,0.145,4000.0
-0.155,0.145,4002.777777777778
-0.165,0.135,4005.5555555555557
-0.175,0.125,4008.3333333333335
-0.15,0.135,4011.1111111111113
-0.145,0.15,4013.8888888888887
-0.135,0.155,4016.6666666666665
-0.135,0.14,4019.4444444444443
-0.16,0.11,4022.222222222222
-0.17,0.13,4025.0
-0.165,0.16,4027.777777777778
-0.15,0.17,4030.5555555555557
-0.135,0.15,4033.3333333333335
-0.15,0.125,4036.1111111111113
-0.155,0.125,4038.8888888888887
-0.17,0.135,4041.6666666666665
-0.165,0.155,4044.4444444444443
-0.17,0.165,4047.222222222222
-0.135,0.165,4050.0
-0.16,0.16,4052.777777777778
-0.16,0.14,4055.5555555555557
-0.16,0.15,4058.3333333333335
-0.15,0.165,4061.1111111111113
-0.145,0.17,4063.8888888888887
-0.145,0.175,4066.6666666666665
-0.165,0.145,4069.4444444444443
-0.17,0.15,4072.222222222222
-0.17,0.15,4075.0
-0.16,0.16,4077.777777777778
-0.145,0.19,4080.5555555555557
-0.13,0.175,4083.3333333333335
-0.15,0.155,4086.1111111111113
-0.175,0.145,4088.8888888888887
-0.17,0.15,4091.6666666666665
-0.17,0.165,4094.4444444444443
-0.16,0.19,4097.222222222223
-0.15,0.18,4100.0
-0.15,0.165,4102.777777777777
-0.16,0.145,4105.555555555556
-0.165,0.165,4108.333333333333
-0.16,0.16,4111.111111111111
-0.15,0.175,4113.888888888889
-0.145,0.165,4116.666666666667
-0.145,0.14,4119.444444444444
-0.18,0.135,4122.222222222223
-0.155,0.135,4125.0
-0.15,0.145,4127.777777777777
-0.155,0.16,4130.555555555556
-0.13,0.165,4133.333333333333
-0.15,0.14,4136.111111111111
-0.17,0.13,4138.888888888889
-0.16,0.12,4141.666666666667
-0.14,0.145,4144.444444444444
-0.15,0.16,4147.222222222223
-0.135,0.14,4150.0
-0.14,0.125,4152.777777777777
-0.145,0.105,4155.555555555556
-0.155,0.11,4158.333333333333
-0.15,0.125,4161.111111111111
-0.12,0.12,4163.888888888889
-0.1,0.135,4166.666666666667
-0.115,0.105,4169.444444444444
-0.135,0.09,4172.222222222223
-0.13,0.09,4175.0
-0.13,0.11,4177.777777777777
-0.12,0.12,4180.555555555556
-0.13,0.12,4183.333333333333
-0.13,0.115,4186.111111111111
-0.13,0.105,4188.888888888889
-0.145,0.095,4191.666666666667
-0.135,0.11,4194.444444444444
-0.12,0.12,4197.222222222223
-0.125,0.115,4200.0
-0.115,0.115,4202.777777777777
-0.14,0.095,4205.555555555556
-0.14,0.095,4208.333333333333
-0.135,0.11,4211.111111111111
-0.125,0.13,4213.888888888889
-0.125,0.11,4216.666666666667
-0.125,0.095,4219.444444444444
-0.14,0.075,4222.222222222223
-0.14,0.1,4225.0
-0.13,0.125,4227.777777777777
-0.11,0.13,4230.555555555556
-0.08,0.13,4233.333333333333
-0.105,0.115,4236.111111111111
-0.105,0.105,4238.888888888889
-0.125,0.11,4241.666666666667
-0.13,0.13,4244.444444444444
-0.13,0.135,4247.222222222223
-0.09,0.135,4250.0
-0.1,0.14,4252.777777777777
-0.105,0.14,4255.555555555556
-0.105,0.145,4258.333333333333
-0.09,0.18,4261.111111111111
-0.08,0.195,4263.888888888889
-0.07,0.18,4266.666666666667
-0.07,0.17,4269.444444444444
-0.08,0.17,4272.222222222223
-0.08,0.2,4275.0
-0.09,0.21,4277.777777777777
-0.055,0.23,4280.555555555556
-0.045,0.23,4283.333333333333
-0.065,0.22,4286.111111111111
-0.07,0.21,4288.888888888889
-0.08,0.185,4291.666666666667
-0.065,0.2,4294.444444444444
-0.055,0.2,4297.222222222223
-0.045,0.17,4300.0
-0.065,0.125,4302.777777777777
-0.095,0.095,4305.555555555556
-0.11,0.1,4308.333333333333
-0.1,0.095,4311.111111111111
-0.08,0.12,4313.888888888889
-0.075,0.115,4316.666666666667
-0.09,0.09,4319.444444444444
-0.115,0.085,4322.222222222223
-0.125,0.09,4325.0
-0.125,0.11,4327.777777777777
-0.115,0.13,4330.555555555556
-0.11,0.115,4333.333333333333
-0.125,0.09,4336.111111111111
-0.14,0.075,4338.888888888889
-0.155,0.06,4341.666666666667
-0.145,0.085,4344.444444444444
-0.16,0.1,4347.222222222223
-0.16,0.1,4350.0
-0.15,0.1,4352.777777777777
-0.16,0.07,4355.555555555556
-0.15,0.08,4358.333333333333
-0.155,0.08,4361.111111111111
-0.15,0.09,4363.888888888889
-0.145,0.085,4366.666666666667
-0.15,0.06,4369.444444444444
-0.16,0.055,4372.222222222223
-0.15,0.07,4375.0
-0.16,0.075,4377.777777777777
-0.14,0.085,4380.555555555556
-0.13,0.075,4383.333333333333
-0.135,0.05,4386.111111111111
-0.135,0.04,4388.888888888889
-0.135,0.045,4391.666666666667
-0.125,0.06,4394.444444444444
-0.1,0.07,4397.222222222223
-0.095,0.08,4400.0
-0.115,0.065,4402.777777777777
-0.12,0.055,4405.555555555556
-0.115,0.07,4408.333333333333
-0.1,0.105,4411.111111111111
-0.085,0.155,4413.888888888889
-0.08,0.185,4416.666666666667
-0.1,0.16,4419.444444444444
-0.11,0.155,4422.222222222223
-0.06,0.085,4425.0
0.065,0.035,4427.777777777777
0.225,-0.035,4430.555555555556
0.32,-0.125,4433.333333333333
0.385,-0.265,4436.111111111111
0.435,-0.445,4438.888888888889
0.52,-0.615,4441.666666666667
0.66,-0.745,4444.444444444444
0.845,-0.86,4447.222222222223
1.055,-0.98,4450.0
1.26,-1.07,4452.777777777777
1.46,-1.13,4455.555555555556
1.67,-1.18,4458.333333333333
1.88,-1.2,4461.111111111111
2.015,-1.21,4463.888888888889
2.045,-1.22,4466.666666666667
1.98,-1.25,4469.444444444444
1.785,-1.265,4472.222222222223
1.47,-1.27,4475.0
1.125,-1.25,4477.777777777777
0.835,-1.215,4480.555555555556
0.665,-1.16,4483.333333333333
0.545,-1.105,4486.111111111111
0.46,-1.03,4488.888888888889
0.415,-0.93,4491.666666666667
0.395,-0.79,4494.444444444444
0.41,-0.66,4497.222222222223
0.405,-0.565,4500.0
0.355,-0.485,4502.777777777777
0.3,-0.41,4505.555555555556
0.26,-0.35,4508.333333333333
0.215,-0.275,4511.111111111111
0.19,-0.195,4513.888888888889
0.16,-0.145,4516.666666666667
0.11,-0.09,4519.444444444444
0.075,-0.065,4522.222222222223
0.02,-0.005,4525.0
0.01,0.045,4527.777777777777
-0.025,0.085,4530.555555555556
-0.05,0.13,4533.333333333333
-0.085,0.16,4536.111111111111
-0.135,0.2,4538.888888888889
-0.17,0.235,4541.666666666667
-0.19,0.28,4544.444444444444
-0.2,0.335,4547.222222222223
-0.22,0.33,4550.0
-0.245,0.34,4552.777777777777
-0.275,0.33,4555.555555555556
-0.3,0.365,4558.333333333333
-0.295,0.385,4561.111111111111
-0.29,0.405,4563.888888888889
-0.27,0.41,4566.666666666667
-0.29,0.405,4569.444444444444
-0.31,0.405,4572.222222222223
-0.335,0.41,4575.0
-0.315,0.43,4577.777777777777
-0.305,0.465,4580.555555555556
-0.29,0.455,4583.333333333333
-0.32,0.445,4586.111111111111
-0.34,0.44,4588.888888888889
-0.34,0.475,4591.666666666667
-0.355,0.51,4594.444444444444
-0.335,0.53,4597.222222222223
-0.32,0.54,4600.0
-0.335,0.535,4602.777777777777
-0.355,0.535,4605.555555555556
-0.36,0.55,4608.333333333333
-0.365,0.56,4611.111111111111
-0.365,0.595,4613.888888888889
-0.38,0.605,4616.666666666667
-0.365,0.605,4619.444444444444
-0.38,0.6,4622.222222222223
-0.38,0.63,4625.0
-0.39,0.655,4627.777777777777
-0.39,0.685,4630.555555555556
-0.385,0.68,4633.333333333333
-0.39,0.68,4636.111111111111
-0.42,0.695,4638.888888888889
-0.42,0.73,4641.666666666667
-0.41,0.76,4644.444444444444
-0.42,0.8,4647.222222222223
-0.43,0.815,4650.0
-0.445,0.805,4652.777777777777
-0.47,0.84,4655.555555555556
-0.475,0.85,4658.333333333333
-0.47,0.88,4661.111111111111
-0.465,0.905,4663.888888888889
-0.47,0.935,4666.666666666667
-0.505,0.915,4669.444444444444
-0.53,0.905,4672.222222222223
-0.53,0.92,4675.0
-0.53,0.935,4677.777777777777
-0.51,0.965,4680.555555555556
-0.51,0.96,4683.333333333333
-0.525,0.95,4686.111111111111
-0.545,0.95,4688.888888888889
-0.565,0.95,4691.666666666667
-0.58,0.955,4694.444444444444
-0.57,0.97,4697.222222222223
-0.555,0.94,4700.0
-0.56,0.92,4702.777777777777
-0.59,0.89,4705.555555555556
-0.6,0.87,4708.333333333333
-0.585,0.87,4711.111111111111
-0.57,0.86,4713.888888888889
-0.55,0.815,4716.666666666667
-0.54,0.78,4719.444444444444
-0.55,0.745,4722.222222222223
-0.54,0.71,4725.0
-0.52,0.685,4727.777777777777
-0.495,0.675,4730.555555555556
-0.465,0.63,4733.333333333333
-0.46,0.6,4736.111111111111
-0.455,0.55,4738.888888888889
-0.435,0.515,4741.666666666667
-0.395,0.495,4744.444444444444
-0.37,0.46,4747.222222222223
-0.335,0.42,4750.0
-0.32,0.36,4752.777777777777
-0.3,0.32,4755.555555555556
-0.275,0.305,4758.333333333333
-0.25,0.29,4761.111111111111
-0.205,0.285,4763.888888888889
-0.19,0.265,4766.666666666667
-0.18,0.22,4769.444444444444
-0.2,0.195,4772.222222222223
-0.175,0.185,4775.0
-0.165,0.19,4777.777777777777
-0.145,0.185,4780.555555555556
-0.13,0.17,4783.333333333333
-0.115,0.15,4786.111111111111
-0.135,0.13,4788.888888888889
-0.14,0.125,4791.666666666667
-0.135,0.125,4794.444444444444
-0.12,0.135,4797.222222222223
-0.11,0.13,4800.0
-0.115,0.12,4802.777777777777
-0.115,0.105,4805.555555555556
-0.14,0.11,4808.333333333333
-0.14,0.11,4811.111111111111
-0.12,0.12,4813.888888888889
-0.12,0.115,4816.666666666667
-0.13,0.095,4819.444444444444
-0.145,0.08,4822.222222222223
-0.13,0.07,4825.0
-0.135,0.09,4827.777777777777
-0.13,0.13,4830.555555555556
-0.125,0.115,4833.333333333333
-0.125,0.1,4836.111111111111
-0.14,0.08,4838.888888888889
-0.15,0.085,4841.666666666667
-0.135,0.09,4844.444444444444
-0.12,0.1,4847.222222222223
-0.115,0.095,4850.0
-0.135,0.09,4852.777777777777
-0.15,0.085,4855.555555555556
-0.16,0.085,4858.333333333333
-0.145,0.115,4861.111111111111
-0.13,0.115,4863.888888888889
-0.12,0.105,4866.666666666667
-0.135,0.09,4869.444444444444
-0.14,0.09,4872.222222222223
-0.16,0.085,4875.0
-0.165,0.095,4877.777777777777
-0.145,0.125,4880.555555555556
-0.135,0.11,4883.333333333333
-0.135,0.1,4886.111111111111
-0.135,0.09,4888.888888888889
-0.145,0.08,4891.666666666667
-0.15,0.12,4894.444444444444
-0.145,0.12,4897.222222222223
-0.125,0.115,4900.0
-0.125,0.11,4902.777777777777
-0.145,0.095,4905.555555555556
-0.145,0.105,4908.333333333333
-0.14,0.12,4911.111111111111
-0.12,0.145,4913.888888888889
-0.13,0.12,4916.666666666667
-0.145,0.115,4919.444444444444
-0.165,0.105,4922.222222222223
-0.15,0.115,4925.0
-0.14,0.135,4927.777777777777
-0.135,0.15,4930.555555555556
-0.135,0.14,4933.333333333333
-0.14,0.125,4936.111111111111
-0.145,0.115,4938.888888888889
-0.16,0.105,4941.666666666667
-0.14,0.11,4944.444444444444
-0.13,0.14,4947.222222222223
-0.11,0.125,4950.0
-0.125,0.11,4952.777777777777
-0.13,0.105,4955.555555555556
-0.145,0.115,4958.333333333333
-0.14,0.105,4961.111111111111
-0.115,0.11,4963.888888888889
-0.105,0.11,4966.666666666667
-0.12,0.105,4969.444444444444
-0.12,0.09,4972.222222222223
-0.14,0.1,4975.0
-0.13,0.1,4977.777777777777
-0.12,0.125,4980.555555555556
-0.11,0.115,4983.333333333333
-0.11,0.1,4986.111111111111
-0.12,0.085,4988.888888888889
-0.12,0.07,4991.666666666667
-0.11,0.075,4994.444444444444
-0.105,0.09,4997.222222222223
-0.115,0.065,5000.0
-0.115,0.075,5002.777777777777
-0.135,0.05,5005.555555555556
-0.135,0.05,5008.333333333333
-0.13,0.07,5011.111111111111
-0.105,0.08,5013.888888888889
-0.115,0.07,5016.666666666667
-0.125,0.05,5019.444444444444
-0.15,0.045,5022.222222222223
-0.14,0.06,5025.0
-0.14,0.06,5027.777777777777
-0.115,0.09,5030.555555555556
-0.12,0.08,5033.333333333333
-0.12,0.06,5036.111111111111
-0.15,0.045,5038.888888888889
-0.155,0.045,5041.666666666667
-0.145,0.055,5044.444444444444
-0.135,0.065,5047.222222222223
-0.125,0.06,5050.0
-0.115,0.045,5052.777777777777
-0.13,0.04,5055.555555555556
-0.135,0.03,5058.333333333333
-0.13,0.05,5061.111111111111
-0.12,0.06,5063.888888888889
-0.11,0.06,5066.666666666667
-0.11,0.045,5069.444444444444
-0.13,0.035,5072.222222222223
-0.125,0.05,5075.0
-0.13,0.07,5077.777777777777
-0.115,0.075,5080.555555555556
-0.09,0.055,5083.333333333333
-0.085,0.04,5086.111111111111
-0.1,0.03,5088.888888888889
-0.1,0.045,5091.666666666667
-0.075,0.06,5094.444444444444
-0.065,0.09,5097.222222222223
-0.06,0.08,5100.0
-0.07,0.07,5102.777777777777
-0.07,0.07,5105.555555555556
-0.065,0.085,5108.333333333333
-0.055,0.1,5111.111111111111
-0.05,0.12,5113.888888888889
-0.025,0.125,5116.666666666667
-0.05,0.115,5119.444444444444
-0.05,0.1,5122.222222222223
-0.06,0.09,5125.0
-0.04,0.095,5127.777777777777
-0.035,0.075,5130.555555555556
-0.03,0.075,5133.333333333333
-0.07,0.05,5136.111111111111
-0.085,0.015,5138.888888888889
-0.1,0.02,5141.666666666667
-0.1,0.02,5144.444444444444
-0.08,0.04,5147.222222222223
-0.07,0.03,5150.0
-0.075,0.01,5152.777777777777
-0.085,0.0,5155.555555555556
-0.125,0.0,5158.333333333333
-0.13,0.01,5161.111111111111
-0.125,0.01,5163.888888888889
-0.105,0.01,5166.666666666667
-0.125,-0.005,5169.444444444444
-0.14,-0.03,5172.222222222223
-0.155,0.0,5175.0
-0.155,-0.01,5177.777777777777
-0.165,-0.005,5180.555555555556
-0.135,0.0,5183.333333333333
-0.135,-0.015,5186.111111111111
-0.14,-0.025,5188.888888888889
-0.14,-0.015,5191.666666666667
-0.14,-0.005,5194.444444444444
-0.135,0.0,5197.222222222223
-0.135,0.0,5200.0
-0.145,-0.025,5202.777777777777
-0.15,-0.035,5205.555555555556
-0.165,-0.025,5208.333333333333
-0.145,0.005,5211.111111111111
-0.135,0.005,5213.888888888889
-0.11,-0.01,5216.666666666667
-0.11,-0.02,5219.444444444444
-0.13,-0.04,5222.222222222223
-0.12,-0.045,5225.0
-0.1,-0.03,5227.777777777777
-0.09,-0.005,5230.555555555556
-0.085,0.0,5233.333333333333
-0.085,0.01,5236.111111111111
-0.09,0.015,5238.888888888889
-0.1,0.03,5241.666666666667
-0.08,0.05,5244.444444444444
-0.06,0.025,5247.222222222223
-0.015,-0.045,5250.0
0.045,-0.175,5252.777777777777
0.155,-0.315,5255.555555555556
0.28,-0.495,5258.333333333333
0.385,-0.65,5261.111111111111
0.5,-0.775,5263.888888888889
0.605,-0.925,5266.666666666667
0.715,-1.045,5269.444444444444
0.86,-1.16,5272.222222222223
1.04,-1.22,5275.0
1.23,-1.26,5277.777777777777
1.385,-1.28,5280.555555555556
1.54,-1.32,5283.333333333333
1.67,-1.345,5286.111111111111
1.815,-1.33,5288.888888888889
1.96,-1.295,5291.666666666667
2.06,-1.25,5294.444444444444
2.075,-1.215,5297.222222222223
2.005,-1.185,5300.0
1.795,-1.205,5302.777777777777
1.455,-1.165,5305.555555555556
1.1,-1.11,5308.333333333333
0.805,-1.03,5311.111111111111
0.655,-0.95,5313.888888888889
0.585,-0.9,5316.666666666667
0.535,-0.815,5319.444444444444
0.51,-0.725,5322.222222222223
0.47,-0.65,5325.0
0.445,-0.56,5327.777777777777
0.42,-0.49,5330.555555555556
0.39,-0.46,5333.333333333333
0.34,-0.41,5336.111111111111
0.29,-0.39,5338.888888888889
0.25,-0.315,5341.666666666667
0.19,-0.235,5344.444444444444
0.165,-0.15,5347.222222222223
0.115,-0.095,5350.0
0.07,-0.055,5352.777777777777
0.005,-0.025,5355.555555555556
-0.055,0.02,5358.333333333333
-0.065,0.075,5361.111111111111
-0.105,0.14,5363.888888888889
-0.13,0.175,5366.666666666667
-0.185,0.18,5369.444444444444
-0.23,0.205,5372.222222222223
-0.24,0.21,5375.0
-0.265,0.235,5377.777777777777
-0.255,0.25,5380.555555555556
-0.27,0.245,5383.333333333333
-0.255,0.255,5386.111111111111
-0.285,0.255,5388.888888888889
-0.305,0.265,5391.666666666667
-0.31,0.31,5394.444444444444
-0.3,0.325,5397.222222222223
-0.295,0.34,5400.0
-0.315,0.355,5402.777777777777
-0.33,0.32,5405.555555555556
-0.335,0.33,5408.333333333333
-0.335,0.35,5411.111111111111
-0.31,0.39,5413.888888888889
-0.305,0.4,5416.666666666667
-0.33,0.395,5419.444444444444
-0.35,0.38,5422.222222222223
-0.365,0.39,5425.0
-0.35,0.42,5427.777777777777
-0.355,0.445,5430.555555555556
-0.36,0.45,5433.333333333333
-0.375,0.44,5436.111111111111
-0.38,0.44,5438.888888888889
-0.375,0.47,5441.666666666667
-0.375,0.515,5444.444444444444
-0.375,0.54,5447.222222222223
-0.365,0.55,5450.0
-0.385,0.53,5452.777777777777
-0.41,0.56,5455.555555555556
-0.42,0.575,5458.333333333333
-0.41,0.62,5461.111111111111
-0.4,0.645,5463.888888888889
-0.4,0.655,5466.666666666667
-0.425,0.655,5469.444444444444
-0.46,0.635,5472.222222222223
-0.465,0.665,5475.0
-0.45,0.69,5477.777777777777
-0.44,0.71,5480.555555555556
-0.43,0.745,5483.333333333333
-0.455,0.75,5486.111111111111
-0.475,0.75,5488.888888888889
-0.5,0.775,5491.666666666667
-0.495,0.795,5494.444444444444
-0.49,0.84,5497.222222222223
-0.49,0.82,5500.0
-0.5,0.82,5502.777777777777
-0.52,0.82,5505.555555555556
-0.545,0.825,5508.333333333333
-0.545,0.845,5511.111111111111
-0.54,0.865,5513.888888888889
-0.535,0.865,5516.666666666667
-0.545,0.855,5519.444444444444
-0.565,0.825,5522.222222222223
-0.58,0.825,5525.0
-0.585,0.81,5527.777777777777
-0.575,0.835,5530.555555555556
-0.565,0.805,5533.333333333333
-0.55,0.79,5536.111111111111
-0.57,0.755,5538.888888888889
-0.575,0.73,5541.666666666667
-0.57,0.71,5544.444444444444
-0.565,0.7,5547.222222222223
-0.55,0.665,5550.0
-0.53,0.61,5552.777777777777
-0.525,0.58,5555.555555555556
-0.515,0.525,5558.333333333333
-0.48,0.49,5561.111111111111
-0.44,0.485,5563.888888888889
-0.43,0.435,5566.666666666667
-0.425,0.41,5569.444444444444
-0.4,0.375,5572.222222222223
-0.38,0.34,5575.0
-0.345,0.325,5577.777777777777
-0.315,0.315,5580.555555555556
-0.29,0.27,5583.333333333333
-0.315,0.235,5586.111111111111
-0.28,0.19,5588.888888888889
-0.275,0.16,5591.666666666667
-0.24,0.15,5594.444444444444
-0.2,0.145,5597.222222222223
-0.18,0.12,5600.0
-0.185,0.09,5602.777777777777
-0.2,0.055,5605.555555555556
-0.205,0.055,5608.333333333333
-0.175,0.055,5611.111111111111
-0.16,0.05,5613.888888888889
-0.125,0.04,5616.666666666667
-0.135,0.03,5619.444444444444
-0.155,0.005,5622.222222222223
-0.155,0.0,5625.0
-0.16,0.015,5627.777777777777
-0.145,0.015,5630.555555555556
-0.14,0.005,5633.333333333333
-0.145,-0.01,5636.111111111111
-0.15,-0.02,5638.888888888889
-0.165,-0.02,5641.666666666667
-0.155,-0.01,5644.444444444444
-0.15,0.01,5647.222222222223
-0.145,0.01,5650.0
-0.16,-0.015,5652.777777777777
-0.17,-0.015,5655.555555555556
-0.16,-0.02,5658.333333333333
-0.145,-0.015,5661.111111111111
-0.13,0.005,5663.888888888889
-0.135,-0.005,5666.666666666667
-0.155,-0.025,5669.444444444444
-0.16,-0.01,5672.222222222223
-0.15,-0.025,5675.0
-0.14,-0.01,5677.777777777777
-0.13,0.005,5680.555555555556
-0.13,0.0,5683.333333333333
-0.16,-0.015,5686.111111111111
-0.16,-0.025,5688.888888888889
-0.175,-0.025,5691.666666666667
-0.16,-0.005,5694.444444444444
-0.15,0.025,5697.222222222223
-0.14,0.025,5700.0
-0.14,0.01,5702.777777777777
-0.165,-0.025,5705.555555555556
-0.18,-0.02,5708.333333333333
-0.19,-0.01,5711.111111111111
-0.17,0.015,5713.888888888889
-0.155,0.02,5716.666666666667
-0.16,0.005,5719.444444444444
-0.175,0.015,5722.222222222223
-0.21,0.015,5725.0
-0.19,0.035,5727.777777777777
-0.18,0.035,5730.555555555556
-0.16,0.025,5733.333333333333
-0.17,0.0,5736.111111111111
-0.185,0.0,5738.888888888889
-0.18,0.01,5741.666666666667
-0.165,0.02,5744.444444444444
-0.165,0.01,5747.222222222223
-0.155,0.03,5750.0
-0.185,0.005,5752.777777777777
-0.19,-0.005,5755.555555555556
-0.19,0.0,5758.333333333333
-0.175,0.01,5761.111111111111
-0.165,0.045,5763.888888888889
-0.165,0.025,5766.666666666667
-0.185,0.015,5769.444444444444
-0.195,0.005,5772.222222222223
-0.195,-0.005,5775.0
-0.165,-0.005,5777.777777777777
-0.145,0.03,5780.555555555556
-0.145,0.015,5783.333333333333
-0.15,0.0,5786.111111111111
-0.185,0.0,5788.888888888889
-0.195,0.0,5791.666666666667
-0.185,0.025,5794.444444444444
-0.18,0.02,5797.222222222223
-0.17,0.015,5800.0
-0.155,0.005,5802.777777777777
-0.17,-0.01,5805.555555555556
-0.18,-0.005,5808.333333333333
-0.18,0.005,5811.111111111111
-0.16,0.015,5813.888888888889
-0.145,0.01,5816.666666666667
-0.16,0.005,5819.444444444444
-0.165,-0.02,5822.222222222223
-0.18,-0.02,5825.0
-0.17,-0.01,5827.777777777777
-0.18,-0.01,5830.555555555556
-0.16,-0.02,5833.333333333333
-0.175,-0.01,5836.111111111111
-0.175,0.005,5838.888888888889
-0.165,-0.005,5841.666666666667
-0.155,0.01,5844.444444444444
-0.15,0.025,5847.222222222223
-0.13,0.025,5850.0
-0.14,0.01,5852.777777777777
-0.15,0.0,5855.555555555556
-0.13,0.0,5858.333333333333
-0.11,0.035,5861.111111111111
-0.105,0.05,5863.888888888889
-0.09,0.05,5866.666666666667
-0.075,0.04,5869.444444444444
-0.06,0.035,5872.222222222223
-0.05,0.06,5875.0
-0.025,0.075,5877.777777777777
0.01,0.1,5880.555555555556
0.055,0.115,5883.333333333333
0.085,0.12,5886.111111111111
0.1,0.13,5888.888888888889
0.15,0.16,5891.666666666667
0.225,0.205,5894.444444444444
0.335,0.225,5897.222222222223
0.425,0.24,5900.0
0.535,0.245,5902.777777777777
0.58,0.26,5905.555555555556
0.61,0.315,5908.333333333333
0.665,0.375,5911.111111111111
0.74,0.435,5913.888888888889
0.785,0.485,5916.666666666667
0.85,0.555,5919.444444444444
0.89,0.605,5922.222222222223
0.93,0.675,5925.0
0.975,0.79,5927.777777777777
0.99,0.925,5930.555555555556
1.005,1.1,5933.333333333333
0.975,1.31,5936.111111111111
0.93,1.54,5938.888888888889
0.845,1.725,5941.666666666667
0.67,1.845,5944.444444444444
0.325,1.935,5947.222222222223
-0.11,1.945,5950.0
-0.61,1.98,5952.777777777777
-1.01,1.985,5955.555555555556
-1.295,2.025,5958.333333333333
-1.465,2.05,5961.111111111111
-1.6,2.1,5963.888888888889
-1.675,2.09,5966.666666666667
-1.72,2.065,5969.444444444444
-1.71,2.005,5972.222222222223
-1.66,1.935,5975.0
-1.625,1.855,5977.777777777777
-1.575,1.79,5980.555555555556
-1.53,1.665,5983.333333333333
-1.45,1.52,5986.111111111111
-1.38,1.41,5988.888888888889
-1.335,1.305,5991.666666666667
-1.315,1.22,5994.444444444444
-1.28,1.13,5997.222222222223
-1.23,1.075,6000.0
-1.185,1.045,6002.777777777777
-1.165,1.055,6005.555555555556
-1.135,1.08,6008.333333333333
-1.095,1.115,6011.111111111111
-1.05,1.16,6013.888888888889
-1.02,1.145,6016.666666666667
-1.03,1.125,6019.444444444444
-1.03,1.065,6022.222222222223
-1.035,0.995,6025.0
-1.025,0.9,6027.777777777777
-0.98,0.78,6030.555555555556
-0.935,0.62,6033.333333333333
-0.87,0.465,6036.111111111111
-0.81,0.33,6038.888888888889
-0.735,0.18,6041.666666666667
-0.64,0.055,6044.444444444444
-0.535,-0.05,6047.222222222223
-0.46,-0.14,6050.0
-0.36,-0.25,6052.777777777777
-0.305,-0.305,6055.555555555556
-0.265,-0.34,6058.333333333333
-0.23,-0.355,6061.111111111111
-0.195,-0.365,6063.888888888889
-0.155,-0.415,6066.666666666667
-0.14,-0.48,6069.444444444444
-0.115,-0.53,6072.222222222223
-0.105,-0.57,6075.0
-0.09,-0.57,6077.777777777777
-0.06,-0.585,6080.555555555556
-0.05,-0.62,6083.333333333333
-0.05,-0.655,6086.111111111111
-0.025,-0.695,6088.888888888889
-0.02,-0.71,6091.666666666667
-0.005,-0.715,6094.444444444444
0.03,-0.735,6097.222222222223
0.055,-0.77,6100.0
0.07,-0.805,6102.777777777777
0.075,-0.825,6105.555555555556
0.075,-0.83,6108.333333333333
0.085,-0.83,6111.111111111111
0.105,-0.87,6113.888888888889
0.11,-0.89,6116.666666666667
0.135,-0.93,6119.444444444444
0.165,-0.975,6122.222222222223
0.19,-1.005,6125.0
0.22,-1.01,6127.777777777777
0.245,-1.02,6130.555555555556
0.27,-1.05,6133.333333333333
0.29,-1.1,6136.111111111111
0.31,-1.145,6138.888888888889
0.34,-1.185,6141.666666666667
0.38,-1.19,6144.444444444444
0.415,-1.205,6147.222222222223
0.44,-1.235,6150.0
0.475,-1.265,6152.777777777777
0.48,-1.285,6155.555555555556
0.515,-1.3,6158.333333333333
0.535,-1.33,6161.111111111111
0.575,-1.335,6163.888888888889
0.6,-1.36,6166.666666666667
0.63,-1.395,6169.444444444444
0.65,-1.43,6172.222222222223
0.675,-1.445,6175.0
0.695,-1.44,6177.777777777777
0.75,-1.44,6180.555555555556
0.785,-1.455,6183.333333333333
0.795,-1.47,6186.111111111111
0.805,-1.495,6188.888888888889
0.81,-1.48,6191.666666666667
0.84,-1.455,6194.444444444444
0.875,-1.45,6197.222222222223
0.89,-1.46,6200.0
0.885,-1.45,6202.777777777777
0.87,-1.45,6205.555555555556
0.855,-1.41,6208.333333333333
0.855,-1.37,6211.111111111111
0.88,-1.325,6213.888888888889
0.89,-1.295,6216.666666666667
0.87,-1.265,6219.444444444444
0.835,-1.24,6222.222222222223
0.8,-1.2,6225.0
0.795,-1.13,6227.777777777777
0.795,-1.075,6230.555555555556
0.765,-1.025,6233.333333333333
0.745,-0.975,6236.111111111111
0.7,-0.955,6238.888888888889
0.655,-0.925,6241.666666666667
0.63,-0.865,6244.444444444444
0.625,-0.815,6247.222222222223
0.605,-0.755,6250.0
0.565,-0.715,6252.777777777777
0.515,-0.685,6255.555555555556
0.465,-0.61,6258.333333333333
0.43,-0.535,6261.111111111111
0.4,-0.475,6263.888888888889
0.365,-0.46,6266.666666666667
0.31,-0.42,6269.444444444444
0.265,-0.395,6272.222222222223
0.22,-0.345,6275.0
0.18,-0.295,6277.777777777777
0.155,-0.245,6280.555555555556
0.13,-0.24,6283.333333333333
0.105,-0.22,6286.111111111111
0.075,-0.23,6288.888888888889
0.03,-0.205,6291.666666666667
-0.01,-0.18,6294.444444444444
0.01,-0.145,6297.222222222223
-0.01,-0.13,6300.0
-0.02,-0.125,6302.777777777777
-0.04,-0.15,6305.555555555556
-0.06,-0.125,6308.333333333333
-0.065,-0.11,6311.111111111111
-0.065,-0.095,6313.888888888889
-0.075,-0.09,6316.666666666667
-0.085,-0.095,6319.444444444444
-0.105,-0.095,6322.222222222223
-0.125,-0.08,6325.0
-0.105,-0.07,6327.777777777777
-0.095,-0.05,6330.555555555556
-0.095,-0.04,6333.333333333333
-0.12,-0.07,6336.111111111111
-0.13,-0.085,6338.888888888889
-0.13,-0.08,6341.666666666667
-0.135,-0.05,6344.444444444444
-0.105,-0.02,6347.222222222223
-0.105,-0.035,6350.0
-0.13,-0.04,6352.777777777777
-0.145,-0.065,6355.555555555556
-0.165,-0.07,6358.333333333333
-0.165,-0.05,6361.111111111111
-0.135,-0.015,6363.888888888889
-0.14,-0.03,6366.666666666667
-0.14,-0.035,6369.444444444444
-0.16,-0.05,6372.222222222223
-0.17,-0.055,6375.0
-0.175,-0.025,6377.777777777777
-0.16,-0.01,6380.555555555556
-0.14,0.0,6383.333333333333
-0.165,-0.005,6386.111111111111
-0.16,-0.01,6388.888888888889
-0.175,-0.015,6391.666666666667
-0.18,-0.015,6394.444444444444
-0.155,0.0,6397.222222222223
-0.145,-0.005,6400.0
-0.14,0.0,6402.777777777777
-0.16,-0.03,6405.555555555556
-0.18,-0.03,6408.333333333333
-0.19,-0.015,6411.111111111111
-0.18,0.005,6413.888888888889
-0.18,0.0,6416.666666666667
-0.18,-0.005,6419.444444444444
-0.17,-0.03,6422.222222222223
-0.17,-0.02,6425.0
-0.165,-0.005,6427.777777777777
-0.175,0.025,6430.555555555556
-0.185,0.025,6433.333333333333
-0.18,0.005,6436.111111111111
-0.19,-0.015,6438.888888888889
-0.185,-0.01,6441.666666666667
-0.17,-0.015,6444.444444444444
-0.16,0.015,6447.222222222223
-0.17,0.005,6450.0
-0.18,-0.015,6452.777777777777
-0.205,-0.02,6455.555555555556
-0.19,-0.015,6458.333333333333
-0.17,0.035,6461.111111111111
-0.155,0.025,6463.888888888889
-0.155,0.035,6466.666666666667
-0.155,-0.015,6469.444444444444
-0.17,-0.025,6472.222222222223
-0.185,-0.025,6475.0
-0.18,0.005,6477.777777777777
-0.175,0.015,6480.555555555556
-0.165,0.01,6483.333333333333
-0.175,0.01,6486.111111111111
-0.19,-0.005,6488.888888888889
-0.2,0.0,6491.666666666667
-0.205,0.01,6494.444444444444
-0.185,0.02,6497.222222222223
-0.175,0.005,6500.0
-0.17,0.01,6502.777777777777
-0.175,0.005,6505.555555555556
-0.195,0.015,6508.333333333333
-0.195,0.02,6511.111111111111
-0.185,0.035,6513.888888888889
-0.17,0.025,6516.666666666667
-0.17,0.015,6519.444444444444
-0.18,0.005,6522.222222222223
-0.2,0.025,6525.0
-0.2,0.02,6527.777777777777
-0.185,0.045,6530.555555555556
-0.17,0.045,6533.333333333333
-0.18,0.035,6536.111111111111
-0.18,0.01,6538.888888888889
-0.18,0.005,6541.666666666667
-0.18,0.02,6544.444444444444
-0.17,0.045,6547.222222222223
-0.17,0.02,6550.0
-0.18,0.01,6552.777777777777
-0.195,-0.01,6555.555555555556
-0.215,0.0,6558.333333333333
-0.205,0.015,6561.111111111111
-0.19,0.01,6563.888888888889
-0.18,0.01,6566.666666666667
-0.18,0.01,6569.444444444444
-0.19,0.0,6572.222222222223
-0.2,-0.005,6575.0
-0.185,0.02,6577.777777777777
-0.175,0.02,6580.555555555556
-0.175,0.02,6583.333333333333
-0.185,0.005,6586.111111111111
-0.22,-0.015,6588.888888888889
-0.215,0.0,6591.666666666667
-0.21,0.005,6594.444444444444
-0.175,0.035,6597.222222222223
-0.17,0.025,6600.0
-0.18,-0.005,6602.777777777777
-0.19,0.005,6605.555555555556
-0.215,-0.005,6608.333333333333
-0.21,0.015,6611.111111111111
-0.185,0.02,6613.888888888889
-0.18,0.02,6616.666666666667
-0.18,0.02,6619.444444444444
-0.195,-0.02,6622.222222222223
-0.215,-0.01,6625.0
-0.2,0.0,6627.777777777777
-0.185,0.015,6630.555555555556
-0.16,0.01,6633.333333333333
-0.16,0.0,6636.111111111111
-0.175,-0.025,6638.888888888889
-0.185,-0.005,6641.666666666667
-0.185,0.01,6644.444444444444
-0.175,0.03,6647.222222222223
-0.16,0.015,6650.0
-0.165,0.0,6652.777777777777
-0.19,-0.01,6655.555555555556
-0.185,0.005,6658.333333333333
-0.185,0.02,6661.111111111111
-0.17,0.03,6663.888888888889
-0.17,0.04,6666.666666666667
-0.17,0.015,6669.444444444444
-0.17,0.0,6672.222222222223
-0.185,-0.005,6675.0
-0.185,0.0,6677.777777777777
-0.17,0.03,6680.555555555556
-0.165,0.02,6683.333333333333
-0.16,0.02,6686.111111111111
-0.165,0.005,6688.888888888889
-0.16,0.015,6691.666666666667
-0.135,0.005,6694.444444444444
-0.115,0.03,6697.222222222223
-0.095,0.035,6700.0
-0.115,0.03,6702.777777777777
-0.12,0.035,6705.555555555556
-0.13,0.03,6708.333333333333
-0.115,0.06,6711.111111111111
-0.1,0.07,6713.888888888889
-0.09,0.06,6716.666666666667
-0.1,0.06,6719.444444444444
-0.1,0.02,6722.222222222223
-0.105,0.025,6725.0
-0.09,0.04,6727.777777777777
-0.08,0.035,6730.555555555556
-0.07,0.045,6733.333333333333
-0.09,0.025,6736.111111111111
-0.11,0.005,6738.888888888889
-0.11,-0.01,6741.666666666667
-0.1,0.005,6744.444444444444
-0.1,0.02,6747.222222222223
-0.075,0.005,6750.0
-0.105,0.0,6752.777777777777
-0.14,-0.015,6755.555555555556
-0.17,-0.015,6758.333333333333
-0.16,-0.025,6761.111111111111
-0.14,-0.015,6763.888888888889
-0.14,-0.01,6766.666666666667
-0.165,-0.025,6769.444444444444
-0.175,-0.04,6772.222222222223
-0.19,-0.04,6775.0
-0.185,-0.02,6777.777777777777
-0.18,-0.015,6780.555555555556
-0.18,-0.035,6783.333333333333
-0.165,-0.05,6786.111111111111
-0.165,-0.045,6788.888888888889
-0.18,-0.05,6791.666666666667
-0.19,-0.015,6794.444444444444
-0.17,0.005,6797.222222222223
-0.175,0.015,6800.0
-0.175,-0.02,6802.777777777777
-0.175,-0.035,6805.555555555556
-0.185,-0.04,6808.333333333333
-0.175,-0.025,6811.111111111111
-0.165,-0.01,6813.888888888889
-0.15,-0.015,6816.666666666667
-0.165,-0.025,6819.444444444444
-0.17,-0.03,6822.222222222223
-0.17,-0.035,6825.0
-0.155,-0.01,6827.777777777777
-0.135,0.01,6830.555555555556
-0.125,0.025,6833.333333333333
-0.13,0.045,6836.111111111111
-0.145,0.055,6838.888888888889
-0.155,0.045,6841.666666666667
-0.125,0.015,6844.444444444444
-0.06,-0.035,6847.222222222223
0.055,-0.15,6850.0
0.175,-0.29,6852.777777777777
0.265,-0.45,6855.555555555556
0.38,-0.595,6858.333333333333
0.515,-0.705,6861.111111111111
0.655,-0.805,6863.888888888889
0.83,-0.935,6866.666666666667
1.025,-1.04,6869.444444444444
1.23,-1.125,6872.222222222223
1.44,-1.16,6875.0
1.66,-1.165,6877.777777777777
1.87,-1.16,6880.555555555556
2.01,-1.2,6883.333333333333
2.07,-1.225,6886.111111111111
2.085,-1.23,6888.888888888889
2.045,-1.22,6891.666666666667
1.97,-1.195,6894.444444444444
1.75,-1.165,6897.222222222223
1.375,-1.145,6900.0
0.95,-1.105,6902.777777777777
0.625,-1.06,6905.555555555556
0.47,-0.97,6908.333333333333
0.425,-0.855,6911.111111111111
0.4,-0.74,6913.888888888889
0.385,-0.635,6916.666666666667
0.345,-0.585,6919.444444444444
0.27,-0.55,6922.222222222223
0.225,-0.495,6925.0
0.18,-0.435,6927.777777777777
0.16,-0.37,6930.555555555556
0.12,-0.31,6933.333333333333
0.085,-0.255,6936.111111111111
0.06,-0.21,6938.888888888889
0.03,-0.16,6941.666666666667
0.01,-0.095,6944.444444444444
-0.005,-0.04,6947.222222222223
-0.045,-0.01,6950.0
-0.115,0.035,6952.777777777777
-0.155,0.07,6955.555555555556
-0.195,0.115,6958.333333333333
-0.215,0.17,6961.111111111111
-0.23,0.225,6963.888888888889
-0.255,0.225,6966.666666666667
-0.29,0.24,6969.444444444444
-0.335,0.245,6972.222222222223
-0.345,0.26,6975.0
-0.33,0.28,6977.777777777777
-0.31,0.305,6980.555555555556
-0.305,0.3,6983.333333333333
-0.33,0.3,6986.111111111111
-0.355,0.3,6988.888888888889
-0.395,0.305,6991.666666666667
-0.405,0.335,6994.444444444444
-0.38,0.37,6997.222222222223
-0.365,0.365,7000.0
-0.375,0.385,7002.777777777777
-0.385,0.37,7005.555555555556
-0.405,0.38,7008.333333333333
-0.4,0.4,7011.111111111111
-0.39,0.425,7013.888888888889
-0.38,0.425,7016.666666666667
-0.39,0.415,7019.444444444444
-0.415,0.42,7022.222222222223
-0.425,0.44,7025.0
-0.42,0.47,7027.777777777777
-0.405,0.48,7030.555555555556
-0.39,0.505,7033.333333333333
-0.4,0.49,7036.111111111111
-0.425,0.505,7038.888888888889
-0.425,0.525,7041.666666666667
-0.445,0.55,7044.444444444444
-0.44,0.575,7047.222222222223
-0.44,0.59,7050.0
-0.45,0.615,7052.777777777777
-0.475,0.6,7055.555555555556
-0.47,0.635,7058.333333333333
-0.465,0.655,7061.111111111111
-0.475,0.685,7063.888888888889
-0.485,0.7,7066.666666666667
-0.495,0.71,7069.444444444444
-0.505,0.705,7072.222222222223
-0.525,0.705,7075.0
-0.505,0.75,7077.777777777777
-0.5,0.77,7080.555555555556
-0.515,0.78,7083.333333333333
-0.545,0.78,7086.111111111111
-0.57,0.785,7088.888888888889
-0.575,0.815,7091.666666666667
-0.565,0.81,7094.444444444444
-0.555,0.83,7097.222222222223
-0.58,0.84,7100.0
-0.595,0.83,7102.777777777777
-0.61,0.81,7105.555555555556
-0.63,0.815,7108.333333333333
-0.62,0.84,7111.111111111111
-0.605,0.85,7113.888888888889
-0.605,0.82,7116.666666666667
-0.63,0.79,7119.444444444444
-0.65,0.77,7122.222222222223
-0.645,0.755,7125.0
-0.65,0.75,7127.777777777777
-0.62,0.745,7130.555555555556
-0.6,0.72,7133.333333333333
-0.6,0.66,7136.111111111111
-0.61,0.625,7138.888888888889
-0.61,0.58,7141.666666666667
-0.58,0.57,7144.444444444444
-0.54,0.54,7147.222222222223
-0.5,0.52,7150.0
-0.49,0.465,7152.777777777777
-0.48,0.425,7155.555555555556
-0.46,0.4,7158.333333333333
-0.45,0.38,7161.111111111111
-0.41,0.365,7163.888888888889
-0.375,0.33,7166.666666666667
-0.35,0.28,7169.444444444444
-0.335,0.23,7172.222222222223
-0.33,0.215,7175.0
-0.3,0.215,7177.777777777777
-0.27,0.19,7180.555555555556
-0.23,0.17,7183.333333333333
-0.205,0.14,7186.111111111111
-0.2,0.1,7188.888888888889
-0.2,0.09,7191.666666666667
-0.18,0.085,7194.444444444444
-0.155,0.11,7197.222222222223
-0.16,0.085,7200.0
-0.14,0.075,7202.777777777777
-0.145,0.035,7205.555555555556
-0.15,0.05,7208.333333333333
-0.16,0.055,7211.111111111111
-0.145,0.07,7213.888888888889
-0.14,0.06,7216.666666666667
-0.135,0.025,7219.444444444444
-0.16,0.02,7222.222222222223
-0.155,0.02,7225.0
-0.155,0.03,7227.777777777777
-0.145,0.035,7230.555555555556
-0.13,0.035,7233.333333333333
-0.16,0.02,7236.111111111111
-0.17,0.01,7238.888888888889
-0.175,0.025,7241.666666666667
-0.16,0.045,7244.444444444444
-0.155,0.045,7247.222222222223
-0.15,0.04,7250.0
-0.165,0.045,7252.777777777777
-0.185,0.03,7255.555555555556
-0.185,0.025,7258.333333333333
-0.18,0.05,7261.111111111111
-0.16,0.055,7263.888888888889
-0.155,0.055,7266.666666666667
-0.145,0.05,7269.444444444444
-0.18,0.045,7272.222222222223
-0.19,0.055,7275.0
-0.17,0.065,7277.777777777777
-0.155,0.085,7280.555555555556
-0.135,0.075,7283.333333333333
-0.16,0.07,7286.111111111111
-0.18,0.07,7288.888888888889
-0.19,0.07,7291.666666666667
-0.165,0.09,7294.444444444444
-0.155,0.11,7297.222222222223
-0.14,0.1,7300.0
-0.15,0.09,7302.777777777777
-0.16,0.07,7305.555555555556
-0.185,0.09,7308.333333333333
-0.165,0.09,7311.111111111111
-0.145,0.115,7313.888888888889
-0.14,0.115,7316.666666666667
-0.14,0.095,7319.444444444444
-0.155,0.085,7322.222222222223
-0.15,0.09,7325.0
-0.17,0.105,7327.777777777777
-0.16,0.12,7330.555555555556
-0.15,0.115,7333.333333333333
-0.155,0.12,7336.111111111111
-0.145,0.095,7338.888888888889
-0.145,0.09,7341.666666666667
-0.15,0.095,7344.444444444444
-0.135,0.11,7347.222222222223
-0.13,0.105,7350.0
-0.13,0.1,7352.777777777777
-0.135,0.085,7355.555555555556
-0.14,0.085,7358.333333333333
-0.14,0.08,7361.111111111111
-0.12,0.11,7363.888888888889
-0.12,0.09,7366.666666666667
-0.13,0.07,7369.444444444444
-0.15,0.06,7372.222222222223
-0.165,0.075,7375.0
-0.155,0.085,7377.777777777777
-0.135,0.1,7380.555555555556
-0.14,0.085,7383.333333333333
-0.135,0.06,7386.111111111111
-0.17,0.04,7388.888888888889
-0.155,0.04,7391.666666666667
-0.15,0.075,7394.444444444444
-0.145,0.1,7397.222222222223
-0.125,0.08,7400.0
-0.145,0.06,7402.777777777777
-0.155,0.03,7405.555555555556
-0.165,0.04,7408.333333333333
-0.165,0.06,7411.111111111111
-0.155,0.06,7413.888888888889
-0.135,0.06,7416.666666666667
-0.165,0.04,7419.444444444444
-0.175,0.035,7422.222222222223
-0.185,0.045,7425.0
-0.17,0.05,7427.777777777777
-0.15,0.055,7430.555555555556
-0.145,0.035,7433.333333333333
-0.15,0.035,7436.111111111111
-0.175,0.025,7438.888888888889
-0.155,0.035,7441.666666666667
-0.155,0.025,7444.444444444444
-0.135,0.05,7447.222222222223
-0.115,0.03,7450.0
-0.11,0.025,7452.777777777777
-0.115,0.0,7455.555555555556
-0.115,0.005,7458.333333333333
-0.09,0.025,7461.111111111111
-0.08,0.055,7463.888888888889
-0.065,0.055,7466.666666666667
-0.065,0.035,7469.444444444444
-0.08,0.025,7472.222222222223
-0.09,0.025,7475.0
-0.08,0.04,7477.777777777777
-0.07,0.045,7480.555555555556
-0.055,0.04,7483.333333333333
-0.06,0.015,7486.111111111111
-0.075,0.0,7488.888888888889
-0.08,0.01,7491.666666666667
-0.06,0.03,7494.444444444444
-0.065,0.035,7497.222222222223
-0.065,0.03,7500.0
-0.065,-0.005,7502.777777777777
-0.095,-0.005,7505.555555555556
-0.105,-0.005,7508.333333333333
-0.095,0.02,7511.111111111111
-0.08,0.035,7513.888888888889
-0.085,0.03,7516.666666666667
-0.1,-0.005,7519.444444444444
-0.125,-0.015,7522.222222222223
-0.15,-0.015,7525.0
-0.14,0.01,7527.777777777777
-0.145,0.015,7530.555555555556
-0.14,0.025,7533.333333333333
-0.16,0.0,7536.111111111111
-0.18,0.0,7538.888888888889
-0.195,0.005,7541.666666666667
-0.18,0.0,7544.444444444444
-0.165,0.01,7547.222222222223
-0.155,-0.005,7550.0
-0.15,-0.015,7552.777777777777
-0.165,-0.02,7555.555555555556
-0.185,-0.015,7558.333333333333
-0.18,0.025,7561.111111111111
-0.17,0.04,7563.888888888889
-0.17,0.015,7566.666666666667
-0.17,0.015,7569.444444444444
-0.17,0.005,7572.222222222223
-0.185,0.005,7575.0
-0.185,0.01,7577.777777777777
-0.165,0.035,7580.555555555556
-0.165,0.035,7583.333333333333
-0.16,0.015,7586.111111111111
-0.16,-0.01,7588.888888888889
-0.155,0.01,7591.666666666667
-0.15,0.02,7594.444444444444
-0.135,0.04,7597.222222222223
-0.125,0.045,7600.0
-0.13,0.05,7602.777777777777
-0.15,0.08,7605.555555555556
-0.15,0.09,7608.333333333333
-0.14,0.085,7611.111111111111
-0.09,0.03,7613.888888888889
-0.01,-0.07,7616.666666666667
0.075,-0.185,7619.444444444444
0.165,-0.35,7622.222222222223
0.265,-0.505,7625.0
0.38,-0.635,7627.777777777777
0.5,-0.755,7630.555555555556
0.61,-0.88,7633.333333333333
0.735,-1.0,7636.111111111111
0.87,-1.105,7638.888888888889
1.06,-1.175,7641.666666666667
1.245,-1.205,7644.444444444444
1.445,-1.22,7647.222222222223
1.62,-1.245,7650.0
1.75,-1.245,7652.777777777777
1.835,-1.24,7655.555555555556
1.89,-1.19,7658.333333333333
1.915,-1.15,7661.111111111111
1.935,-1.13,7663.888888888889
1.86,-1.115,7666.666666666667
1.65,-1.12,7669.444444444444
1.34,-1.085,7672.222222222223
1.025,-1.035,7675.0
0.785,-0.96,7677.777777777777
0.64,-0.88,7680.555555555556
0.555,-0.83,7683.333333333333
0.48,-0.745,7686.111111111111
0.44,-0.665,7688.888888888889
0.415,-0.59,7691.666666666667
0.385,-0.515,7694.444444444444
0.37,-0.455,7697.222222222223
0.335,-0.405,7700.0
0.285,-0.385,7702.777777777777
0.235,-0.355,7705.555555555556
0.18,-0.32,7708.333333333333
0.145,-0.245,7711.111111111111
0.135,-0.185,7713.888888888889
0.12,-0.12,7716.666666666667
0.08,-0.085,7719.444444444444
0.025,-0.03,7722.222222222223
-0.025,0.02,7725.0
-0.075,0.07,7727.777777777777
-0.09,0.125,7730.555555555556
-0.12,0.175,7733.333333333333
-0.15,0.19,7736.111111111111
-0.205,0.195,7738.888888888889
-0.24,0.23,7741.666666666667
-0.26,0.265,7744.444444444444
-0.28,0.3,7747.222222222223
-0.3,0.32,7750.0
-0.315,0.31,7752.777777777777
-0.34,0.305,7755.555555555556
-0.35,0.315,7758.333333333333
-0.345,0.34,7761.111111111111
-0.34,0.375,7763.888888888889
-0.345,0.37,7766.666666666667
-0.37,0.365,7769.444444444444
-0.375,0.37,7772.222222222223
-0.395,0.385,7775.0
-0.38,0.39,7777.777777777777
-0.375,0.435,7780.555555555556
-0.36,0.43,7783.333333333333
-0.395,0.43,7786.111111111111
-0.41,0.42,7788.888888888889
-0.43,0.43,7791.666666666667
-0.425,0.46,7794.444444444444
-0.4,0.48,7797.222222222223
-0.395,0.49,7800.0
-0.43,0.49,7802.777777777777
-0.435,0.49,7805.555555555556
-0.44,0.5,7808.333333333333
-0.43,0.515,7811.111111111111
-0.43,0.53,7813.888888888889
-0.415,0.54,7816.666666666667
-0.425,0.535,7819.444444444444
-0.44,0.54,7822.222222222223
-0.45,0.555,7825.0
-0.45,0.605,7827.777777777777
-0.445,0.63,7830.555555555556
-0.45,0.63,7833.333333333333
-0.455,0.63,7836.111111111111
-0.465,0.63,7838.888888888889
-0.48,0.66,7841.666666666667
-0.48,0.685,7844.444444444444
-0.48,0.715,7847.222222222223
-0.475,0.72,7850.0
-0.495,0.72,7852.777777777777
-0.525,0.74,7855.555555555556
-0.535,0.745,7858.333333333333
-0.53,0.765,7861.111111111111
-0.515,0.785,7863.888888888889
-0.5,0.81,7866.666666666667
-0.515,0.805,7869.444444444444
-0.54,0.81,7872.222222222223
-0.565,0.81,7875.0
-0.565,0.855,7877.777777777777
-0.56,0.88,7880.555555555556
-0.565,0.885,7883.333333333333
-0.565,0.875,7886.111111111111
-0.585,0.875,7888.888888888889
-0.605,0.875,7891.666666666667
-0.6,0.895,7894.444444444444
-0.61,0.915,7897.222222222223
-0.61,0.915,7900.0
-0.625,0.915,7902.777777777777
-0.63,0.89,7905.555555555556
-0.645,0.89,7908.333333333333
-0.64,0.87,7911.111111111111
-0.645,0.895,7913.888888888889
-0.625,0.88,7916.666666666667
-0.645,0.85,7919.444444444444
-0.655,0.82,7922.222222222223
-0.67,0.805,7925.0
-0.635,0.8,7927.777777777777
-0.615,0.79,7930.555555555556
-0.59,0.77,7933.333333333333
-0.6,0.73,7936.111111111111
-0.605,0.685,7938.888888888889
-0.6,0.67,7941.666666666667
-0.585,0.645,7944.444444444444
-0.55,0.625,7947.222222222223
-0.52,0.595,7950.0
-0.505,0.555,7952.777777777777
-0.495,0.515,7955.555555555556
-0.49,0.475,7958.333333333333
-0.47,0.47,7961.111111111111
-0.445,0.435,7963.888888888889
-0.405,0.425,7966.666666666667
-0.375,0.39,7969.444444444444
-0.375,0.355,7972.222222222223
-0.355,0.33,7975.0
-0.335,0.315,7977.777777777777
-0.31,0.32,7980.555555555556
-0.29,0.275,7983.333333333333
-0.295,0.235,7986.111111111111
-0.28,0.21,7988.888888888889
-0.275,0.18,7991.666666666667
-0.24,0.185,7994.444444444444
-0.21,0.18,7997.222222222223
-0.205,0.16,8000.0
-0.2,0.14,8002.777777777777
-0.215,0.14,8005.555555555556
-0.225,0.13,8008.333333333333
-0.21,0.125,8011.111111111111
-0.16,0.14,8013.888888888889
-0.15,0.115,8016.666666666667
-0.155,0.095,8019.444444444444
-0.19,0.085,8022.222222222223
-0.19,0.075,8025.0
-0.185,0.09,8027.777777777777
-0.16,0.1,8030.555555555556
-0.155,0.105,8033.333333333333
-0.16,0.085,8036.111111111111
-0.16,0.07,8038.888888888889
-0.18,0.065,8041.666666666667
-0.175,0.08,8044.444444444444
-0.165,0.085,8047.222222222223
-0.18,0.085,8050.0
-0.175,0.075,8052.777777777777
-0.175,0.06,8055.555555555556
-0.185,0.065,8058.333333333333
-0.165,0.095,8061.111111111111
-0.16,0.095,8063.888888888889
-0.16,0.09,8066.666666666667
-0.17,0.08,8069.444444444444
-0.185,0.08,8072.222222222223
-0.195,0.085,8075.0
-0.185,0.11,8077.777777777777
-0.16,0.12,8080.555555555556
-0.145,0.13,8083.333333333333
-0.17,0.1,8086.111111111111
-0.17,0.08,8088.888888888889
-0.18,0.095,8091.666666666667
-0.185,0.105,8094.444444444444
-0.17,0.12,8097.222222222223
-0.165,0.12,8100.0
-0.17,0.11,8102.777777777777
-0.18,0.11,8105.555555555556
-0.195,0.12,8108.333333333333
-0.185,0.125,8111.111111111111
-0.18,0.13,8113.888888888889
-0.155,0.13,8116.666666666667
-0.165,0.105,8119.444444444444
-0.2,0.1,8122.222222222223
-0.195,0.12,8125.0
-0.2,0.12,8127.777777777777
-0.19,0.13,8130.555555555556
-0.18,0.125,8133.333333333333
-0.18,0.125,8136.111111111111
-0.215,0.11,8138.888888888889
-0.225,0.115,8141.666666666667
-0.2,0.115,8144.444444444444
-0.165,0.14,8147.222222222223
-0.16,0.145,8150.0
-0.16,0.125,8152.777777777777
-0.195,0.095,8155.555555555556
-0.215,0.115,8158.333333333333
-0.2,0.135,8161.111111111111
-0.175,0.145,8163.888888888889
-0.17,0.135,8166.666666666667
-0.175,0.135,8169.444444444444
-0.16,0.1,8172.222222222223
-0.19,0.115,8175.0
-0.175,0.13,8177.777777777777
-0.17,0.135,8180.555555555556
-0.17,0.13,8183.333333333333
-0.155,0.12,8186.111111111111
-0.17,0.12,8188.888888888889
-0.175,0.12,8191.666666666667
-0.195,0.115,8194.444444444445
-0.175,0.115,8197.222222222223
-0.17,0.11,8200.0
-0.17,0.105,8202.777777777777
-0.185,0.095,8205.555555555555
-0.195,0.085,8208.333333333334
-0.175,0.1,8211.111111111111
-0.175,0.115,8213.888888888889
-0.155,0.115,8216.666666666666
-0.17,0.09,8219.444444444445
-0.18,0.08,8222.222222222223
-0.195,0.085,8225.0
-0.185,0.105,8227.777777777777
-0.165,0.12,8230.555555555555
-0.155,0.115,8233.333333333334
-0.155,0.095,8236.111111111111
-0.16,0.07,8238.888888888889
-0.175,0.07,8241.666666666666
-0.185,0.075,8244.444444444445
-0.18,0.09,8247.222222222223
-0.155,0.075,8250.0
-0.16,0.075,8252.777777777777
-0.17,0.075,8255.555555555555
-0.175,0.055,8258.333333333334
-0.16,0.085,8261.111111111111
-0.155,0.085,8263.888888888889
-0.14,0.085,8266.666666666666
-0.155,0.06,8269.444444444445
-0.17,0.055,8272.222222222223
-0.18,0.04,8275.0
-0.16,0.05,8277.777777777777
-0.15,0.08,8280.555555555555
-0.135,0.065,8283.333333333334
-0.14,0.06,8286.111111111111
-0.145,0.05,8288.888888888889
-0.145,0.045,8291.666666666666
-0.14,0.06,8294.444444444445
-0.11,0.06,8297.222222222223
-0.08,0.06,8300.0
-0.08,0.055,8302.777777777777
-0.095,0.04,8305.555555555555
-0.105,0.06,8308.333333333334
-0.12,0.085,8311.111111111111
-0.095,0.1,8313.888888888889
-0.095,0.07,8316.666666666666
-0.11,0.075,8319.444444444445
-0.105,0.07,8322.222222222223
-0.115,0.07,8325.0
-0.095,0.085,8327.777777777777
-0.08,0.09,8330.555555555555
-0.055,0.085,8333.333333333334
-0.06,0.07,8336.111111111111
-0.08,0.045,8338.888888888889
-0.07,0.065,8341.666666666666
-0.075,0.06,8344.444444444445
-0.07,0.065,8347.222222222223
-0.055,0.05,8350.0
-0.065,0.055,8352.777777777777
-0.09,0.035,8355.555555555555
-0.1,0.03,8358.333333333334
-0.085,0.045,8361.111111111111
-0.07,0.075,8363.888888888889
-0.055,0.065,8366.666666666666
-0.065,0.035,8369.444444444445
-0.075,0.04,8372.222222222223
-0.09,0.04,8375.0
-0.095,0.045,8377.777777777777
-0.09,0.055,8380.555555555555
-0.09,0.03,8383.333333333334
-0.125,0.025,8386.111111111111
-0.135,0.02,8388.888888888889
-0.14,0.015,8391.666666666666
-0.14,0.015,8394.444444444445
-0.145,0.035,8397.222222222223
-0.145,0.03,8400.0
-0.14,0.0,8402.777777777777
-0.165,-0.005,8405.555555555555
-0.155,-0.005,8408.333333333334
-0.14,0.0,8411.111111111111
-0.13,0.015,8413.888888888889
-0.105,0.03,8416.666666666666
-0.115,0.015,8419.444444444445
-0.14,0.025,8422.222222222223
-0.155,0.005,8425.0
-0.155,0.03,8427.777777777777
-0.135,0.05,8430.555555555555
-0.14,0.045,8433.333333333334
-0.145,0.02,8436.111111111111
-0.14,0.025,8438.888888888889
-0.155,0.03,8441.666666666666
-0.155,0.035,8444.444444444445
-0.14,0.04,8447.222222222223
-0.13,0.055,8450.0
-0.13,0.04,8452.777777777777
-0.145,0.025,8455.555555555555
-0.145,0.025,8458.333333333334
-0.135,0.035,8461.111111111111
-0.12,0.05,8463.888888888889
-0.1,0.045,8466.666666666666
-0.11,0.055,8469.444444444445
-0.125,0.055,8472.222222222223
-0.15,0.075,8475.0
-0.145,0.1,8477.777777777777
-0.125,0.12,8480.555555555555
-0.11,0.12,8483.333333333334
-0.09,0.1,8486.111111111111
-0.06,0.035,8488.888888888889
-0.005,-0.045,8491.666666666666
0.095,-0.135,8494.444444444445
0.2,-0.24,8497.222222222223
0.3,-0.34,8500.0
0.38,-0.485,8502.777777777777
0.45,-0.62,8505.555555555555
0.55,-0.74,8508.333333333334
0.655,-0.835,8511.111111111111
0.8,-0.93,8513.888888888889
0.935,-1.02,8516.666666666666
1.1,-1.105,8519.444444444445
1.245,-1.16,8522.222222222223
1.39,-1.195,8525.0
1.56,-1.21,8527.777777777777
1.72,-1.235,8530.555555555555
1.83,-1.255,8533.333333333334
1.87,-1.265,8536.111111111111
1.875,-1.255,8538.888888888889
1.865,-1.23,8541.666666666666
1.825,-1.215,8544.444444444445
1.75,-1.17,8547.222222222223
1.63,-1.175,8550.0
1.43,-1.15,8552.777777777777
1.17,-1.125,8555.555555555555
0.93,-1.09,8558.333333333334
0.72,-1.0,8561.111111111111
0.58,-0.925,8563.888888888889
0.5,-0.86,8566.666666666666
0.435,-0.79,8569.444444444445
0.395,-0.715,8572.222222222223
0.37,-0.625,8575.0
0.345,-0.525,8577.777777777777
0.355,-0.45,8580.555555555555
0.325,-0.405,8583.333333333334
0.275,-0.375,8586.111111111111
0.22,-0.325,8588.888888888889
0.165,-0.28,8591.666666666666
0.125,-0.225,8594.444444444445
0.115,-0.18,8597.222222222223
0.105,-0.145,8600.0
0.09,-0.12,8602.777777777777
0.06,-0.08,8605.555555555555
0.03,-0.03,8608.333333333334
0.005,0.01,8611.111111111111
-0.02,0.06,8613.888888888889
-0.07,0.095,8616.666666666666
-0.095,0.11,8619.444444444445
-0.13,0.145,8622.222222222223
-0.175,0.195,8625.0
-0.205,0.235,8627.777777777777
-0.225,0.27,8630.555555555555
-0.235,0.305,8633.333333333334
-0.29,0.3,8636.111111111111
-0.305,0.305,8638.888888888889
-0.33,0.32,8641.666666666666
-0.34,0.345,8644.444444444445
-0.335,0.365,8647.222222222223
-0.32,0.35,8650.0
-0.33,0.355,8652.777777777777
-0.35,0.35,8655.555555555555
-0.375,0.36,8658.333333333334
-0.37,0.375,8661.111111111111
-0.37,0.4,8663.888888888889
-0.36,0.41,8666.666666666666
-0.36,0.41,8669.444444444445
-0.365,0.405,8672.222222222223
-0.38,0.42,8675.0
-0.39,0.44,8677.777777777777
-0.39,0.455,8680.555555555555
-0.38,0.47,8683.333333333334
-0.38,0.46,8686.111111111111
-0.405,0.455,8688.888888888889
-0.405,0.47,8691.666666666666
-0.41,0.495,8694.444444444445
-0.415,0.53,8697.222222222223
-0.405,0.51,8700.0
-0.42,0.505,8702.777777777777
-0.435,0.515,8705.555555555555
-0.445,0.515,8708.333333333334
-0.455,0.555,8711.111111111111
-0.43,0.565,8713.888888888889
-0.41,0.575,8716.666666666666
-0.41,0.585,8719.444444444445
-0.435,0.59,8722.222222222223
-0.465,0.595,8725.0
-0.465,0.62,8727.777777777777
-0.455,0.645,8730.555555555555
-0.445,0.665,8733.333333333334
-0.46,0.68,8736.111111111111
-0.48,0.68,8738.888888888889
-0.495,0.7,8741.666666666666
-0.51,0.72,8744.444444444445
-0.495,0.75,8747.222222222223
-0.5,0.765,8750.0
-0.49,0.775,8752.777777777777
-0.52,0.775,8755.555555555555
-0.53,0.785,8758.333333333334
-0.52,0.8,8761.111111111111
-0.53,0.835,8763.888888888889
-0.53,0.835,8766.666666666666
-0.555,0.83,8769.444444444445
-0.565,0.84,8772.222222222223
-0.59,0.85,8775.0
-0.585,0.87,8777.777777777777
-0.57,0.885,8780.555555555555
-0.57,0.89,8783.333333333334
-0.59,0.9,8786.111111111111
-0.62,0.88,8788.888888888889
-0.64,0.9,8791.666666666666
-0.645,0.905,8794.444444444445
-0.625,0.915,8797.222222222223
-0.615,0.915,8800.0
-0.62,0.885,8802.777777777777
-0.65,0.86,8805.555555555555
-0.665,0.845,8808.333333333334
-0.66,0.83,8811.111111111111
-0.645,0.835,8813.888888888889
-0.64,0.83,8816.666666666666
-0.645,0.8,8819.444444444445
-0.635,0.765,8822.222222222223
-0.625,0.75,8825.0
-0.605,0.74,8827.777777777777
-0.59,0.715,8830.555555555555
-0.58,0.68,8833.333333333334
-0.575,0.64,8836.111111111111
-0.575,0.595,8838.888888888889
-0.535,0.56,8841.666666666666
-0.515,0.55,8844.444444444445
-0.465,0.52,8847.222222222223
-0.44,0.475,8850.0
-0.415,0.435,8852.777777777777
-0.405,0.385,8855.555555555555
-0.395,0.35,8858.333333333334
-0.375,0.34,8861.111111111111
-0.335,0.335,8863.888888888889
-0.29,0.305,8866.666666666666
-0.275,0.275,8869.444444444445
-0.285,0.24,8872.222222222223
-0.265,0.23,8875.0
-0.25,0.23,8877.777777777777
-0.22,0.2,8880.555555555555
-0.205,0.19,8883.333333333334
-0.19,0.17,8886.111111111111
-0.19,0.145,8888.888888888889
-0.19,0.14,8891.666666666666
-0.175,0.135,8894.444444444445
-0.175,0.155,8897.222222222223
-0.15,0.145,8900.0
-0.15,0.115,8902.777777777777
-0.14,0.09,8905.555555555555
-0.155,0.105,8908.333333333334
-0.135,0.09,8911.111111111111
-0.13,0.115,8913.888888888889
-0.12,0.115,8916.666666666666
-0.13,0.095,8919.444444444445
-0.145,0.095,8922.222222222223
-0.135,0.1,8925.0
-0.13,0.115,8927.777777777777
-0.105,0.125,8930.555555555555
-0.085,0.135,8933.333333333334
-0.075,0.125,8936.111111111111
-0.075,0.13,8938.888888888889
-0.055,0.155,8941.666666666666
-0.02,0.19,8944.444444444445
0.05,0.245,8947.222222222223
0.14,0.27,8950.0
0.22,0.295,8952.777777777777
0.31,0.325,8955.555555555555
0.395,0.365,8958.333333333334
0.5,0.425,8961.111111111111
0.63,0.495,8963.888888888889
0.745,0.565,8966.666666666666
0.865,0.62,8969.444444444445
0.955,0.645,8972.222222222223
1.04,0.71,8975.0
1.115,0.775,8977.777777777777
1.2,0.83,8980.555555555555
1.25,0.86,8983.333333333334
1.295,0.89,8986.111111111111
1.295,0.9,8988.888888888889
1.245,0.95,8991.666666666666
1.14,1.005,8994.444444444445
0.93,1.07,8997.222222222223
0.62,1.125,9000.0
0.24,1.14,9002.777777777777
-0.12,1.17,9005.555555555555
-0.435,1.165,9008.333333333334
-0.695,1.14,9011.111111111111
-0.89,1.13,9013.888888888889
-1.065,1.08,9016.666666666666
-1.18,1.04,9019.444444444445
-1.31,0.99,9022.222222222223
-1.4,0.965,9025.0
-1.46,0.955,9027.777777777777
-1.53,0.94,9030.555555555555
-1.59,0.92,9033.333333333334
-1.675,0.88,9036.111111111111
-1.735,0.86,9038.888888888889
-1.795,0.86,9041.666666666666
-1.84,0.87,9044.444444444445
-1.855,0.905,9047.222222222223
-1.89,0.905,9050.0
-1.905,0.89,9052.777777777777
-1.935,0.88,9055.555555555555
-1.96,0.865,9058.333333333334
-1.96,0.85,9061.111111111111
-1.92,0.83,9063.888888888889
-1.855,0.775,9066.666666666666
-1.785,0.73,9069.444444444445
-1.67,0.69,9072.222222222223
-1.51,0.685,9075.0
-1.355,0.68,9077.777777777777
-1.21,0.71,9080.555555555555
-1.105,0.69,9083.333333333334
-1.035,0.68,9086.111111111111
-0.99,0.665,9088.888888888889
-0.93,0.67,9091.666666666666
-0.885,0.67,9094.444444444445
-0.84,0.685,9097.222222222223
-0.795,0.675,9100.0
-0.765,0.645,9102.777777777777
-0.735,0.62,9105.555555555555
-0.75,0.575,9108.333333333334
-0.72,0.53,9111.111111111111
-0.685,0.465,9113.888888888889
-0.6,0.395,9116.666666666666
-0.545,0.3,9119.444444444445
-0.51,0.24,9122.222222222223
-0.47,0.165,9125.0
-0.42,0.125,9127.777777777777
-0.35,0.1,9130.555555555555
-0.31,0.045,9133.333333333334
-0.27,-0.03,9136.111111111111
-0.23,-0.09,9138.888888888889
-0.2,-0.13,9141.666666666666
-0.165,-0.13,9144.444444444445
-0.105,-0.15,9147.222222222223
-0.06,-0.175,9150.0
-0.045,-0.225,9152.777777777777
-0.055,-0.265,9155.555555555555
-0.05,-0.285,9158.333333333334
-0.005,-0.295,9161.111111111111
0.035,-0.325,9163.888888888889
0.075,-0.355,9166.666666666666
0.085,-0.4,9169.444444444445
0.085,-0.42,9172.222222222223
0.095,-0.42,9175.0
0.115,-0.43,9177.777777777777
0.135,-0.445,9180.555555555555
0.185,-0.46,9183.333333333334
0.205,-0.495,9186.111111111111
0.22,-0.53,9188.888888888889
0.24,-0.555,9191.666666666666
0.25,-0.56,9194.444444444445
0.285,-0.55,9197.222222222223
0.335,-0.575,9200.0
0.325,-0.605,9202.777777777777
0.35,-0.62,9205.555555555555
0.345,-0.635,9208.333333333334
0.39,-0.64,9211.111111111111
0.43,-0.65,9213.888888888889
0.49,-0.675,9216.666666666666
0.5,-0.71,9219.444444444445
0.51,-0.725,9222.222222222223
0.515,-0.745,9225.0
0.555,-0.75,9227.777777777777
0.6,-0.74,9230.555555555555
0.64,-0.765,9233.333333333334
0.665,-0.79,9236.111111111111
0.68,-0.81,9238.888888888889
0.7,-0.835,9241.666666666666
0.72,-0.83,9244.444444444445
0.745,-0.825,9247.222222222223
0.78,-0.835,9250.0
0.81,-0.865,9252.777777777777
0.83,-0.87,9255.555555555555
0.865,-0.885,9258.333333333334
0.895,-0.865,9261.111111111111
0.925,-0.85,9263.888888888889
0.935,-0.85,9266.666666666666
0.955,-0.87,9269.444444444445
0.95,-0.88,9272.222222222223
0.945,-0.88,9275.0
0.99,-0.865,9277.777777777777
1.02,-0.84,9280.555555555555
1.05,-0.845,9283.333333333334
1.06,-0.855,9286.111111111111
1.075,-0.85,9288.888888888889
1.07,-0.845,9291.666666666666
1.085,-0.83,9294.444444444445
1.1,-0.805,9297.222222222223
1.135,-0.795,9300.0
1.15,-0.77,9302.777777777777
1.14,-0.775,9305.555555555555
1.135,-0.74,9308.333333333334
1.135,-0.73,9311.111111111111
1.14,-0.705,9313.888888888889
1.15,-0.705,9316.666666666666
1.125,-0.705,9319.444444444445
1.13,-0.72,9322.222222222223
1.115,-0.69,9325.0
1.12,-0.655,9327.777777777777
1.115,-0.615,9330.555555555555
1.115,-0.595,9333.333333333334
1.095,-0.59,9336.111111111111
1.06,-0.575,9338.888888888889
1.025,-0.54,9341.666666666666
1.0,-0.51,9344.444444444445
1.005,-0.47,9347.222222222223
0.98,-0.45,9350.0
0.965,-0.44,9352.777777777777
0.91,-0.415,9355.555555555555
0.875,-0.4,9358.333333333334
0.845,-0.35,9361.111111111111
0.83,-0.31,9363.888888888889
0.805,-0.295,9366.666666666666
0.765,-0.275,9369.444444444445
0.725,-0.265,9372.222222222223
0.69,-0.25,9375.0
0.66,-0.21,9377.777777777777
0.635,-0.18,9380.555555555555
0.595,-0.17,9383.333333333334
0.56,-0.165,9386.111111111111
0.535,-0.16,9388.888888888889
0.495,-0.145,9391.666666666666
0.475,-0.105,9394.444444444445
0.44,-0.07,9397.222222222223
0.425,-0.065,9400.0
0.385,-0.065,9402.777777777777
0.335,-0.055,9405.555555555555
0.285,-0.04,9408.333333333334
0.25,-0.015,9411.111111111111
0.235,0.01,9413.888888888889
0.215,0.015,9416.666666666666
0.19,0.015,9419.444444444445
0.145,0.02,9422.222222222223
0.105,0.015,9425.0
0.1,0.035,9427.777777777777
0.075,0.06,9430.555555555555
0.055,0.055,9433.333333333334
0.04,0.035,9436.111111111111
0.015,0.025,9438.888888888889
0.0,0.025,9441.666666666666
0.005,0.04,9444.444444444445
0.015,0.065,9447.222222222223
0.0,0.07,9450.0
-0.02,0.05,9452.777777777777
-0.05,0.035,9455.555555555555
-0.07,0.03,9458.333333333334
-0.085,0.04,9461.111111111111
-0.06,0.065,9463.888888888889
-0.05,0.055,9466.666666666666
-0.05,0.06,9469.444444444445
-0.075,0.04,9472.222222222223
-0.11,0.055,9475.0
-0.12,0.06,9477.777777777777
-0.1,0.075,9480.555555555555
-0.1,0.065,9483.333333333334
-0.11,0.05,9486.111111111111
-0.125,0.03,9488.888888888889
-0.145,0.04,9491.666666666666
-0.13,0.05,9494.444444444445
-0.125,0.06,9497.222222222223
-0.11,0.07,9500.0
-0.135,0.06,9502.777777777777
-0.145,0.045,9505.555555555555
-0.145,0.045,9508.333333333334
-0.145,0.06,9511.111111111111
-0.14,0.06,9513.888888888889
-0.135,0.065,9516.666666666666
-0.145,0.055,9519.444444444445
-0.165,0.045,9522.222222222223
-0.16,0.035,9525.0
-0.165,0.055,9527.777777777777
-0.17,0.075,9530.555555555555
-0.15,0.065,9533.333333333334
-0.155,0.055,9536.111111111111
-0.16,0.035,9538.888888888889
-0.185,0.06,9541.666666666666
-0.18,0.06,9544.444444444445
-0.165,0.065,9547.222222222223
-0.15,0.065,9550.0
-0.17,0.055,9552.777777777777
-0.18,0.03,9555.555555555555
-0.21,0.045,9558.333333333334
-0.21,0.065,9561.111111111111
-0.19,0.07,9563.888888888889
-0.17,0.085,9566.666666666666
-0.175,0.05,9569.444444444445
-0.195,0.05,9572.222222222223
-0.205,0.05,9575.0
-0.215,0.065,9577.777777777777
-0.195,0.08,9580.555555555555
-0.195,0.07,9583.333333333334
-0.215,0.045,9586.111111111111
-0.22,0.04,9588.888888888889
-0.215,0.055,9591.666666666666
-0.2,0.055,9594.444444444445
-0.2,0.075,9597.222222222223
-0.195,0.07,9600.0
-0.21,0.045,9602.777777777777
-0.23,0.03,9605.555555555555
-0.24,0.035,9608.333333333334
-0.22,0.035,9611.111111111111
-0.2,0.055,9613.888888888889
-0.195,0.06,9616.666666666666
-0.2,0.03,9619.444444444445
-0.21,0.03,9622.222222222223
-0.23,0.04,9625.0
-0.225,0.03,9627.777777777777
-0.23,0.065,9630.555555555555
-0.22,0.055,9633.333333333334
-0.22,0.05,9636.111111111111
-0.225,0.04,9638.888888888889
-0.245,0.03,9641.666666666666
-0.255,0.055,9644.444444444445
-0.23,0.05,9647.222222222223
-0.23,0.075,9650.0
-0.24,0.04,9652.777777777777
-0.255,0.03,9655.555555555555
-0.25,0.02,9658.333333333334
-0.25,0.025,9661.111111111111
-0.225,0.045,9663.888888888889
-0.23,0.065,9666.666666666666
-0.225,0.045,9669.444444444445
-0.24,0.035,9672.222222222223
-0.26,0.05,9675.0
-0.255,0.05,9677.777777777777
-0.25,0.065,9680.555555555555
-0.23,0.06,9683.333333333334
-0.24,0.045,9686.111111111111
-0.255,0.03,9688.888888888889
-0.265,0.04,9691.666666666666
-0.265,0.05,9694.444444444445
-0.26,0.055,9697.222222222223
-0.245,0.06,9700.0
-0.25,0.055,9702.777777777777
-0.26,0.035,9705.555555555555
-0.275,0.045,9708.333333333334
-0.26,0.04,9711.111111111111
-0.25,0.055,9713.888888888889
-0.245,0.05,9716.666666666666
-0.255,0.055,9719.444444444445
-0.26,0.03,9722.222222222223
-0.28,0.035,9725.0
-0.27,0.04,9727.777777777777
-0.23,0.075,9730.555555555555
-0.235,0.08,9733.333333333334
-0.24,0.055,9736.111111111111
-0.26,0.03,9738.888888888889
-0.265,0.045,9741.666666666666
-0.26,0.04,9744.444444444445
-0.27,0.065,9747.222222222223
-0.25,0.06,9750.0
-0.25,0.065,9752.777777777777
-0.26,0.035,9755.555555555555
-0.27,0.035,9758.333333333334
-0.27,0.055,9761.111111111111
-0.255,0.07,9763.888888888889
-0.245,0.065,9766.666666666666
-0.235,0.05,9769.444444444445
-0.25,0.04,9772.222222222223
-0.265,0.04,9775.0
-0.26,0.06,9777.777777777777
-0.255,0.075,9780.555555555555
-0.25,0.07,9783.333333333334
-0.27,0.055,9786.111111111111
-0.285,0.045,9788.888888888889
-0.275,0.03,9791.666666666666
-0.26,0.045,9794.444444444445
-0.245,0.055,9797.222222222223
-0.23,0.055,9800.0
-0.24,0.055,9802.777777777777
-0.25,0.035,9805.555555555555
-0.27,0.04,9808.333333333334
-0.26,0.06,9811.111111111111
-0.245,0.07,9813.888888888889
-0.245,0.06,9816.666666666666
-0.235,0.04,9819.444444444445
-0.24,0.02,9822.222222222223
-0.255,0.04,9825.0
-0.255,0.06,9827.777777777777
-0.245,0.06,9830.555555555555
-0.225,0.06,9833.333333333334
-0.235,0.055,9836.111111111111
-0.255,0.025,9838.888888888889
-0.26,0.035,9841.666666666666
-0.255,0.04,9844.444444444445
-0.24,0.065,9847.222222222223
-0.235,0.06,9850.0
-0.245,0.05,9852.777777777777
-0.255,0.035,9855.555555555555
-0.25,0.04,9858.333333333334
-0.245,0.055,9861.111111111111
-0.23,0.055,9863.888888888889
-0.22,0.06,9866.666666666666
-0.23,0.06,9869.444444444445
-0.255,0.035,9872.222222222223
-0.255,0.035,9875.0
-0.245,0.045,9877.777777777777
-0.23,0.07,9880.555555555555
-0.225,0.07,9883.333333333334
-0.225,0.065,9886.111111111111
-0.255,0.055,9888.888888888889
-0.25,0.035,9891.666666666666
-0.25,0.055,9894.444444444445
-0.23,0.085,9897.222222222223
-0.23,0.08,9900.0
-0.225,0.05,9902.777777777777
-0.225,0.04,9905.555555555555
-0.24,0.035,9908.333333333334
-0.25,0.06,9911.111111111111
-0.24,0.065,9913.888888888889
-0.215,0.075,9916.666666666666
-0.215,0.065,9919.444444444445
-0.235,0.045,9922.222222222223
-0.235,0.05,9925.0
-0.235,0.06,9927.777777777777
-0.23,0.085,9930.555555555555
-0.21,0.065,9933.333333333334
-0.215,0.055,9936.111111111111
-0.23,0.035,9938.888888888889
-0.23,0.045,9941.666666666666
-0.235,0.055,9944.444444444445
-0.215,0.065,9947.222222222223
-0.21,0.065,9950.0
-0.225,0.055,9952.777777777777
-0.23,0.05,9955.555555555555
-0.235,0.05,9958.333333333334
-0.225,0.05,9961.111111111111
-0.205,0.055,9963.888888888889
-0.185,0.07,9966.666666666666
-0.2,0.06,9969.444444444445
-0.215,0.05,9972.222222222223
-0.23,0.05,9975.0
-0.21,0.075,9977.777777777777
-0.2,0.075,9980.555555555555
-0.2,0.065,9983.333333333334
-0.21,0.07,9986.111111111111
-0.225,0.05,9988.888888888889
-0.245,0.055,9991.666666666666
-0.24,0.065,9994.444444444445
-0.21,0.085,9997.222222222223
-0.195,0.07,10000.0
-0.195,0.065,10002.777777777777
-0.21,0.035,10005.555555555555
-0.215,0.035,10008.333333333334
-0.22,0.05,10011.111111111111
-0.19,0.06,10013.888888888889
-0.19,0.07,10016.666666666666
-0.2,0.055,10019.444444444445
-0.2,0.045,10022.222222222223
-0.21,0.05,10025.0
-0.205,0.065,10027.777777777777
-0.21,0.065,10030.555555555555
-0.19,0.055,10033.333333333334
-0.18,0.045,10036.111111111111
-0.18,0.05,10038.888888888889
-0.2,0.045,10041.666666666666
-0.19,0.05,10044.444444444445
-0.15,0.07,10047.222222222223
-0.125,0.06,10050.0
-0.14,0.05,10052.777777777777
-0.15,0.02,10055.555555555555
-0.155,0.04,10058.333333333334
-0.135,0.05,10061.111111111111
-0.12,0.075,10063.888888888889
-0.1,0.075,10066.666666666666
-0.11,0.065,10069.444444444445
-0.13,0.05,10072.222222222223
-0.125,0.04,10075.0
-0.115,0.045,10077.777777777777
-0.095,0.045,10080.555555555555
-0.08,0.065,10083.333333333334
-0.09,0.035,10086.111111111111
-0.115,0.025,10088.888888888889
-0.145,0.02,10091.666666666666
-0.135,0.05,10094.444444444445
-0.125,0.07,10097.222222222223
-0.105,0.055,10100.0
-0.1,0.03,10102.777777777777
-0.115,0.025,10105.555555555555
-0.115,0.025,10108.333333333334
-0.12,0.05,10111.111111111111
-0.135,0.07,10113.888888888889
-0.12,0.06,10116.666666666666
-0.13,0.04,10119.444444444445
-0.14,0.025,10122.222222222223
-0.155,0.025,10125.0
-0.165,0.035,10127.777777777777
-0.165,0.04,10130.555555555555
-0.18,0.045,10133.333333333334
-0.18,0.04,10136.111111111111
-0.205,0.025,10138.888888888889
-0.21,0.025,10141.666666666666
-0.19,0.05,10144.444444444445
-0.17,0.05,10147.222222222223
-0.15,0.035,10150.0
-0.165,0.045,10152.777777777777
-0.18,0.025,10155.555555555555
-0.21,0.03,10158.333333333334
-0.195,0.055,10161.111111111111
-0.185,0.085,10163.888888888889
-0.17,0.06,10166.666666666666
-0.165,0.065,10169.444444444445
-0.18,0.04,10172.222222222223
-0.2,0.04,10175.0
-0.19,0.05,10177.777777777777
-0.185,0.06,10180.555555555555
-0.16,0.06,10183.333333333334
-0.185,0.045,10186.111111111111
-0.18,0.035,10188.888888888889
-0.17,0.045,10191.666666666666
-0.18,0.075,10194.444444444445
-0.18,0.095,10197.222222222223
-0.16,0.085,10200.0
-0.175,0.1,10202.777777777777
-0.17,0.1,10205.555555555555
-0.175,0.09,10208.333333333334
-0.16,0.085,10211.111111111111
-0.12,0.02,10213.888888888889
-0.02,-0.065,10216.666666666666
0.06,-0.205,10219.444444444445
0.165,-0.355,10222.222222222223
0.255,-0.515,10225.0
0.34,-0.655,10227.777777777777
0.47,-0.755,10230.555555555555
0.585,-0.865,10233.333333333334
0.71,-0.965,10236.111111111111
0.855,-1.065,10238.888888888889
1.04,-1.115,10241.666666666666
1.235,-1.15,10244.444444444445
1.415,-1.155,10247.222222222223
1.59,-1.17,10250.0
1.73,-1.205,10252.777777777777
1.845,-1.205,10255.555555555555
1.925,-1.17,10258.333333333334
2.0,-1.14,10261.111111111111
2.03,-1.095,10263.888888888889
2.015,-1.075,10266.666666666666
1.92,-1.075,10269.444444444445
1.705,-1.065,10272.222222222223
1.38,-1.025,10275.0
1.055,-0.965,10277.777777777777
0.805,-0.895,10280.555555555555
0.665,-0.85,10283.333333333334
0.565,-0.79,10286.111111111111
0.505,-0.71,10288.888888888889
0.45,-0.64,10291.666666666666
0.44,-0.55,10294.444444444445
0.42,-0.48,10297.222222222223
0.39,-0.435,10300.0
0.34,-0.405,10302.777777777777
0.275,-0.375,10305.555555555555
0.22,-0.33,10308.333333333334
0.19,-0.29,10311.111111111111
0.18,-0.225,10313.888888888889
0.165,-0.17,10316.666666666666
0.14,-0.11,10319.444444444445
0.085,-0.07,10322.222222222223
0.03,-0.03,10325.0
0.0,0.015,10327.777777777777
-0.03,0.06,10330.555555555555
-0.055,0.105,10333.333333333334
-0.1,0.14,10336.111111111111
-0.14,0.17,10338.888888888889
-0.165,0.22,10341.666666666666
-0.215,0.255,10344.444444444445
-0.22,0.295,10347.222222222223
-0.25,0.315,10350.0
-0.275,0.31,10352.777777777777
-0.31,0.305,10355.555555555555
-0.335,0.33,10358.333333333334
-0.36,0.335,10361.111111111111
-0.345,0.365,10363.888888888889
-0.33,0.38,10366.666666666666
-0.345,0.38,10369.444444444445
-0.365,0.38,10372.222222222223
-0.385,0.38,10375.0
-0.405,0.42,10377.777777777777
-0.38,0.415,10380.555555555555
-0.37,0.435,10383.333333333334
-0.375,0.41,10386.111111111111
-0.41,0.425,10388.888888888889
-0.42,0.43,10391.666666666666
-0.43,0.45,10394.444444444445
-0.415,0.48,10397.222222222223
-0.405,0.49,10400.0
-0.41,0.485,10402.777777777777
-0.415,0.47,10405.555555555555
-0.425,0.475,10408.333333333334
-0.425,0.5,10411.111111111111
-0.425,0.535,10413.888888888889
-0.425,0.545,10416.666666666666
-0.445,0.535,10419.444444444445
-0.45,0.525,10422.222222222223
-0.475,0.545,10425.0
-0.45,0.57,10427.777777777777
-0.44,0.59,10430.555555555555
-0.445,0.6,10433.333333333334
-0.465,0.605,10436.111111111111
-0.465,0.61,10438.888888888889
-0.48,0.62,10441.666666666666
-0.48,0.68,10444.444444444445
-0.475,0.695,10447.222222222223
-0.465,0.705,10450.0
-0.495,0.705,10452.777777777777
-0.505,0.71,10455.555555555555
-0.525,0.715,10458.333333333334
-0.52,0.75,10461.111111111111
-0.52,0.785,10463.888888888889
-0.5,0.79,10466.666666666666
-0.525,0.79,10469.444444444445
-0.555,0.785,10472.222222222223
-0.565,0.805,10475.0
-0.565,0.835,10477.777777777777
-0.57,0.85,10480.555555555555
-0.56,0.845,10483.333333333334
-0.57,0.835,10486.111111111111
-0.585,0.855,10488.888888888889
-0.6,0.85,10491.666666666666
-0.61,0.875,10494.444444444445
-0.62,0.89,10497.222222222223
-0.61,0.89,10500.0
-0.635,0.865,10502.777777777777
-0.645,0.855,10505.555555555555
-0.645,0.86,10508.333333333334
-0.65,0.875,10511.111111111111
-0.66,0.88,10513.888888888889
-0.65,0.89,10516.666666666666
-0.665,0.865,10519.444444444445
-0.705,0.83,10522.222222222223
-0.675,0.815,10525.0
-0.67,0.815,10527.777777777777
-0.65,0.81,10530.555555555555
-0.625,0.775,10533.333333333334
-0.62,0.74,10536.111111111111
-0.635,0.705,10538.888888888889
-0.63,0.685,10541.666666666666
-0.6,0.67,10544.444444444445
-0.57,0.65,10547.222222222223
-0.545,0.61,10550.0
-0.525,0.585,10552.777777777777
-0.515,0.535,10555.555555555555
-0.5,0.505,10558.333333333334
-0.47,0.475,10561.111111111111
-0.42,0.47,10563.888888888889
-0.385,0.435,10566.666666666666
-0.355,0.385,10569.444444444445
-0.36,0.365,10572.222222222223
-0.335,0.34,10575.0
-0.315,0.35,10577.777777777777
-0.275,0.325,10580.555555555555
-0.25,0.32,10583.333333333334
-0.23,0.295,10586.111111111111
-0.225,0.24,10588.888888888889
-0.215,0.22,10591.666666666666
-0.205,0.21,10594.444444444445
-0.17,0.23,10597.222222222223
-0.15,0.2,10600.0
-0.14,0.195,10602.777777777777
-0.14,0.175,10605.555555555555
-0.15,0.155,10608.333333333334
-0.145,0.16,10611.111111111111
-0.135,0.175,10613.888888888889
-0.14,0.17,10616.666666666666
-0.125,0.15,10619.444444444445
-0.13,0.14,10622.222222222223
-0.11,0.125,10625.0
-0.135,0.15,10627.777777777777
-0.115,0.175,10630.555555555555
-0.12,0.16,10633.333333333334
-0.135,0.15,10636.111111111111
-0.145,0.11,10638.888888888889
-0.16,0.145,10641.666666666666
-0.155,0.15,10644.444444444445
-0.135,0.175,10647.222222222223
-0.135,0.17,10650.0
-0.13,0.17,10652.777777777777
-0.155,0.155,10655.555555555555
-0.165,0.155,10658.333333333334
-0.17,0.165,10661.111111111111
-0.15,0.165,10663.888888888889
-0.145,0.18,10666.666666666666
-0.16,0.175,10669.444444444445
-0.18,0.16,10672.222222222223
-0.185,0.165,10675.0
-0.18,0.175,10677.777777777777
-0.165,0.185,10680.555555555555
-0.145,0.18,10683.333333333334
-0.17,0.17,10686.111111111111
-0.165,0.15,10688.888888888889
-0.195,0.155,10691.666666666666
-0.19,0.17,10694.444444444445
-0.175,0.195,10697.222222222223
-0.155,0.19,10700.0
-0.16,0.175,10702.777777777777
-0.16,0.155,10705.555555555555
-0.17,0.16,10708.333333333334
-0.185,0.17,10711.111111111111
-0.18,0.185,10713.888888888889
-0.16,0.205,10716.666666666666
-0.16,0.18,10719.444444444445
-0.16,0.16,10722.222222222223
-0.155,0.165,10725.0
-0.145,0.165,10727.777777777777
-0.16,0.185,10730.555555555555
-0.165,0.185,10733.333333333334
-0.17,0.175,10736.111111111111
-0.17,0.16,10738.888888888889
-0.18,0.155,10741.666666666666
-0.165,0.155,10744.444444444445
-0.17,0.185,10747.222222222223
-0.155,0.165,10750.0
-0.16,0.145,10752.777777777777
-0.17,0.13,10755.555555555555
-0.19,0.135,10758.333333333334
-0.16,0.15,10761.111111111111
-0.15,0.155,10763.888888888889
-0.15,0.155,10766.666666666666
-0.17,0.14,10769.444444444445
-0.165,0.125,10772.222222222223
-0.18,0.13,10775.0
-0.18,0.12,10777.777777777777
-0.175,0.155,10780.555555555555
-0.145,0.155,10783.333333333334
-0.16,0.135,10786.111111111111
-0.18,0.11,10788.888888888889
-0.19,0.105,10791.666666666666
-0.195,0.13,10794.444444444445
-0.175,0.125,10797.222222222223
-0.155,0.11,10800.0
-0.145,0.105,10802.777777777777
-0.16,0.09,10805.555555555555
-0.17,0.095,10808.333333333334
-0.155,0.12,10811.111111111111
-0.15,0.13,10813.888888888889
-0.14,0.12,10816.666666666666
-0.14,0.115,10819.444444444445
-0.135,0.09,10822.222222222223
-0.13,0.08,10825.0
-0.13,0.085,10827.777777777777
-0.12,0.105,10830.555555555555
-0.115,0.115,10833.333333333334
-0.11,0.09,10836.111111111111
-0.12,0.075,10838.888888888889
-0.12,0.095,10841.666666666666
-0.115,0.105,10844.444444444445
-0.105,0.12,10847.222222222223
-0.095,0.11,10850.0
-0.095,0.095,10852.777777777777
-0.095,0.095,10855.555555555555
-0.08,0.095,10858.333333333334
-0.08,0.1,10861.111111111111
-0.07,0.12,10863.888888888889
-0.075,0.105,10866.666666666666
-0.09,0.085,10869.444444444445
-0.105,0.04,10872.222222222223
-0.13,0.045,10875.0
-0.115,0.07,10877.777777777777
-0.095,0.09,10880.555555555555
-0.07,0.09,10883.333333333334
-0.085,0.06,10886.111111111111
-0.13,0.05,10888.888888888889
-0.155,0.03,10891.666666666666
-0.145,0.045,10894.444444444445
-0.13,0.06,10897.222222222223
-0.115,0.06,10900.0
-0.12,0.04,10902.777777777777
-0.145,0.02,10905.555555555555
-0.19,0.025,10908.333333333334
-0.21,0.03,10911.111111111111
-0.205,0.035,10913.888888888889
-0.18,0.04,10916.666666666666
-0.165,0.02,10919.444444444445
-0.19,0.005,10922.222222222223
-0.2,0.025,10925.0
-0.19,0.035,10927.777777777777
-0.18,0.06,10930.555555555555
-0.18,0.05,10933.333333333334
-0.185,0.035,10936.111111111111
-0.225,0.025,10938.888888888889
-0.22,0.03,10941.666666666666
-0.22,0.04,10944.444444444445
-0.21,0.05,10947.222222222223
-0.2,0.045,10950.0
-0.2,0.035,10952.777777777777
-0.19,0.005,10955.555555555555
-0.2,0.02,10958.333333333334
-0.195,0.03,10961.111111111111
-0.205,0.045,10963.888888888889
-0.19,0.035,10966.666666666666
-0.18,0.03,10969.444444444445
-0.2,0.035,10972.222222222223
-0.195,0.05,10975.0
-0.195,0.095,10977.777777777777
-0.185,0.135,10980.555555555555
-0.165,0.135,10983.333333333334
-0.18,0.125,10986.111111111111
-0.185,0.065,10988.888888888889
-0.165,0.01,10991.666666666666
-0.05,-0.055,10994.444444444445
0.085,-0.135,10997.222222222223
0.21,-0.235,11000.0
0.3,-0.36,11002.777777777777
0.375,-0.485,11005.555555555555
0.455,-0.605,11008.333333333334
0.565,-0.705,11011.111111111111
0.68,-0.805,11013.888888888889
0.845,-0.935,11016.666666666666
1.02,-1.015,11019.444444444445
1.21,-1.08,11022.222222222223
1.42,-1.1,11025.0
1.615,-1.125,11027.777777777777
1.78,-1.13,11030.555555555555
1.88,-1.15,11033.333333333334
1.87,-1.17,11036.111111111111
1.76,-1.185,11038.888888888889
1.565,-1.19,11041.666666666666
1.28,-1.175,11044.444444444445
0.97,-1.14,11047.222222222223
0.695,-1.1,11050.0
0.495,-1.06,11052.777777777777
0.385,-1.005,11055.555555555555
0.305,-0.93,11058.333333333334
0.275,-0.84,11061.111111111111
0.275,-0.715,11063.888888888889
0.315,-0.6,11066.666666666666
0.295,-0.52,11069.444444444445
0.25,-0.475,11072.222222222223
0.205,-0.415,11075.0
0.17,-0.345,11077.777777777777
0.13,-0.27,11080.555555555555
0.12,-0.225,11083.333333333334
0.075,-0.19,11086.111111111111
0.02,-0.155,11088.888888888889
-0.01,-0.11,11091.666666666666
-0.04,-0.06,11094.444444444445
-0.05,-0.015,11097.222222222223
-0.07,0.02,11100.0
-0.11,0.045,11102.777777777777
-0.155,0.06,11105.555555555555
-0.2,0.09,11108.333333333334
-0.21,0.15,11111.111111111111
-0.235,0.19,11113.888888888889
-0.255,0.22,11116.666666666666
-0.285,0.24,11119.444444444445
-0.33,0.235,11122.222222222223
-0.365,0.27,11125.0
-0.365,0.275,11127.777777777777
-0.375,0.3,11130.555555555555
-0.36,0.3,11133.333333333334
-0.37,0.295,11136.111111111111
-0.39,0.315,11138.888888888889
-0.405,0.33,11141.666666666666
-0.415,0.345,11144.444444444445
-0.41,0.38,11147.222222222223
-0.375,0.375,11150.0
-0.395,0.365,11152.777777777777
-0.43,0.37,11155.555555555555
-0.44,0.365,11158.333333333334
-0.435,0.38,11161.111111111111
-0.425,0.4,11163.888888888889
-0.41,0.425,11166.666666666666
-0.42,0.415,11169.444444444445
-0.43,0.415,11172.222222222223
-0.45,0.41,11175.0
-0.45,0.435,11177.777777777777
-0.43,0.475,11180.555555555555
-0.42,0.475,11183.333333333334
-0.42,0.47,11186.111111111111
-0.44,0.485,11188.888888888889
-0.455,0.515,11191.666666666666
-0.475,0.535,11194.444444444445
-0.455,0.55,11197.222222222223
-0.455,0.54,11200.0
-0.46,0.545,11202.777777777777
-0.475,0.545,11205.555555555555
-0.495,0.55,11208.333333333334
-0.485,0.595,11211.111111111111
-0.485,0.615,11213.888888888889
-0.485,0.64,11216.666666666666
-0.495,0.65,11219.444444444445
-0.52,0.645,11222.222222222223
-0.515,0.67,11225.0
-0.525,0.72,11227.777777777777
-0.53,0.735,11230.555555555555
-0.535,0.755,11233.333333333334
-0.545,0.755,11236.111111111111
-0.565,0.77,11238.888888888889
-0.575,0.79,11241.666666666666
-0.58,0.81,11244.444444444445
-0.58,0.82,11247.222222222223
-0.575,0.815,11250.0
-0.59,0.805,11252.777777777777
-0.61,0.81,11255.555555555555
-0.64,0.825,11258.333333333334
-0.63,0.84,11261.111111111111
-0.61,0.88,11263.888888888889
-0.615,0.855,11266.666666666666
-0.62,0.85,11269.444444444445
-0.64,0.82,11272.222222222223
-0.67,0.82,11275.0
-0.66,0.815,11277.777777777777
-0.64,0.835,11280.555555555555
-0.615,0.825,11283.333333333334
-0.63,0.795,11286.111111111111
-0.63,0.765,11288.888888888889
-0.65,0.745,11291.666666666666
-0.635,0.73,11294.444444444445
-0.625,0.705,11297.222222222223
-0.6,0.675,11300.0
-0.585,0.64,11302.777777777777
-0.58,0.62,11305.555555555555
-0.565,0.59,11308.333333333334
-0.545,0.57,11311.111111111111
-0.535,0.545,11313.888888888889
-0.51,0.5,11316.666666666666
-0.5,0.435,11319.444444444445
-0.49,0.395,11322.222222222223
-0.475,0.36,11325.0
-0.425,0.315,11327.777777777777
-0.4,0.32,11330.555555555555
-0.345,0.3,11333.333333333334
-0.32,0.265,11336.111111111111
-0.31,0.21,11338.888888888889
-0.315,0.19,11341.666666666666
-0.3,0.175,11344.444444444445
-0.28,0.17,11347.222222222223
-0.27,0.155,11350.0
-0.255,0.135,11352.777777777777
-0.255,0.105,11355.555555555555
-0.25,0.085,11358.333333333334
-0.23,0.09,11361.111111111111
-0.225,0.095,11363.888888888889
-0.21,0.095,11366.666666666666
-0.215,0.085,11369.444444444445
-0.235,0.065,11372.222222222223
-0.26,0.06,11375.0
-0.24,0.06,11377.777777777777
-0.21,0.08,11380.555555555555
-0.205,0.065,11383.333333333334
-0.2,0.04,11386.111111111111
-0.225,0.01,11388.888888888889
-0.24,0.03,11391.666666666666
-0.22,0.045,11394.444444444445
-0.21,0.065,11397.222222222223
-0.195,0.07,11400.0
-0.21,0.055,11402.777777777777
-0.22,0.03,11405.555555555555
-0.24,0.035,11408.333333333334
-0.25,0.055,11411.111111111111
-0.225,0.065,11413.888888888889
-0.225,0.065,11416.666666666666
-0.225,0.05,11419.444444444445
-0.245,0.035,11422.222222222223
-0.255,0.035,11425.0
-0.25,0.045,11427.777777777777
-0.225,0.075,11430.555555555555
-0.21,0.075,11433.333333333334
-0.21,0.065,11436.111111111111
-0.24,0.05,11438.888888888889
-0.26,0.07,11441.666666666666
-0.255,0.065,11444.444444444445
-0.23,0.07,11447.222222222223
-0.19,0.06,11450.0
-0.2,0.05,11452.777777777777
-0.225,0.04,11455.555555555555
-0.235,0.04,11458.333333333334
-0.245,0.06,11461.111111111111
-0.215,0.075,11463.888888888889
-0.21,0.07,11466.666666666666
-0.2,0.045,11469.444444444445
-0.21,0.025,11472.222222222223
-0.225,0.04,11475.0
