MLII,V1,time_ms
0.22,0.185,0.0
0.22,0.185,2.7777777777777777
0.22,0.185,5.555555555555555
0.22,0.185,8.333333333333334
0.22,0.185,11.11111111111111
0.22,0.185,13.88888888888889
0.22,0.185,16.666666666666668
0.22,0.185,19.444444444444443
0.22,0.185,22.22222222222222
0.19,0.165,25.0
0.17,0.185,27.77777777777778
0.14,0.195,30.555555555555557
0.145,0.225,33.333333333333336
0.125,0.215,36.111111111111114
0.11,0.19,38.888888888888886
0.07,0.2,41.666666666666664
0.025,0.205,44.44444444444444
0.01,0.22,47.22222222222222
0.005,0.235,50.0
0.0,0.24,52.77777777777778
-0.03,0.215,55.55555555555556
-0.05,0.205,58.333333333333336
-0.08,0.225,61.111111111111114
-0.08,0.24,63.888888888888886
-0.08,0.255,66.66666666666667
-0.085,0.245,69.44444444444444
-0.11,0.245,72.22222222222223
-0.145,0.23,75.0
-0.16,0.23,77.77777777777777
-0.14,0.25,80.55555555555556
-0.13,0.26,83.33333333333333
-0.13,0.25,86.11111111111111
-0.14,0.225,88.88888888888889
-0.155,0.22,91.66666666666667
-0.18,0.225,94.44444444444444
-0.175,0.235,97.22222222222223
-0.16,0.245,100.0
-0.155,0.245,102.77777777777777
-0.17,0.245,105.55555555555556
-0.165,0.225,108.33333333333333
-0.17,0.225,111.11111111111111
-0.16,0.25,113.88888888888889
-0.15,0.26,116.66666666666667
-0.165,0.27,119.44444444444444
-0.17,0.245,122.22222222222223
-0.185,0.23,125.0
-0.19,0.235,127.77777777777777
-0.165,0.25,130.55555555555554
-0.155,0.26,133.33333333333334
-0.155,0.26,136.11111111111111
-0.155,0.24,138.88888888888889
-0.155,0.245,141.66666666666666
-0.16,0.245,144.44444444444446
-0.145,0.275,147.22222222222223
-0.115,0.295,150.0
-0.11,0.28,152.77777777777777
-0.11,0.26,155.55555555555554
-0.13,0.25,158.33333333333334
-0.13,0.27,161.11111111111111
-0.125,0.275,163.88888888888889
-0.09,0.29,166.66666666666666
-0.07,0.265,169.44444444444446
-0.07,0.25,172.22222222222223
-0.07,0.25,175.0
-0.075,0.25,177.77777777777777
-0.07,0.255,180.55555555555554
-0.095,0.25,183.33333333333334
-0.12,0.225,186.11111111111111
-0.13,0.205,188.88888888888889
-0.13,0.22,191.66666666666666
-0.14,0.22,194.44444444444446
-0.13,0.225,197.22222222222223
-0.13,0.225,200.0
-0.15,0.225,202.77777777777777
-0.155,0.215,205.55555555555554
-0.16,0.205,208.33333333333334
-0.155,0.21,211.11111111111111
-0.13,0.245,213.88888888888889
-0.115,0.25,216.66666666666666
-0.155,0.25,219.44444444444446
-0.175,0.235,222.22222222222223
-0.2,0.22,225.0
-0.195,0.235,227.77777777777777
-0.175,0.235,230.55555555555554
-0.165,0.23,233.33333333333334
-0.19,0.235,236.11111111111111
-0.2,0.23,238.88888888888889
-0.205,0.21,241.66666666666666
-0.2,0.23,244.44444444444446
-0.18,0.235,247.22222222222223
-0.165,0.235,250.0
-0.165,0.25,252.77777777777777
-0.175,0.235,255.55555555555554
-0.19,0.225,258.3333333333333
-0.175,0.23,261.1111111111111
-0.175,0.26,263.8888888888889
-0.175,0.265,266.6666666666667
-0.18,0.26,269.44444444444446
-0.185,0.235,272.22222222222223
-0.185,0.22,275.0
-0.175,0.235,277.77777777777777
-0.18,0.24,280.55555555555554
-0.17,0.25,283.3333333333333
-0.165,0.24,286.1111111111111
-0.175,0.235,288.8888888888889
-0.175,0.235,291.6666666666667
-0.185,0.245,294.44444444444446
-0.18,0.245,297.22222222222223
-0.145,0.255,300.0
-0.17,0.235,302.77777777777777
-0.19,0.2,305.55555555555554
-0.215,0.205,308.3333333333333
-0.215,0.22,311.1111111111111
-0.2,0.255,313.8888888888889
-0.185,0.265,316.6666666666667
-0.19,0.28,319.44444444444446
-0.19,0.285,322.22222222222223
-0.15,0.27,325.0
-0.025,0.26,327.77777777777777
0.14,0.22,330.55555555555554
0.315,0.175,333.3333333333333
0.47,0.12,336.1111111111111
0.63,0.06,338.8888888888889
0.72,-0.01,341.6666666666667
0.8,-0.055,344.44444444444446
0.84,-0.12,347.22222222222223
0.8,-0.125,350.0
0.675,-0.155,352.77777777777777
0.515,-0.165,355.55555555555554
0.26,-0.155,358.3333333333333
-0.08,-0.115,361.1111111111111
-0.415,-0.055,363.8888888888889
-0.65,-0.015,366.6666666666667
-0.785,0.025,369.44444444444446
-0.755,0.065,372.22222222222223
-0.665,0.13,375.0
-0.555,0.19,377.77777777777777
-0.47,0.235,380.55555555555554
-0.375,0.26,383.3333333333333
-0.315,0.245,386.1111111111111
-0.265,0.235,388.8888888888889
-0.255,0.22,391.6666666666667
-0.225,0.22,394.44444444444446
-0.21,0.23,397.22222222222223
-0.175,0.25,400.0
-0.17,0.24,402.77777777777777
-0.17,0.22,405.55555555555554
-0.185,0.205,408.3333333333333
-0.185,0.24,411.1111111111111
-0.165,0.245,413.8888888888889
-0.13,0.27,416.6666666666667
-0.14,0.255,419.44444444444446
-0.135,0.215,422.22222222222223
-0.14,0.215,425.0
-0.155,0.215,427.77777777777777
-0.135,0.24,430.55555555555554
-0.115,0.24,433.3333333333333
-0.09,0.245,436.1111111111111
-0.075,0.24,438.8888888888889
-0.085,0.225,441.6666666666667
-0.085,0.245,444.44444444444446
-0.07,0.25,447.22222222222223
-0.06,0.26,450.0
-0.055,0.235,452.77777777777777
-0.06,0.22,455.55555555555554
-0.065,0.2,458.3333333333333
-0.06,0.21,461.1111111111111
-0.02,0.215,463.8888888888889
0.025,0.245,466.6666666666667
0.04,0.235,469.44444444444446
0.04,0.21,472.22222222222223
0.04,0.2,475.0
0.05,0.205,477.77777777777777
0.095,0.22,480.55555555555554
0.1,0.245,483.3333333333333
0.12,0.23,486.1111111111111
0.115,0.22,488.8888888888889
0.12,0.2,491.6666666666667
0.135,0.21,494.44444444444446
0.155,0.215,497.22222222222223
0.195,0.22,500.0
0.205,0.215,502.77777777777777
0.205,0.18,505.55555555555554
0.205,0.185,508.3333333333333
0.225,0.19,511.1111111111111
0.24,0.21,513.8888888888889
0.265,0.215,516.6666666666666
0.26,0.2,519.4444444444445
0.265,0.195,522.2222222222222
0.25,0.185,525.0
0.245,0.19,527.7777777777778
0.255,0.21,530.5555555555555
0.265,0.225,533.3333333333334
0.265,0.205,536.1111111111111
0.245,0.195,538.8888888888889
0.225,0.195,541.6666666666666
0.215,0.215,544.4444444444445
0.21,0.225,547.2222222222222
0.205,0.255,550.0
0.17,0.23,552.7777777777778
0.15,0.23,555.5555555555555
0.12,0.23,558.3333333333334
0.105,0.235,561.1111111111111
0.085,0.26,563.8888888888889
0.08,0.265,566.6666666666666
0.055,0.265,569.4444444444445
0.02,0.245,572.2222222222222
-0.01,0.255,575.0
-0.02,0.26,577.7777777777778
-0.025,0.28,580.5555555555555
-0.04,0.3,583.3333333333334
-0.055,0.29,586.1111111111111
-0.075,0.28,588.8888888888889
-0.11,0.26,591.6666666666666
-0.12,0.27,594.4444444444445
-0.125,0.305,597.2222222222222
-0.115,0.295,600.0
-0.12,0.305,602.7777777777778
-0.125,0.29,605.5555555555555
-0.15,0.285,608.3333333333334
-0.16,0.295,611.1111111111111
-0.155,0.32,613.8888888888889
-0.15,0.33,616.6666666666666
-0.165,0.31,619.4444444444445
-0.165,0.305,622.2222222222222
-0.195,0.29,625.0
-0.185,0.285,627.7777777777778
-0.18,0.3,630.5555555555555
-0.17,0.32,633.3333333333334
-0.19,0.31,636.1111111111111
-0.185,0.275,638.8888888888889
-0.2,0.28,641.6666666666666
-0.2,0.3,644.4444444444445
-0.19,0.31,647.2222222222222
-0.18,0.33,650.0
-0.18,0.325,652.7777777777778
-0.2,0.305,655.5555555555555
-0.19,0.315,658.3333333333334
-0.185,0.31,661.1111111111111
-0.165,0.345,663.8888888888889
-0.155,0.335,666.6666666666666
-0.145,0.335,669.4444444444445
-0.14,0.335,672.2222222222222
-0.165,0.325,675.0
-0.15,0.34,677.7777777777778
-0.15,0.355,680.5555555555555
-0.13,0.36,683.3333333333334
-0.125,0.37,686.1111111111111
-0.135,0.36,688.8888888888889
-0.125,0.35,691.6666666666666
-0.11,0.36,694.4444444444445
-0.09,0.37,697.2222222222222
-0.075,0.38,700.0
-0.08,0.355,702.7777777777778
-0.11,0.325,705.5555555555555
-0.115,0.31,708.3333333333334
-0.135,0.315,711.1111111111111
-0.14,0.325,713.8888888888889
-0.13,0.355,716.6666666666666
-0.13,0.335,719.4444444444445
-0.15,0.315,722.2222222222222
-0.18,0.31,725.0
-0.205,0.33,727.7777777777778
-0.2,0.345,730.5555555555555
-0.17,0.355,733.3333333333334
-0.16,0.365,736.1111111111111
-0.17,0.355,738.8888888888889
-0.195,0.355,741.6666666666666
-0.22,0.37,744.4444444444445
-0.23,0.39,747.2222222222222
-0.195,0.385,750.0
-0.2,0.4,752.7777777777778
-0.215,0.395,755.5555555555555
-0.23,0.37,758.3333333333334
-0.23,0.4,761.1111111111111
-0.205,0.41,763.8888888888889
-0.19,0.43,766.6666666666666
-0.21,0.435,769.4444444444445
-0.22,0.415,772.2222222222222
-0.21,0.425,775.0
-0.22,0.445,777.7777777777778
-0.21,0.45,780.5555555555555
-0.205,0.47,783.3333333333334
-0.205,0.45,786.1111111111111
-0.22,0.445,788.8888888888889
-0.22,0.45,791.6666666666666
-0.22,0.455,794.4444444444445
-0.2,0.47,797.2222222222222
-0.195,0.5,800.0
-0.195,0.49,802.7777777777778
-0.215,0.48,805.5555555555555
-0.235,0.49,808.3333333333334
-0.22,0.505,811.1111111111111
-0.2,0.51,813.8888888888889
-0.185,0.535,816.6666666666666
-0.195,0.525,819.4444444444445
-0.215,0.53,822.2222222222222
-0.21,0.515,825.0
-0.21,0.55,827.7777777777778
-0.19,0.56,830.5555555555555
-0.175,0.57,833.3333333333334
-0.19,0.57,836.1111111111111
-0.205,0.575,838.8888888888889
-0.225,0.59,841.6666666666666
-0.23,0.61,844.4444444444445
-0.22,0.655,847.2222222222222
-0.185,0.67,850.0
-0.105,0.665,852.7777777777778
0.015,0.625,855.5555555555555
0.16,0.585,858.3333333333334
0.315,0.55,861.1111111111111
0.485,0.535,863.8888888888889
0.645,0.51,866.6666666666666
0.765,0.445,869.4444444444445
0.815,0.38,872.2222222222222
0.8,0.32,875.0
0.675,0.31,877.7777777777778
0.545,0.32,880.5555555555555
0.365,0.355,883.3333333333334
0.06,0.38,886.1111111111111
-0.285,0.44,888.8888888888889
-0.575,0.465,891.6666666666666
-0.77,0.515,894.4444444444445
-0.8,0.585,897.2222222222222
-0.735,0.675,900.0
-0.645,0.745,902.7777777777778
-0.555,0.785,905.5555555555555
-0.48,0.79,908.3333333333334
-0.42,0.815,911.1111111111111
-0.345,0.825,913.8888888888889
-0.27,0.82,916.6666666666666
-0.245,0.825,919.4444444444445
-0.225,0.825,922.2222222222222
-0.23,0.81,925.0
-0.225,0.815,927.7777777777778
-0.205,0.845,930.5555555555555
-0.175,0.855,933.3333333333334
-0.175,0.86,936.1111111111111
-0.18,0.845,938.8888888888889
-0.19,0.83,941.6666666666666
-0.19,0.835,944.4444444444445
-0.17,0.85,947.2222222222222
-0.15,0.87,950.0
-0.14,0.865,952.7777777777778
-0.145,0.855,955.5555555555555
-0.145,0.845,958.3333333333334
-0.145,0.835,961.1111111111111
-0.13,0.845,963.8888888888889
-0.115,0.86,966.6666666666666
-0.105,0.855,969.4444444444445
-0.105,0.83,972.2222222222222
-0.1,0.83,975.0
-0.09,0.83,977.7777777777778
-0.07,0.855,980.5555555555555
-0.05,0.88,983.3333333333334
-0.03,0.85,986.1111111111111
-0.025,0.83,988.8888888888889
-0.04,0.815,991.6666666666666
-0.02,0.82,994.4444444444445
0.015,0.83,997.2222222222222
0.05,0.855,1000.0
0.07,0.845,1002.7777777777778
0.085,0.82,1005.5555555555555
0.065,0.805,1008.3333333333334
0.09,0.81,1011.1111111111111
0.11,0.81,1013.8888888888889
0.13,0.82,1016.6666666666666
0.15,0.81,1019.4444444444445
0.155,0.79,1022.2222222222222
0.165,0.77,1025.0
0.175,0.785,1027.7777777777778
0.175,0.79,1030.5555555555557
0.195,0.795,1033.3333333333333
0.215,0.805,1036.111111111111
0.215,0.77,1038.888888888889
0.205,0.755,1041.6666666666667
0.19,0.775,1044.4444444444443
0.22,0.79,1047.2222222222222
0.25,0.8,1050.0
0.25,0.78,1052.7777777777778
0.21,0.765,1055.5555555555557
0.195,0.76,1058.3333333333333
0.175,0.785,1061.111111111111
0.185,0.78,1063.888888888889
0.21,0.775,1066.6666666666667
0.195,0.77,1069.4444444444443
0.185,0.75,1072.2222222222222
0.14,0.765,1075.0
0.125,0.765,1077.7777777777778
0.11,0.795,1080.5555555555557
0.1,0.795,1083.3333333333333
0.08,0.785,1086.111111111111
0.06,0.785,1088.888888888889
0.025,0.775,1091.6666666666667
-0.02,0.775,1094.4444444444443
-0.03,0.785,1097.2222222222222
-0.045,0.795,1100.0
-0.065,0.795,1102.7777777777778
-0.09,0.795,1105.5555555555557
-0.11,0.775,1108.3333333333333
-0.11,0.77,1111.111111111111
-0.115,0.79,1113.888888888889
-0.125,0.805,1116.6666666666667
-0.14,0.795,1119.4444444444443
-0.16,0.785,1122.2222222222222
-0.18,0.765,1125.0
-0.185,0.775,1127.7777777777778
-0.185,0.785,1130.5555555555557
-0.175,0.8,1133.3333333333333
-0.185,0.78,1136.111111111111
-0.21,0.76,1138.888888888889
-0.225,0.755,1141.6666666666667
-0.21,0.775,1144.4444444444443
-0.205,0.785,1147.2222222222222
-0.2,0.8,1150.0
-0.225,0.79,1152.7777777777778
-0.22,0.75,1155.5555555555557
-0.235,0.73,1158.3333333333333
-0.235,0.74,1161.111111111111
-0.23,0.76,1163.888888888889
-0.21,0.77,1166.6666666666667
-0.195,0.765,1169.4444444444443
-0.2,0.74,1172.2222222222222
-0.23,0.74,1175.0
-0.225,0.74,1177.7777777777778
-0.2,0.75,1180.5555555555557
-0.185,0.765,1183.3333333333333
-0.19,0.76,1186.111111111111
-0.195,0.75,1188.888888888889
-0.21,0.73,1191.6666666666667
-0.185,0.745,1194.4444444444443
-0.175,0.77,1197.2222222222222
-0.16,0.78,1200.0
-0.165,0.75,1202.7777777777778
-0.195,0.745,1205.5555555555557
-0.185,0.73,1208.3333333333333
-0.17,0.75,1211.111111111111
-0.15,0.755,1213.888888888889
-0.12,0.755,1216.6666666666667
-0.105,0.75,1219.4444444444443
-0.105,0.74,1222.2222222222222
-0.11,0.725,1225.0
-0.12,0.73,1227.7777777777778
-0.125,0.72,1230.5555555555557
-0.145,0.7,1233.3333333333333
-0.155,0.705,1236.111111111111
-0.18,0.675,1238.888888888889
-0.2,0.665,1241.6666666666667
-0.205,0.68,1244.4444444444443
-0.2,0.69,1247.2222222222222
-0.2,0.695,1250.0
-0.215,0.675,1252.7777777777778
-0.225,0.66,1255.5555555555557
-0.23,0.66,1258.3333333333333
-0.23,0.675,1261.111111111111
-0.205,0.69,1263.888888888889
-0.195,0.715,1266.6666666666667
-0.215,0.715,1269.4444444444443
-0.24,0.69,1272.2222222222222
-0.27,0.67,1275.0
-0.28,0.665,1277.7777777777778
-0.265,0.68,1280.5555555555557
-0.24,0.685,1283.3333333333333
-0.25,0.675,1286.111111111111
-0.25,0.665,1288.888888888889
-0.27,0.67,1291.6666666666667
-0.275,0.665,1294.4444444444443
-0.26,0.68,1297.2222222222222
-0.23,0.695,1300.0
-0.22,0.68,1302.7777777777778
-0.24,0.66,1305.5555555555557
-0.26,0.655,1308.3333333333333
-0.26,0.665,1311.111111111111
-0.25,0.69,1313.888888888889
-0.24,0.685,1316.6666666666667
-0.245,0.675,1319.4444444444443
-0.25,0.655,1322.2222222222222
-0.255,0.645,1325.0
-0.25,0.65,1327.7777777777778
-0.255,0.665,1330.5555555555557
-0.235,0.665,1333.3333333333333
-0.235,0.655,1336.111111111111
-0.25,0.64,1338.888888888889
-0.255,0.625,1341.6666666666667
-0.255,0.625,1344.4444444444443
-0.24,0.64,1347.2222222222222
-0.22,0.65,1350.0
-0.21,0.645,1352.7777777777778
-0.22,0.62,1355.5555555555557
-0.24,0.615,1358.3333333333333
-0.24,0.635,1361.111111111111
-0.245,0.645,1363.888888888889
-0.26,0.635,1366.6666666666667
-0.285,0.65,1369.4444444444443
-0.285,0.655,1372.2222222222222
-0.26,0.645,1375.0
-0.18,0.655,1377.7777777777778
-0.035,0.635,1380.5555555555557
0.125,0.59,1383.3333333333333
0.26,0.53,1386.111111111111
0.37,0.485,1388.888888888889
0.5,0.415,1391.6666666666667
0.605,0.37,1394.4444444444443
0.68,0.32,1397.2222222222222
0.725,0.26,1400.0
0.675,0.21,1402.7777777777778
0.535,0.165,1405.5555555555557
0.365,0.15,1408.3333333333333
0.18,0.175,1411.111111111111
-0.07,0.23,1413.888888888889
-0.35,0.275,1416.6666666666667
-0.61,0.315,1419.4444444444443
-0.795,0.33,1422.2222222222222
-0.86,0.38,1425.0
-0.8,0.45,1427.7777777777778
-0.685,0.54,1430.5555555555557
-0.59,0.585,1433.3333333333333
-0.52,0.615,1436.111111111111
-0.465,0.595,1438.888888888889
-0.43,0.6,1441.6666666666667
-0.36,0.6,1444.4444444444443
-0.31,0.59,1447.2222222222222
-0.27,0.595,1450.0
-0.255,0.575,1452.7777777777778
-0.27,0.57,1455.5555555555557
-0.24,0.57,1458.3333333333333
-0.24,0.58,1461.111111111111
-0.225,0.59,1463.888888888889
-0.215,0.605,1466.6666666666667
-0.21,0.575,1469.4444444444443
-0.205,0.56,1472.2222222222222
-0.225,0.54,1475.0
-0.215,0.555,1477.7777777777778
-0.2,0.57,1480.5555555555557
-0.18,0.585,1483.3333333333333
-0.17,0.575,1486.111111111111
-0.165,0.54,1488.888888888889
-0.18,0.54,1491.6666666666667
-0.165,0.545,1494.4444444444443
-0.15,0.565,1497.2222222222222
-0.13,0.58,1500.0
-0.135,0.56,1502.7777777777778
-0.14,0.54,1505.5555555555557
-0.13,0.53,1508.3333333333333
-0.12,0.53,1511.111111111111
-0.095,0.545,1513.888888888889
-0.075,0.56,1516.6666666666667
-0.06,0.53,1519.4444444444443
-0.055,0.525,1522.2222222222222
-0.07,0.515,1525.0
-0.055,0.505,1527.7777777777778
-0.045,0.52,1530.5555555555557
-0.01,0.52,1533.3333333333333
-0.01,0.5,1536.111111111111
0.0,0.5,1538.888888888889
0.015,0.5,1541.6666666666667
0.03,0.505,1544.4444444444443
0.055,0.505,1547.2222222222222
0.095,0.485,1550.0
0.115,0.45,1552.7777777777778
0.125,0.44,1555.5555555555557
0.12,0.44,1558.3333333333333
0.125,0.435,1561.111111111111
0.14,0.455,1563.888888888889
0.17,0.46,1566.6666666666667
0.18,0.43,1569.4444444444443
0.185,0.43,1572.2222222222222
0.185,0.42,1575.0
0.18,0.42,1577.7777777777778
0.185,0.435,1580.5555555555557
0.2,0.44,1583.3333333333333
0.195,0.425,1586.111111111111
0.2,0.43,1588.888888888889
0.19,0.415,1591.6666666666667
0.19,0.43,1594.4444444444443
0.205,0.435,1597.2222222222222
0.215,0.44,1600.0
0.205,0.435,1602.7777777777778
0.18,0.42,1605.5555555555557
0.16,0.42,1608.3333333333333
0.14,0.43,1611.111111111111
0.13,0.445,1613.888888888889
0.135,0.46,1616.6666666666667
0.125,0.44,1619.4444444444443
0.105,0.435,1622.2222222222222
0.075,0.43,1625.0
0.03,0.44,1627.7777777777778
0.025,0.46,1630.5555555555557
0.005,0.465,1633.3333333333333
-0.01,0.48,1636.111111111111
-0.025,0.44,1638.888888888889
-0.065,0.46,1641.6666666666667
-0.085,0.465,1644.4444444444443
-0.085,0.475,1647.2222222222222
-0.08,0.475,1650.0
-0.095,0.46,1652.7777777777778
-0.12,0.46,1655.5555555555557
-0.14,0.45,1658.3333333333333
-0.16,0.445,1661.111111111111
-0.16,0.46,1663.888888888889
-0.15,0.465,1666.6666666666667
-0.17,0.465,1669.4444444444443
-0.185,0.445,1672.2222222222222
-0.195,0.45,1675.0
-0.195,0.46,1677.7777777777778
-0.2,0.46,1680.5555555555557
-0.2,0.48,1683.3333333333333
-0.205,0.47,1686.111111111111
-0.21,0.455,1688.888888888889
-0.23,0.455,1691.6666666666667
-0.23,0.45,1694.4444444444443
-0.225,0.46,1697.2222222222222
-0.205,0.485,1700.0
-0.205,0.445,1702.7777777777778
-0.215,0.435,1705.5555555555557
-0.23,0.43,1708.3333333333333
-0.23,0.445,1711.111111111111
-0.225,0.44,1713.888888888889
-0.22,0.445,1716.6666666666667
-0.22,0.43,1719.4444444444443
-0.23,0.405,1722.2222222222222
-0.245,0.4,1725.0
-0.245,0.395,1727.7777777777778
-0.235,0.43,1730.5555555555557
-0.215,0.445,1733.3333333333333
-0.2,0.445,1736.111111111111
-0.2,0.445,1738.888888888889
-0.225,0.425,1741.6666666666667
-0.21,0.43,1744.4444444444443
-0.2,0.455,1747.2222222222222
-0.2,0.475,1750.0
-0.175,0.455,1752.7777777777778
-0.18,0.45,1755.5555555555557
-0.185,0.43,1758.3333333333333
-0.18,0.43,1761.111111111111
-0.155,0.44,1763.888888888889
-0.145,0.44,1766.6666666666667
-0.13,0.44,1769.4444444444443
-0.135,0.435,1772.2222222222222
-0.12,0.42,1775.0
-0.13,0.42,1777.7777777777778
-0.12,0.42,1780.5555555555557
-0.125,0.43,1783.3333333333333
-0.14,0.41,1786.111111111111
-0.165,0.4,1788.888888888889
-0.19,0.39,1791.6666666666667
-0.215,0.385,1794.4444444444443
-0.21,0.4,1797.2222222222222
-0.205,0.395,1800.0
-0.2,0.38,1802.7777777777778
-0.22,0.355,1805.5555555555557
-0.245,0.345,1808.3333333333333
-0.245,0.345,1811.111111111111
-0.245,0.36,1813.888888888889
-0.24,0.38,1816.6666666666667
-0.23,0.37,1819.4444444444443
-0.23,0.37,1822.2222222222222
-0.24,0.375,1825.0
-0.255,0.375,1827.7777777777778
-0.25,0.385,1830.5555555555557
-0.245,0.385,1833.3333333333333
-0.24,0.375,1836.111111111111
-0.255,0.36,1838.888888888889
-0.27,0.33,1841.6666666666667
-0.27,0.35,1844.4444444444443
-0.26,0.37,1847.2222222222222
-0.265,0.365,1850.0
-0.255,0.335,1852.7777777777778
-0.245,0.32,1855.5555555555557
-0.275,0.325,1858.3333333333333
-0.285,0.34,1861.111111111111
-0.285,0.355,1863.888888888889
-0.275,0.355,1866.6666666666667
-0.285,0.35,1869.4444444444443
-0.29,0.35,1872.2222222222222
-0.315,0.345,1875.0
-0.325,0.355,1877.7777777777778
-0.295,0.38,1880.5555555555557
-0.265,0.38,1883.3333333333333
-0.27,0.35,1886.111111111111
-0.285,0.335,1888.888888888889
-0.305,0.3,1891.6666666666667
-0.3,0.315,1894.4444444444443
-0.27,0.345,1897.2222222222222
-0.25,0.345,1900.0
-0.245,0.33,1902.7777777777778
-0.265,0.31,1905.5555555555557
-0.285,0.305,1908.3333333333333
-0.285,0.31,1911.111111111111
-0.26,0.325,1913.888888888889
-0.235,0.325,1916.6666666666667
-0.235,0.3,1919.4444444444443
-0.265,0.3,1922.2222222222222
-0.3,0.3,1925.0
-0.3,0.315,1927.7777777777778
-0.3,0.335,1930.5555555555557
-0.285,0.37,1933.3333333333333
-0.285,0.37,1936.111111111111
-0.235,0.385,1938.888888888889
-0.17,0.345,1941.6666666666667
-0.04,0.305,1944.4444444444443
0.115,0.23,1947.2222222222222
0.255,0.165,1950.0
0.4,0.075,1952.7777777777778
0.495,0.005,1955.5555555555557
0.55,-0.065,1958.3333333333333
0.53,-0.11,1961.111111111111
0.43,-0.11,1963.888888888889
0.315,-0.1,1966.6666666666667
0.12,-0.09,1969.4444444444443
-0.16,-0.08,1972.2222222222222
-0.45,-0.04,1975.0
-0.695,0.025,1977.7777777777778
-0.85,0.09,1980.5555555555557
-0.905,0.14,1983.3333333333333
-0.84,0.185,1986.111111111111
-0.75,0.22,1988.888888888889
-0.67,0.23,1991.6666666666667
-0.59,0.245,1994.4444444444443
-0.505,0.285,1997.2222222222222
-0.41,0.28,2000.0
-0.345,0.265,2002.7777777777778
-0.32,0.25,2005.5555555555557
-0.3,0.245,2008.3333333333333
-0.305,0.26,2011.111111111111
-0.285,0.26,2013.888888888889
-0.26,0.26,2016.6666666666667
-0.25,0.26,2019.4444444444443
-0.26,0.26,2022.2222222222222
-0.27,0.255,2025.0
-0.26,0.275,2027.7777777777778
-0.26,0.295,2030.5555555555557
-0.24,0.315,2033.3333333333333
-0.215,0.29,2036.111111111111
-0.23,0.255,2038.888888888889
-0.225,0.25,2041.6666666666667
-0.215,0.25,2044.4444444444443
-0.18,0.265,2047.2222222222222
-0.145,0.265,2050.0
-0.165,0.245,2052.777777777778
-0.19,0.225,2055.5555555555557
-0.195,0.235,2058.3333333333335
-0.16,0.235,2061.1111111111113
-0.125,0.25,2063.8888888888887
-0.1,0.255,2066.6666666666665
-0.11,0.24,2069.4444444444443
-0.115,0.23,2072.222222222222
-0.12,0.215,2075.0
-0.11,0.24,2077.777777777778
-0.075,0.255,2080.5555555555557
-0.05,0.24,2083.3333333333335
-0.04,0.24,2086.1111111111113
-0.05,0.21,2088.8888888888887
-0.025,0.195,2091.6666666666665
-0.01,0.19,2094.4444444444443
0.025,0.225,2097.222222222222
0.055,0.22,2100.0
0.055,0.2,2102.777777777778
0.07,0.165,2105.5555555555557
0.055,0.17,2108.3333333333335
0.055,0.19,2111.1111111111113
0.08,0.21,2113.8888888888887
0.105,0.215,2116.6666666666665
0.12,0.19,2119.4444444444443
0.125,0.16,2122.222222222222
0.115,0.165,2125.0
0.115,0.175,2127.777777777778
0.13,0.185,2130.5555555555557
0.14,0.205,2133.3333333333335
0.145,0.175,2136.1111111111113
0.13,0.17,2138.8888888888887
0.125,0.165,2141.6666666666665
0.14,0.16,2144.4444444444443
0.15,0.185,2147.222222222222
0.145,0.19,2150.0
0.135,0.185,2152.777777777778
0.12,0.17,2155.5555555555557
0.1,0.165,2158.3333333333335
0.095,0.18,2161.1111111111113
0.095,0.21,2163.8888888888887
0.09,0.225,2166.6666666666665
0.075,0.215,2169.4444444444443
0.04,0.205,2172.222222222222
0.01,0.195,2175.0
-0.02,0.215,2177.777777777778
-0.035,0.23,2180.5555555555557
-0.04,0.24,2183.3333333333335
-0.07,0.215,2186.1111111111113
-0.1,0.195,2188.8888888888887
-0.14,0.2,2191.6666666666665
-0.15,0.205,2194.4444444444443
-0.15,0.24,2197.222222222222
-0.135,0.245,2200.0
-0.135,0.22,2202.777777777778
-0.165,0.205,2205.5555555555557
-0.215,0.2,2208.3333333333335
-0.225,0.22,2211.1111111111113
-0.205,0.23,2213.8888888888887
-0.19,0.26,2216.6666666666665
-0.195,0.24,2219.4444444444443
-0.205,0.215,2222.222222222222
-0.23,0.2,2225.0
-0.245,0.215,2227.777777777778
-0.245,0.225,2230.5555555555557
-0.255,0.255,2233.3333333333335
-0.255,0.25,2236.1111111111113
-0.255,0.23,2238.8888888888887
-0.265,0.21,2241.6666666666665
-0.255,0.205,2244.4444444444443
-0.24,0.215,2247.222222222222
-0.23,0.235,2250.0
-0.235,0.235,2252.777777777778
-0.245,0.21,2255.5555555555557
-0.27,0.22,2258.3333333333335
-0.28,0.22,2261.1111111111113
-0.26,0.24,2263.8888888888887
-0.25,0.24,2266.6666666666665
-0.25,0.215,2269.4444444444443
-0.255,0.195,2272.222222222222
-0.265,0.205,2275.0
-0.26,0.22,2277.777777777778
-0.24,0.23,2280.5555555555557
-0.22,0.24,2283.3333333333335
-0.21,0.21,2286.1111111111113
-0.23,0.2,2288.8888888888887
-0.235,0.215,2291.6666666666665
-0.245,0.225,2294.4444444444443
-0.22,0.24,2297.222222222222
-0.195,0.235,2300.0
-0.195,0.235,2302.777777777778
-0.195,0.215,2305.5555555555557
-0.19,0.22,2308.3333333333335
-0.185,0.225,2311.1111111111113
-0.195,0.23,2313.8888888888887
-0.175,0.25,2316.6666666666665
-0.17,0.255,2319.4444444444443
-0.16,0.23,2322.222222222222
-0.15,0.215,2325.0
-0.145,0.21,2327.777777777778
-0.155,0.195,2330.5555555555557
-0.15,0.18,2333.3333333333335
-0.185,0.17,2336.1111111111113
-0.22,0.15,2338.8888888888887
-0.245,0.14,2341.6666666666665
-0.245,0.16,2344.4444444444443
-0.23,0.16,2347.222222222222
-0.205,0.195,2350.0
-0.215,0.19,2352.777777777778
-0.23,0.165,2355.5555555555557
-0.235,0.145,2358.3333333333335
-0.245,0.15,2361.1111111111113
-0.24,0.175,2363.8888888888887
-0.215,0.2,2366.6666666666665
-0.25,0.165,2369.4444444444443
-0.3,0.145,2372.222222222222
-0.35,0.13,2375.0
-0.35,0.16,2377.777777777778
-0.32,0.175,2380.5555555555557
-0.3,0.185,2383.3333333333335
-0.29,0.18,2386.1111111111113
-0.3,0.17,2388.8888888888887
-0.305,0.16,2391.6666666666665
-0.305,0.17,2394.4444444444443
-0.29,0.185,2397.222222222222
-0.26,0.195,2400.0
-0.25,0.185,2402.777777777778
-0.27,0.17,2405.5555555555557
-0.295,0.16,2408.3333333333335
-0.28,0.17,2411.1111111111113
-0.285,0.18,2413.8888888888887
-0.275,0.2,2416.6666666666665
-0.28,0.19,2419.4444444444443
-0.285,0.165,2422.222222222222
-0.29,0.16,2425.0
-0.27,0.155,2427.777777777778
-0.275,0.165,2430.5555555555557
-0.28,0.175,2433.3333333333335
-0.285,0.165,2436.1111111111113
-0.3,0.145,2438.8888888888887
-0.295,0.13,2441.6666666666665
-0.275,0.155,2444.4444444444443
-0.265,0.16,2447.222222222222
-0.28,0.175,2450.0
-0.28,0.15,2452.777777777778
-0.295,0.16,2455.5555555555557
-0.285,0.135,2458.3333333333335
-0.265,0.165,2461.1111111111113
-0.25,0.165,2463.8888888888887
-0.25,0.185,2466.6666666666665
-0.255,0.185,2469.4444444444443
-0.29,0.165,2472.222222222222
-0.32,0.17,2475.0
-0.3,0.205,2477.777777777778
-0.255,0.235,2480.5555555555557
-0.195,0.215,2483.3333333333335
-0.11,0.165,2486.1111111111113
-0.01,0.11,2488.8888888888887
0.09,0.06,2491.6666666666665
0.2,0.03,2494.4444444444443
0.33,-0.01,2497.222222222222
0.44,-0.065,2500.0
0.51,-0.12,2502.777777777778
0.525,-0.175,2505.5555555555557
0.48,-0.205,2508.3333333333335
0.395,-0.19,2511.1111111111113
0.285,-0.15,2513.8888888888887
0.115,-0.145,2516.6666666666665
-0.13,-0.135,2519.4444444444443
-0.4,-0.11,2522.222222222222
-0.65,-0.085,2525.0
-0.825,-0.025,2527.777777777778
-0.9,0.025,2530.5555555555557
-0.835,0.065,2533.3333333333335
-0.725,0.105,2536.1111111111113
-0.63,0.125,2538.8888888888887
-0.585,0.14,2541.6666666666665
-0.52,0.15,2544.4444444444443
-0.435,0.15,2547.222222222222
-0.345,0.16,2550.0
-0.3,0.135,2552.777777777778
-0.285,0.125,2555.5555555555557
-0.275,0.105,2558.3333333333335
-0.265,0.14,2561.1111111111113
-0.265,0.15,2563.8888888888887
-0.255,0.16,2566.6666666666665
-0.245,0.155,2569.4444444444443
-0.25,0.145,2572.222222222222
-0.275,0.13,2575.0
-0.28,0.12,2577.777777777778
-0.245,0.16,2580.5555555555557
-0.22,0.165,2583.3333333333335
-0.215,0.16,2586.1111111111113
-0.215,0.145,2588.8888888888887
-0.2,0.135,2591.6666666666665
-0.21,0.145,2594.4444444444443
-0.205,0.145,2597.222222222222
-0.195,0.17,2600.0
-0.165,0.14,2602.777777777778
-0.17,0.155,2605.5555555555557
-0.175,0.125,2608.3333333333335
-0.165,0.125,2611.1111111111113
-0.14,0.125,2613.8888888888887
-0.11,0.14,2616.6666666666665
-0.105,0.12,2619.4444444444443
-0.1,0.13,2622.222222222222
-0.095,0.115,2625.0
-0.075,0.115,2627.777777777778
-0.075,0.125,2630.5555555555557
-0.045,0.135,2633.3333333333335
-0.025,0.125,2636.1111111111113
-0.005,0.11,2638.8888888888887
0.005,0.09,2641.6666666666665
0.005,0.09,2644.4444444444443
0.0,0.1,2647.222222222222
0.025,0.12,2650.0
0.03,0.11,2652.777777777778
0.035,0.09,2655.5555555555557
0.05,0.09,2658.3333333333335
0.07,0.095,2661.1111111111113
0.095,0.09,2663.8888888888887
0.12,0.085,2666.6666666666665
0.12,0.055,2669.4444444444443
0.115,0.025,2672.222222222222
0.1,0.04,2675.0
0.1,0.06,2677.777777777778
0.135,0.075,2680.5555555555557
0.165,0.095,2683.3333333333335
0.165,0.07,2686.1111111111113
0.175,0.05,2688.8888888888887
0.165,0.045,2691.6666666666665
0.175,0.045,2694.4444444444443
0.175,0.055,2697.222222222222
0.165,0.065,2700.0
0.16,0.05,2702.777777777778
0.175,0.04,2705.5555555555557
0.19,0.025,2708.3333333333335
0.18,0.05,2711.1111111111113
0.17,0.065,2713.8888888888887
0.135,0.11,2716.6666666666665
0.095,0.11,2719.4444444444443
0.035,0.095,2722.222222222222
-0.015,0.095,2725.0
-0.045,0.095,2727.777777777778
-0.045,0.12,2730.5555555555557
-0.01,0.135,2733.3333333333335
-0.02,0.125,2736.1111111111113
-0.065,0.1,2738.8888888888887
-0.125,0.065,2741.6666666666665
-0.15,0.1,2744.4444444444443
-0.15,0.14,2747.222222222222
-0.135,0.15,2750.0
-0.14,0.14,2752.777777777778
-0.17,0.105,2755.5555555555557
-0.215,0.085,2758.3333333333335
-0.225,0.105,2761.1111111111113
-0.23,0.135,2763.8888888888887
-0.215,0.135,2766.6666666666665
-0.215,0.125,2769.4444444444443
-0.235,0.115,2772.222222222222
-0.235,0.095,2775.0
-0.205,0.11,2777.777777777778
-0.215,0.115,2780.5555555555557
-0.245,0.11,2783.3333333333335
-0.26,0.095,2786.1111111111113
-0.29,0.1,2788.8888888888887
-0.295,0.105,2791.6666666666665
-0.275,0.115,2794.4444444444443
-0.245,0.12,2797.222222222222
-0.235,0.115,2800.0
-0.26,0.1,2802.777777777778
-0.265,0.1,2805.5555555555557
-0.26,0.12,2808.3333333333335
-0.25,0.135,2811.1111111111113
-0.255,0.155,2813.8888888888887
-0.265,0.115,2816.6666666666665
-0.265,0.085,2819.4444444444443
-0.28,0.06,2822.222222222222
-0.28,0.08,2825.0
-0.275,0.1,2827.777777777778
-0.255,0.14,2830.5555555555557
-0.25,0.13,2833.3333333333335
-0.25,0.115,2836.1111111111113
-0.275,0.1,2838.8888888888887
-0.26,0.085,2841.6666666666665
-0.25,0.105,2844.4444444444443
-0.225,0.11,2847.222222222222
-0.22,0.13,2850.0
-0.225,0.105,2852.777777777778
-0.215,0.095,2855.5555555555557
-0.2,0.105,2858.3333333333335
-0.21,0.12,2861.1111111111113
-0.205,0.135,2863.8888888888887
-0.185,0.125,2866.6666666666665
-0.18,0.12,2869.4444444444443
-0.175,0.105,2872.222222222222
-0.17,0.125,2875.0
-0.155,0.115,2877.777777777778
-0.145,0.11,2880.5555555555557
-0.15,0.105,2883.3333333333335
-0.18,0.095,2886.1111111111113
-0.205,0.08,2888.8888888888887
-0.21,0.075,2891.6666666666665
-0.2,0.09,2894.4444444444443
-0.215,0.075,2897.222222222222
-0.24,0.05,2900.0
-0.27,0.055,2902.777777777778
-0.27,0.045,2905.5555555555557
-0.26,0.055,2908.3333333333335
-0.235,0.075,2911.1111111111113
-0.2,0.1,2913.8888888888887
-0.195,0.085,2916.6666666666665
-0.205,0.085,2919.4444444444443
-0.225,0.075,2922.222222222222
-0.25,0.07,2925.0
-0.255,0.075,2927.777777777778
-0.23,0.08,2930.5555555555557
-0.235,0.09,2933.3333333333335
-0.255,0.065,2936.1111111111113
-0.295,0.06,2938.8888888888887
-0.305,0.065,2941.6666666666665
-0.3,0.095,2944.4444444444443
-0.285,0.09,2947.222222222222
-0.28,0.095,2950.0
-0.27,0.08,2952.777777777778
-0.29,0.075,2955.5555555555557
-0.285,0.075,2958.3333333333335
-0.285,0.085,2961.1111111111113
-0.275,0.095,2963.8888888888887
-0.28,0.1,2966.6666666666665
-0.27,0.1,2969.4444444444443
-0.265,0.095,2972.222222222222
-0.25,0.11,2975.0
-0.245,0.115,2977.777777777778
-0.245,0.135,2980.5555555555557
-0.25,0.11,2983.3333333333335
-0.275,0.075,2986.1111111111113
-0.3,0.055,2988.8888888888887
-0.31,0.06,2991.6666666666665
-0.3,0.055,2994.4444444444443
-0.28,0.07,2997.222222222222
-0.275,0.065,3000.0
-0.265,0.075,3002.777777777778
-0.28,0.055,3005.5555555555557
-0.285,0.075,3008.3333333333335
-0.26,0.09,3011.1111111111113
-0.245,0.08,3013.8888888888887
-0.275,0.09,3016.6666666666665
-0.29,0.085,3019.4444444444443
-0.305,0.105,3022.222222222222
-0.305,0.115,3025.0
-0.27,0.14,3027.777777777778
-0.205,0.145,3030.5555555555557
-0.11,0.105,3033.3333333333335
0.01,0.06,3036.1111111111113
0.11,0.01,3038.8888888888887
0.21,-0.03,3041.6666666666665
0.355,-0.055,3044.4444444444443
0.495,-0.115,3047.222222222222
0.59,-0.165,3050.0
0.63,-0.245,3052.777777777778
0.61,-0.28,3055.5555555555557
0.49,-0.285,3058.3333333333335
0.34,-0.255,3061.1111111111113
0.115,-0.225,3063.8888888888887
-0.205,-0.185,3066.6666666666665
-0.53,-0.14,3069.4444444444443
-0.79,-0.11,3072.222222222222
-0.88,-0.075,3075.0
-0.835,-0.03,3077.777777777778
-0.72,0.045,3080.5555555555557
-0.61,0.05,3083.3333333333335
-0.535,0.07,3086.1111111111113
-0.485,0.085,3088.8888888888887
-0.43,0.105,3091.6666666666665
-0.36,0.12,3094.4444444444443
-0.3,0.115,3097.222222222222
-0.285,0.085,3100.0
-0.275,0.05,3102.777777777778
-0.28,0.05,3105.5555555555557
-0.27,0.065,3108.3333333333335
-0.245,0.085,3111.1111111111113
-0.22,0.1,3113.8888888888887
-0.215,0.09,3116.6666666666665
-0.23,0.075,3119.4444444444443
-0.23,0.065,3122.222222222222
-0.235,0.08,3125.0
-0.215,0.105,3127.777777777778
-0.19,0.1,3130.5555555555557
-0.18,0.08,3133.3333333333335
-0.175,0.08,3136.1111111111113
-0.195,0.07,3138.8888888888887
-0.19,0.1,3141.6666666666665
-0.17,0.115,3144.4444444444443
-0.135,0.105,3147.222222222222
-0.13,0.1,3150.0
-0.15,0.075,3152.777777777778
-0.145,0.075,3155.5555555555557
-0.14,0.08,3158.3333333333335
-0.11,0.095,3161.1111111111113
-0.075,0.095,3163.8888888888887
-0.065,0.09,3166.6666666666665
-0.06,0.08,3169.4444444444443
-0.055,0.07,3172.222222222222
-0.04,0.075,3175.0
-0.025,0.08,3177.777777777778
0.015,0.1,3180.5555555555557
0.035,0.1,3183.3333333333335
0.03,0.08,3186.1111111111113
0.015,0.07,3188.8888888888887
0.05,0.07,3191.6666666666665
0.075,0.08,3194.4444444444443
0.09,0.07,3197.222222222222
0.105,0.055,3200.0
0.115,0.045,3202.777777777778
0.105,0.05,3205.5555555555557
0.13,0.055,3208.3333333333335
0.155,0.07,3211.1111111111113
0.175,0.09,3213.8888888888887
0.175,0.065,3216.6666666666665
0.165,0.035,3219.4444444444443
0.15,0.035,3222.222222222222
0.15,0.045,3225.0
0.18,0.075,3227.777777777778
0.195,0.08,3230.5555555555557
0.205,0.065,3233.3333333333335
0.205,0.045,3236.1111111111113
0.185,0.045,3238.8888888888887
0.185,0.065,3241.6666666666665
0.165,0.07,3244.4444444444443
0.175,0.09,3247.222222222222
0.175,0.075,3250.0
0.14,0.06,3252.777777777778
0.13,0.06,3255.5555555555557
0.12,0.085,3258.3333333333335
0.12,0.11,3261.1111111111113
0.11,0.115,3263.8888888888887
0.065,0.105,3266.6666666666665
0.015,0.11,3269.4444444444443
-0.005,0.105,3272.222222222222
-0.03,0.11,3275.0
-0.035,0.135,3277.777777777778
-0.05,0.14,3280.5555555555557
-0.055,0.13,3283.3333333333335
-0.1,0.115,3286.1111111111113
-0.135,0.11,3288.8888888888887
-0.15,0.145,3291.6666666666665
-0.135,0.165,3294.4444444444443
-0.12,0.17,3297.222222222222
-0.14,0.165,3300.0
-0.16,0.155,3302.777777777778
-0.18,0.12,3305.5555555555557
-0.185,0.11,3308.3333333333335
-0.175,0.14,3311.1111111111113
-0.175,0.145,3313.8888888888887
-0.18,0.135,3316.6666666666665
-0.2,0.13,3319.4444444444443
-0.215,0.125,3322.222222222222
-0.21,0.13,3325.0
-0.2,0.15,3327.777777777778
-0.19,0.145,3330.5555555555557
-0.195,0.14,3333.3333333333335
-0.215,0.125,3336.1111111111113
-0.23,0.12,3338.8888888888887
-0.245,0.135,3341.6666666666665
-0.245,0.165,3344.4444444444443
-0.22,0.155,3347.222222222222
-0.2,0.155,3350.0
-0.195,0.115,3352.777777777778
-0.195,0.12,3355.5555555555557
-0.215,0.145,3358.3333333333335
-0.24,0.16,3361.1111111111113
-0.235,0.16,3363.8888888888887
-0.23,0.155,3366.6666666666665
-0.225,0.15,3369.4444444444443
-0.22,0.145,3372.222222222222
-0.215,0.155,3375.0
-0.195,0.185,3377.777777777778
-0.185,0.175,3380.5555555555557
-0.2,0.185,3383.3333333333335
-0.185,0.16,3386.1111111111113
-0.2,0.16,3388.8888888888887
-0.205,0.165,3391.6666666666665
-0.185,0.195,3394.4444444444443
-0.15,0.19,3397.222222222222
-0.145,0.18,3400.0
-0.16,0.155,3402.777777777778
-0.16,0.155,3405.5555555555557
-0.155,0.165,3408.3333333333335
-0.145,0.175,3411.1111111111113
-0.125,0.18,3413.8888888888887
-0.13,0.16,3416.6666666666665
-0.16,0.125,3419.4444444444443
-0.175,0.125,3422.222222222222
-0.175,0.135,3425.0
-0.165,0.155,3427.777777777778
-0.17,0.16,3430.5555555555557
-0.175,0.135,3433.3333333333335
-0.19,0.115,3436.1111111111113
-0.205,0.1,3438.8888888888887
-0.225,0.11,3441.6666666666665
-0.22,0.12,3444.4444444444443
-0.215,0.145,3447.222222222222
-0.215,0.145,3450.0
-0.215,0.13,3452.777777777778
-0.205,0.14,3455.5555555555557
-0.22,0.145,3458.3333333333335
-0.225,0.16,3461.1111111111113
-0.225,0.16,3463.8888888888887
-0.24,0.155,3466.6666666666665
-0.245,0.135,3469.4444444444443
-0.255,0.14,3472.222222222222
-0.265,0.145,3475.0
-0.25,0.16,3477.777777777778
-0.23,0.165,3480.5555555555557
-0.235,0.155,3483.3333333333335
-0.25,0.16,3486.1111111111113
-0.26,0.14,3488.8888888888887
-0.25,0.16,3491.6666666666665
-0.25,0.17,3494.4444444444443
-0.235,0.18,3497.222222222222
-0.235,0.155,3500.0
-0.24,0.13,3502.777777777778
-0.25,0.135,3505.5555555555557
-0.255,0.155,3508.3333333333335
-0.24,0.165,3511.1111111111113
-0.24,0.18,3513.8888888888887
-0.235,0.18,3516.6666666666665
-0.245,0.155,3519.4444444444443
-0.25,0.145,3522.222222222222
-0.25,0.15,3525.0
-0.23,0.165,3527.777777777778
-0.225,0.155,3530.5555555555557
-0.23,0.155,3533.3333333333335
-0.23,0.15,3536.1111111111113
-0.24,0.145,3538.8888888888887
-0.25,0.155,3541.6666666666665
-0.23,0.16,3544.4444444444443
-0.205,0.165,3547.222222222222
-0.205,0.15,3550.0
-0.205,0.125,3552.777777777778
-0.24,0.14,3555.5555555555557
-0.26,0.155,3558.3333333333335
-0.28,0.18,3561.1111111111113
-0.265,0.18,3563.8888888888887
-0.265,0.185,3566.6666666666665
-0.265,0.18,3569.4444444444443
-0.23,0.19,3572.222222222222
-0.115,0.155,3575.0
0.035,0.16,3577.777777777778
0.185,0.125,3580.5555555555557
0.31,0.09,3583.3333333333335
0.41,0.045,3586.1111111111113
0.52,-0.02,3588.8888888888887
0.63,-0.08,3591.6666666666665
0.73,-0.125,3594.4444444444443
0.795,-0.18,3597.222222222222
0.75,-0.225,3600.0
0.625,-0.245,3602.777777777778
0.48,-0.245,3605.5555555555557
0.285,-0.24,3608.3333333333335
-0.01,-0.19,3611.1111111111113
-0.295,-0.15,3613.8888888888887
-0.56,-0.13,3616.6666666666665
-0.76,-0.115,3619.4444444444443
-0.84,-0.085,3622.222222222222
-0.825,-0.005,3625.0
-0.71,0.095,3627.777777777778
-0.615,0.145,3630.5555555555557
-0.545,0.145,3633.3333333333335
-0.48,0.135,3636.1111111111113
-0.42,0.135,3638.8888888888887
-0.36,0.155,3641.6666666666665
-0.31,0.16,3644.4444444444443
-0.27,0.155,3647.222222222222
-0.25,0.165,3650.0
-0.235,0.145,3652.777777777778
-0.255,0.135,3655.5555555555557
-0.245,0.15,3658.3333333333335
-0.235,0.165,3661.1111111111113
-0.2,0.17,3663.8888888888887
-0.195,0.17,3666.6666666666665
-0.2,0.165,3669.4444444444443
-0.215,0.145,3672.222222222222
-0.215,0.155,3675.0
-0.185,0.16,3677.777777777778
-0.17,0.155,3680.5555555555557
-0.165,0.155,3683.3333333333335
-0.185,0.14,3686.1111111111113
-0.23,0.135,3688.8888888888887
-0.205,0.165,3691.6666666666665
-0.19,0.17,3694.4444444444443
-0.155,0.16,3697.222222222222
-0.13,0.145,3700.0
-0.13,0.115,3702.777777777778
-0.115,0.105,3705.5555555555557
-0.11,0.13,3708.3333333333335
-0.1,0.155,3711.1111111111113
-0.09,0.16,3713.8888888888887
-0.065,0.135,3716.6666666666665
-0.06,0.115,3719.4444444444443
-0.05,0.1,3722.222222222222
-0.04,0.105,3725.0
-0.03,0.115,3727.777777777778
-0.01,0.14,3730.5555555555557
0.0,0.125,3733.3333333333335
0.03,0.11,3736.1111111111113
0.045,0.09,3738.8888888888887
0.055,0.1,3741.6666666666665
0.09,0.105,3744.4444444444443
0.09,0.115,3747.222222222222
0.08,0.105,3750.0
0.08,0.085,3752.777777777778
0.08,0.085,3755.5555555555557
0.095,0.1,3758.3333333333335
0.105,0.12,3761.1111111111113
0.14,0.115,3763.8888888888887
0.15,0.1,3766.6666666666665
0.175,0.05,3769.4444444444443
0.175,0.045,3772.222222222222
0.185,0.06,3775.0
0.195,0.075,3777.777777777778
0.22,0.1,3780.5555555555557
0.215,0.09,3783.3333333333335
0.21,0.08,3786.1111111111113
0.205,0.055,3788.8888888888887
0.195,0.06,3791.6666666666665
0.195,0.1,3794.4444444444443
0.195,0.1,3797.222222222222
0.175,0.095,3800.0
0.16,0.075,3802.777777777778
0.145,0.08,3805.5555555555557
0.095,0.095,3808.3333333333335
0.08,0.14,3811.1111111111113
0.06,0.17,3813.8888888888887
0.02,0.15,3816.6666666666665
0.005,0.115,3819.4444444444443
-0.005,0.08,3822.222222222222
-0.04,0.1,3825.0
-0.05,0.13,3827.777777777778
-0.065,0.16,3830.5555555555557
-0.11,0.145,3833.3333333333335
-0.13,0.135,3836.1111111111113
-0.165,0.13,3838.8888888888887
-0.175,0.135,3841.6666666666665
-0.185,0.145,3844.4444444444443
-0.18,0.135,3847.222222222222
-0.18,0.145,3850.0
-0.2,0.14,3852.777777777778
-0.23,0.13,3855.5555555555557
-0.25,0.135,3858.3333333333335
-0.265,0.16,3861.1111111111113
-0.24,0.16,3863.8888888888887
-0.235,0.145,3866.6666666666665
-0.25,0.13,3869.4444444444443
-0.265,0.1,3872.222222222222
-0.255,0.135,3875.0
-0.245,0.16,3877.777777777778
-0.235,0.155,3880.5555555555557
-0.245,0.14,3883.3333333333335
-0.26,0.125,3886.1111111111113
-0.27,0.115,3888.8888888888887
-0.275,0.14,3891.6666666666665
-0.27,0.165,3894.4444444444443
-0.265,0.155,3897.222222222222
-0.275,0.16,3900.0
-0.285,0.13,3902.777777777778
-0.29,0.13,3905.5555555555557
-0.27,0.14,3908.3333333333335
-0.245,0.15,3911.1111111111113
-0.225,0.155,3913.8888888888887
-0.235,0.165,3916.6666666666665
-0.26,0.145,3919.4444444444443
-0.275,0.155,3922.222222222222
-0.27,0.18,3925.0
-0.25,0.185,3927.777777777778
-0.23,0.185,3930.5555555555557
-0.22,0.165,3933.3333333333335
-0.22,0.15,3936.1111111111113
-0.215,0.16,3938.8888888888887
-0.19,0.165,3941.6666666666665
-0.155,0.175,3944.4444444444443
-0.145,0.18,3947.222222222222
-0.17,0.175,3950.0
-0.195,0.155,3952.777777777778
-0.205,0.145,3955.5555555555557
-0.21,0.16,3958.3333333333335
-0.215,0.15,3961.1111111111113
-0.215,0.13,3963.8888888888887
-0.22,0.12,3966.6666666666665
-0.235,0.1,3969.4444444444443
-0.25,0.095,3972.222222222222
-0.275,0.125,3975.0
-0.27,0.12,3977.777777777778
-0.26,0.135,3980.5555555555557
-0.265,0.12,3983.3333333333335
-0.265,0.115,3986.1111111111113
-0.28,0.13,3988.8888888888887
-0.29,0.145,3991.6666666666665
-0.29,0.145,3994.4444444444443
-0.295,0.14,3997.222222222222
-0.305,0.135,4000.0
-0.305,0.12,4002.777777777778
-0.32,0.11,4005.5555555555557
-0.32,0.115,4008.3333333333335
-0.285,0.135,4011.1111111111113
-0.27,0.145,4013.8888888888887
-0.295,0.145,4016.6666666666665
-0.32,0.125,4019.4444444444443
-0.36,0.125,4022.222222222222
-0.355,0.14,4025.0
-0.325,0.15,4027.777777777778
-0.29,0.155,4030.5555555555557
-0.29,0.135,4033.3333333333335
-0.315,0.13,4036.1111111111113
-0.33,0.11,4038.8888888888887
-0.335,0.135,4041.6666666666665
-0.315,0.125,4044.4444444444443
-0.285,0.155,4047.222222222222
-0.275,0.13,4050.0
-0.295,0.135,4052.777777777778
-0.3,0.12,4055.5555555555557
-0.315,0.135,4058.3333333333335
-0.305,0.15,4061.1111111111113
-0.285,0.155,4063.8888888888887
-0.285,0.135,4066.6666666666665
-0.3,0.115,4069.4444444444443
-0.295,0.115,4072.222222222222
-0.3,0.105,4075.0
-0.28,0.125,4077.777777777778
-0.265,0.115,4080.5555555555557
-0.295,0.11,4083.3333333333335
-0.32,0.115,4086.1111111111113
-0.345,0.14,4088.8888888888887
-0.335,0.155,4091.6666666666665
-0.275,0.18,4094.4444444444443
-0.18,0.16,4097.222222222223
-0.045,0.105,4100.0
0.095,0.04,4102.777777777777
0.235,0.0,4105.555555555556
0.37,-0.045,4108.333333333333
0.515,-0.085,4111.111111111111
0.63,-0.135,4113.888888888889
0.69,-0.205,4116.666666666667
0.685,-0.29,4119.444444444444
0.56,-0.325,4122.222222222223
0.42,-0.32,4125.0
0.23,-0.29,4127.777777777777
-0.04,-0.24,4130.555555555556
-0.38,-0.21,4133.333333333333
-0.68,-0.175,4136.111111111111
-0.895,-0.145,4138.888888888889
-0.94,-0.065,4141.666666666667
-0.84,0.045,4144.444444444444
-0.685,0.1,4147.222222222223
-0.585,0.135,4150.0
-0.525,0.13,4152.777777777777
-0.48,0.12,4155.555555555556
-0.425,0.13,4158.333333333333
-0.345,0.145,4161.111111111111
-0.285,0.15,4163.888888888889
-0.27,0.135,4166.666666666667
-0.29,0.12,4169.444444444444
-0.305,0.1,4172.222222222223
-0.31,0.105,4175.0
-0.29,0.14,4177.777777777777
-0.255,0.145,4180.555555555556
-0.245,0.11,4183.333333333333
-0.23,0.085,4186.111111111111
-0.22,0.085,4188.888888888889
-0.205,0.1,4191.666666666667
-0.195,0.13,4194.444444444444
-0.205,0.14,4197.222222222223
-0.225,0.12,4200.0
-0.225,0.115,4202.777777777777
-0.225,0.115,4205.555555555556
-0.225,0.1,4208.333333333333
-0.205,0.12,4211.111111111111
-0.17,0.13,4213.888888888889
-0.16,0.11,4216.666666666667
-0.13,0.095,4219.444444444444
-0.115,0.085,4222.222222222223
-0.115,0.08,4225.0
-0.11,0.09,4227.777777777777
-0.1,0.11,4230.555555555556
-0.095,0.1,4233.333333333333
-0.095,0.095,4236.111111111111
-0.075,0.08,4238.888888888889
-0.055,0.055,4241.666666666667
-0.03,0.07,4244.444444444444
-0.02,0.075,4247.222222222223
0.0,0.07,4250.0
0.0,0.065,4252.777777777777
0.01,0.06,4255.555555555556
0.04,0.07,4258.333333333333
0.08,0.055,4261.111111111111
0.1,0.06,4263.888888888889
0.095,0.04,4266.666666666667
0.12,0.04,4269.444444444444
0.12,0.03,4272.222222222223
0.15,0.04,4275.0
0.165,0.055,4277.777777777777
0.18,0.055,4280.555555555556
0.17,0.04,4283.333333333333
0.155,0.025,4286.111111111111
0.125,0.02,4288.888888888889
0.13,0.015,4291.666666666667
0.135,0.045,4294.444444444444
0.145,0.06,4297.222222222223
0.155,0.035,4300.0
0.15,0.015,4302.777777777777
0.135,0.015,4305.555555555556
0.095,0.045,4308.333333333333
0.095,0.08,4311.111111111111
0.1,0.09,4313.888888888889
0.065,0.08,4316.666666666667
0.03,0.06,4319.444444444444
0.0,0.04,4322.222222222223
-0.005,0.06,4325.0
-0.01,0.085,4327.777777777777
-0.025,0.08,4330.555555555556
-0.055,0.095,4333.333333333333
-0.07,0.075,4336.111111111111
-0.09,0.08,4338.888888888889
-0.11,0.09,4341.666666666667
-0.125,0.105,4344.444444444444
-0.145,0.1,4347.222222222223
-0.17,0.105,4350.0
-0.195,0.095,4352.777777777777
-0.225,0.09,4355.555555555556
-0.225,0.1,4358.333333333333
-0.25,0.115,4361.111111111111
-0.235,0.135,4363.888888888889
-0.23,0.11,4366.666666666667
-0.2,0.09,4369.444444444444
-0.21,0.08,4372.222222222223
-0.24,0.095,4375.0
-0.28,0.1,4377.777777777777
-0.27,0.105,4380.555555555556
-0.24,0.105,4383.333333333333
-0.22,0.09,4386.111111111111
-0.22,0.07,4388.888888888889
-0.23,0.1,4391.666666666667
-0.27,0.13,4394.444444444444
-0.305,0.165,4397.222222222223
-0.33,0.185,4400.0
-0.335,0.165,4402.777777777777
-0.32,0.13,4405.555555555556
-0.3,0.09,4408.333333333333
-0.28,0.095,4411.111111111111
-0.3,0.085,4413.888888888889
-0.315,0.07,4416.666666666667
-0.325,0.07,4419.444444444444
-0.335,0.065,4422.222222222223
-0.315,0.085,4425.0
-0.28,0.105,4427.777777777777
-0.26,0.12,4430.555555555556
-0.25,0.12,4433.333333333333
-0.26,0.1,4436.111111111111
-0.27,0.115,4438.888888888889
-0.275,0.12,4441.666666666667
-0.245,0.13,4444.444444444444
-0.23,0.13,4447.222222222223
-0.225,0.12,4450.0
-0.205,0.1,4452.777777777777
-0.2,0.11,4455.555555555556
-0.195,0.12,4458.333333333333
-0.18,0.13,4461.111111111111
-0.185,0.135,4463.888888888889
-0.21,0.105,4466.666666666667
-0.23,0.09,4469.444444444444
-0.255,0.07,4472.222222222223
-0.25,0.08,4475.0
-0.235,0.105,4477.777777777777
-0.22,0.105,4480.555555555556
-0.24,0.1,4483.333333333333
-0.285,0.095,4486.111111111111
-0.315,0.08,4488.888888888889
-0.33,0.1,4491.666666666667
-0.325,0.105,4494.444444444444
-0.305,0.095,4497.222222222223
-0.31,0.095,4500.0
-0.315,0.075,4502.777777777777
-0.305,0.08,4505.555555555556
-0.32,0.085,4508.333333333333
-0.33,0.105,4511.111111111111
-0.325,0.12,4513.888888888889
-0.325,0.1,4516.666666666667
-0.335,0.1,4519.444444444444
-0.335,0.095,4522.222222222223
-0.33,0.075,4525.0
-0.32,0.095,4527.777777777777
-0.305,0.105,4530.555555555556
-0.305,0.09,4533.333333333333
-0.31,0.075,4536.111111111111
-0.33,0.09,4538.888888888889
-0.33,0.085,4541.666666666667
-0.31,0.095,4544.444444444444
-0.3,0.09,4547.222222222223
-0.325,0.095,4550.0
-0.335,0.105,4552.777777777777
-0.335,0.11,4555.555555555556
-0.345,0.105,4558.333333333333
-0.345,0.12,4561.111111111111
-0.345,0.13,4563.888888888889
-0.345,0.115,4566.666666666667
-0.345,0.11,4569.444444444444
-0.35,0.11,4572.222222222223
-0.35,0.11,4575.0
-0.345,0.115,4577.777777777777
-0.315,0.11,4580.555555555556
-0.32,0.105,4583.333333333333
-0.32,0.095,4586.111111111111
-0.33,0.095,4588.888888888889
-0.315,0.12,4591.666666666667
-0.3,0.11,4594.444444444444
-0.275,0.115,4597.222222222223
-0.29,0.11,4600.0
-0.32,0.095,4602.777777777777
-0.345,0.11,4605.555555555556
-0.375,0.14,4608.333333333333
-0.37,0.165,4611.111111111111
-0.325,0.17,4613.888888888889
-0.245,0.17,4616.666666666667
-0.13,0.095,4619.444444444444
-0.015,0.04,4622.222222222223
0.12,0.0,4625.0
0.295,-0.045,4627.777777777777
0.46,-0.095,4630.555555555556
0.565,-0.165,4633.333333333333
0.625,-0.235,4636.111111111111
0.63,-0.305,4638.888888888889
0.54,-0.34,4641.666666666667
0.395,-0.31,4644.444444444444
0.205,-0.29,4647.222222222223
-0.07,-0.255,4650.0
-0.43,-0.205,4652.777777777777
-0.725,-0.175,4655.555555555556
-0.915,-0.125,4658.333333333333
-0.97,-0.065,4661.111111111111
-0.89,0.02,4663.888888888889
-0.76,0.06,4666.666666666667
-0.68,0.09,4669.444444444444
-0.615,0.105,4672.222222222223
-0.54,0.12,4675.0
-0.455,0.135,4677.777777777777
-0.37,0.13,4680.555555555556
-0.34,0.105,4683.333333333333
-0.335,0.075,4686.111111111111
-0.34,0.08,4688.888888888889
-0.34,0.095,4691.666666666667
-0.315,0.12,4694.444444444444
-0.285,0.13,4697.222222222223
-0.285,0.135,4700.0
-0.285,0.12,4702.777777777777
-0.28,0.115,4705.555555555556
-0.275,0.135,4708.333333333333
-0.245,0.125,4711.111111111111
-0.24,0.12,4713.888888888889
-0.24,0.1,4716.666666666667
-0.24,0.07,4719.444444444444
-0.245,0.075,4722.222222222223
-0.23,0.085,4725.0
-0.215,0.1,4727.777777777777
-0.19,0.085,4730.555555555556
-0.195,0.105,4733.333333333333
-0.19,0.095,4736.111111111111
-0.2,0.105,4738.888888888889
-0.185,0.1,4741.666666666667
-0.165,0.11,4744.444444444444
-0.135,0.095,4747.222222222223
-0.115,0.09,4750.0
-0.1,0.055,4752.777777777777
-0.12,0.075,4755.555555555556
-0.125,0.08,4758.333333333333
-0.1,0.1,4761.111111111111
-0.06,0.085,4763.888888888889
-0.055,0.055,4766.666666666667
-0.04,0.035,4769.444444444444
-0.03,0.055,4772.222222222223
-0.02,0.06,4775.0
0.025,0.05,4777.777777777777
0.065,0.045,4780.555555555556
0.09,0.045,4783.333333333333
0.07,0.045,4786.111111111111
0.07,0.025,4788.888888888889
0.08,0.03,4791.666666666667
0.105,0.035,4794.444444444444
0.135,0.025,4797.222222222223
0.145,0.03,4800.0
0.115,0.015,4802.777777777777
0.12,0.025,4805.555555555556
0.115,0.045,4808.333333333333
0.12,0.05,4811.111111111111
0.145,0.055,4813.888888888889
0.15,0.035,4816.666666666667
0.145,0.02,4819.444444444444
0.12,0.035,4822.222222222223
0.115,0.055,4825.0
0.125,0.065,4827.777777777777
0.125,0.075,4830.555555555556
0.115,0.065,4833.333333333333
0.075,0.055,4836.111111111111
0.05,0.035,4838.888888888889
0.025,0.045,4841.666666666667
0.01,0.07,4844.444444444444
0.01,0.09,4847.222222222223
-0.01,0.085,4850.0
-0.04,0.075,4852.777777777777
-0.075,0.07,4855.555555555556
-0.1,0.1,4858.333333333333
-0.13,0.13,4861.111111111111
-0.155,0.12,4863.888888888889
-0.165,0.08,4866.666666666667
-0.185,0.08,4869.444444444444
-0.205,0.11,4872.222222222223
-0.215,0.125,4875.0
-0.225,0.12,4877.777777777777
-0.23,0.115,4880.555555555556
-0.225,0.11,4883.333333333333
-0.245,0.115,4886.111111111111
-0.28,0.125,4888.888888888889
-0.285,0.12,4891.666666666667
-0.275,0.125,4894.444444444444
-0.25,0.115,4897.222222222223
-0.25,0.12,4900.0
-0.26,0.095,4902.777777777777
-0.295,0.11,4905.555555555556
-0.29,0.12,4908.333333333333
-0.28,0.135,4911.111111111111
-0.275,0.145,4913.888888888889
-0.27,0.14,4916.666666666667
-0.285,0.1,4919.444444444444
-0.3,0.09,4922.222222222223
-0.295,0.1,4925.0
-0.28,0.11,4927.777777777777
-0.26,0.13,4930.555555555556
-0.26,0.115,4933.333333333333
-0.265,0.1,4936.111111111111
-0.27,0.1,4938.888888888889
-0.265,0.12,4941.666666666667
-0.25,0.145,4944.444444444444
-0.25,0.14,4947.222222222223
-0.26,0.125,4950.0
-0.305,0.11,4952.777777777777
-0.325,0.135,4955.555555555556
-0.315,0.155,4958.333333333333
-0.27,0.18,4961.111111111111
-0.23,0.17,4963.888888888889
-0.23,0.155,4966.666666666667
-0.23,0.155,4969.444444444444
-0.21,0.135,4972.222222222223
-0.21,0.14,4975.0
-0.185,0.155,4977.777777777777
-0.15,0.15,4980.555555555556
-0.15,0.125,4983.333333333333
-0.17,0.105,4986.111111111111
-0.205,0.11,4988.888888888889
-0.24,0.12,4991.666666666667
-0.255,0.125,4994.444444444444
-0.24,0.115,4997.222222222223
-0.25,0.095,5000.0
-0.265,0.095,5002.777777777777
-0.32,0.115,5005.555555555556
-0.34,0.13,5008.333333333333
-0.33,0.14,5011.111111111111
-0.31,0.135,5013.888888888889
-0.3,0.125,5016.666666666667
-0.29,0.085,5019.444444444444
-0.295,0.095,5022.222222222223
-0.315,0.11,5025.0
-0.315,0.135,5027.777777777777
-0.335,0.125,5030.555555555556
-0.315,0.135,5033.333333333333
-0.335,0.14,5036.111111111111
-0.34,0.13,5038.888888888889
-0.35,0.13,5041.666666666667
-0.355,0.135,5044.444444444444
-0.35,0.14,5047.222222222223
-0.34,0.125,5050.0
-0.355,0.1,5052.777777777777
-0.375,0.125,5055.555555555556
-0.345,0.12,5058.333333333333
-0.34,0.12,5061.111111111111
-0.325,0.11,5063.888888888889
-0.33,0.105,5066.666666666667
-0.33,0.08,5069.444444444444
-0.355,0.085,5072.222222222223
-0.36,0.095,5075.0
-0.345,0.12,5077.777777777777
-0.33,0.115,5080.555555555556
-0.325,0.12,5083.333333333333
-0.325,0.1,5086.111111111111
-0.325,0.11,5088.888888888889
-0.31,0.105,5091.666666666667
-0.31,0.115,5094.444444444444
-0.305,0.135,5097.222222222223
-0.31,0.115,5100.0
-0.325,0.105,5102.777777777777
-0.355,0.12,5105.555555555556
-0.365,0.13,5108.333333333333
-0.355,0.145,5111.111111111111
-0.33,0.13,5113.888888888889
-0.32,0.11,5116.666666666667
-0.335,0.1,5119.444444444444
-0.36,0.135,5122.222222222223
-0.375,0.15,5125.0
-0.37,0.185,5127.777777777777
-0.305,0.185,5130.555555555556
-0.23,0.16,5133.333333333333
-0.135,0.1,5136.111111111111
-0.03,0.045,5138.888888888889
0.095,-0.015,5141.666666666667
0.23,-0.04,5144.444444444444
0.36,-0.1,5147.222222222223
0.425,-0.16,5150.0
0.49,-0.205,5152.777777777777
0.52,-0.255,5155.555555555556
0.465,-0.255,5158.333333333333
0.37,-0.24,5161.111111111111
0.19,-0.21,5163.888888888889
-0.115,-0.195,5166.666666666667
-0.47,-0.15,5169.444444444444
-0.775,-0.13,5172.222222222223
-0.96,-0.08,5175.0
-0.98,-0.005,5177.777777777777
-0.89,0.07,5180.555555555556
-0.775,0.125,5183.333333333333
-0.665,0.105,5186.111111111111
-0.565,0.105,5188.888888888889
-0.45,0.115,5191.666666666667
-0.39,0.115,5194.444444444444
-0.37,0.12,5197.222222222223
-0.36,0.09,5200.0
-0.365,0.085,5202.777777777777
-0.345,0.07,5205.555555555556
-0.33,0.08,5208.333333333333
-0.32,0.125,5211.111111111111
-0.305,0.135,5213.888888888889
-0.29,0.115,5216.666666666667
-0.295,0.08,5219.444444444444
-0.295,0.065,5222.222222222223
-0.29,0.1,5225.0
-0.285,0.115,5227.777777777777
-0.26,0.105,5230.555555555556
-0.255,0.105,5233.333333333333
-0.25,0.1,5236.111111111111
-0.26,0.095,5238.888888888889
-0.26,0.105,5241.666666666667
-0.235,0.11,5244.444444444444
-0.21,0.105,5247.222222222223
-0.21,0.095,5250.0
-0.215,0.085,5252.777777777777
-0.225,0.07,5255.555555555556
-0.205,0.07,5258.333333333333
-0.17,0.085,5261.111111111111
-0.135,0.075,5263.888888888889
-0.115,0.06,5266.666666666667
-0.12,0.045,5269.444444444444
-0.12,0.045,5272.222222222223
-0.12,0.065,5275.0
-0.09,0.085,5277.777777777777
-0.055,0.06,5280.555555555556
-0.04,0.04,5283.333333333333
-0.035,0.035,5286.111111111111
-0.05,0.035,5288.888888888889
-0.045,0.085,5291.666666666667
-0.025,0.09,5294.444444444444
0.015,0.09,5297.222222222223
0.045,0.07,5300.0
0.05,0.07,5302.777777777777
0.05,0.035,5305.555555555556
0.065,0.025,5308.333333333333
0.09,0.03,5311.111111111111
0.13,0.03,5313.888888888889
0.135,0.01,5316.666666666667
0.115,0.02,5319.444444444444
0.085,0.005,5322.222222222223
0.085,0.03,5325.0
0.105,0.035,5327.777777777777
0.115,0.035,5330.555555555556
0.115,0.01,5333.333333333333
0.095,0.005,5336.111111111111
0.07,-0.005,5338.888888888889
0.055,0.025,5341.666666666667
0.07,0.03,5344.444444444444
0.08,0.035,5347.222222222223
0.075,0.04,5350.0
0.05,0.035,5352.777777777777
0.025,0.035,5355.555555555556
0.025,0.06,5358.333333333333
0.015,0.09,5361.111111111111
0.01,0.085,5363.888888888889
-0.015,0.08,5366.666666666667
-0.05,0.07,5369.444444444444
-0.08,0.07,5372.222222222223
-0.075,0.06,5375.0
-0.07,0.06,5377.777777777777
-0.105,0.075,5380.555555555556
-0.195,0.085,5383.333333333333
-0.295,0.105,5386.111111111111
-0.315,0.105,5388.888888888889
-0.29,0.125,5391.666666666667
-0.275,0.12,5394.444444444444
-0.265,0.14,5397.222222222223
-0.27,0.135,5400.0
-0.27,0.12,5402.777777777777
-0.285,0.105,5405.555555555556
-0.295,0.1,5408.333333333333
-0.305,0.11,5411.111111111111
-0.3,0.115,5413.888888888889
-0.3,0.12,5416.666666666667
-0.315,0.115,5419.444444444444
-0.32,0.11,5422.222222222223
-0.32,0.13,5425.0
-0.315,0.135,5427.777777777777
-0.28,0.15,5430.555555555556
-0.265,0.14,5433.333333333333
-0.25,0.11,5436.111111111111
-0.28,0.075,5438.888888888889
-0.325,0.075,5441.666666666667
-0.345,0.11,5444.444444444444
-0.34,0.125,5447.222222222223
-0.345,0.135,5450.0
-0.34,0.115,5452.777777777777
-0.355,0.105,5455.555555555556
-0.335,0.115,5458.333333333333
-0.305,0.115,5461.111111111111
-0.29,0.13,5463.888888888889
-0.295,0.115,5466.666666666667
-0.295,0.12,5469.444444444444
-0.295,0.135,5472.222222222223
-0.28,0.15,5475.0
-0.26,0.165,5477.777777777777
-0.265,0.16,5480.555555555556
-0.285,0.15,5483.333333333333
-0.295,0.145,5486.111111111111
-0.3,0.14,5488.888888888889
-0.28,0.145,5491.666666666667
-0.24,0.165,5494.444444444444
-0.215,0.17,5497.222222222223
-0.225,0.155,5500.0
-0.22,0.135,5502.777777777777
-0.235,0.11,5505.555555555556
-0.235,0.12,5508.333333333333
-0.235,0.1,5511.111111111111
-0.24,0.095,5513.888888888889
-0.255,0.085,5516.666666666667
-0.265,0.065,5519.444444444444
-0.295,0.07,5522.222222222223
-0.3,0.06,5525.0
-0.3,0.07,5527.777777777777
-0.29,0.08,5530.555555555556
-0.275,0.085,5533.333333333333
-0.28,0.07,5536.111111111111
-0.275,0.07,5538.888888888889
-0.285,0.09,5541.666666666667
-0.305,0.11,5544.444444444444
-0.32,0.14,5547.222222222223
-0.33,0.125,5550.0
-0.345,0.09,5552.777777777777
-0.34,0.07,5555.555555555556
-0.35,0.08,5558.333333333333
-0.34,0.12,5561.111111111111
-0.325,0.125,5563.888888888889
-0.325,0.105,5566.666666666667
-0.34,0.075,5569.444444444444
-0.345,0.075,5572.222222222223
-0.335,0.085,5575.0
-0.315,0.11,5577.777777777777
-0.305,0.11,5580.555555555556
-0.305,0.095,5583.333333333333
-0.325,0.1,5586.111111111111
-0.355,0.09,5588.888888888889
-0.335,0.1,5591.666666666667
-0.32,0.11,5594.444444444444
-0.295,0.09,5597.222222222223
-0.295,0.11,5600.0
-0.335,0.095,5602.777777777777
-0.365,0.08,5605.555555555556
-0.37,0.105,5608.333333333333
-0.35,0.145,5611.111111111111
-0.335,0.14,5613.888888888889
-0.335,0.115,5616.666666666667
-0.32,0.08,5619.444444444444
-0.355,0.06,5622.222222222223
-0.355,0.09,5625.0
-0.34,0.1,5627.777777777777
-0.325,0.11,5630.555555555556
-0.335,0.09,5633.333333333333
-0.345,0.08,5636.111111111111
-0.34,0.08,5638.888888888889
-0.33,0.105,5641.666666666667
-0.335,0.1,5644.444444444444
-0.345,0.12,5647.222222222223
-0.355,0.115,5650.0
-0.345,0.11,5652.777777777777
-0.26,0.105,5655.555555555556
-0.135,0.08,5658.333333333333
0.005,0.05,5661.111111111111
0.18,-0.025,5663.888888888889
0.325,-0.09,5666.666666666667
0.47,-0.19,5669.444444444444
0.54,-0.22,5672.222222222223
0.55,-0.255,5675.0
0.46,-0.26,5677.777777777777
0.34,-0.255,5680.555555555556
0.145,-0.24,5683.333333333333
-0.13,-0.23,5686.111111111111
-0.445,-0.18,5688.888888888889
-0.74,-0.125,5691.666666666667
-0.92,-0.07,5694.444444444444
-0.95,-0.035,5697.222222222223
-0.865,0.015,5700.0
-0.755,0.065,5702.777777777777
-0.675,0.085,5705.555555555556
-0.595,0.1,5708.333333333333
-0.515,0.1,5711.111111111111
-0.435,0.105,5713.888888888889
-0.415,0.11,5716.666666666667
-0.4,0.105,5719.444444444444
-0.385,0.095,5722.222222222223
-0.365,0.09,5725.0
-0.355,0.105,5727.777777777777
-0.315,0.105,5730.555555555556
-0.31,0.095,5733.333333333333
-0.305,0.075,5736.111111111111
-0.305,0.065,5738.888888888889
-0.3,0.1,5741.666666666667
-0.29,0.115,5744.444444444444
-0.275,0.125,5747.222222222223
-0.26,0.105,5750.0
-0.26,0.065,5752.777777777777
-0.255,0.07,5755.555555555556
-0.255,0.075,5758.333333333333
-0.225,0.075,5761.111111111111
-0.21,0.07,5763.888888888889
-0.225,0.06,5766.666666666667
-0.245,0.05,5769.444444444444
-0.25,0.05,5772.222222222223
-0.235,0.095,5775.0
-0.225,0.09,5777.777777777777
-0.195,0.095,5780.555555555556
-0.19,0.075,5783.333333333333
-0.185,0.065,5786.111111111111
-0.17,0.075,5788.888888888889
-0.15,0.08,5791.666666666667
-0.125,0.1,5794.444444444444
-0.1,0.08,5797.222222222223
-0.08,0.045,5800.0
-0.065,0.045,5802.777777777777
-0.06,0.045,5805.555555555556
-0.035,0.055,5808.333333333333
0.0,0.055,5811.111111111111
0.03,0.05,5813.888888888889
0.05,0.02,5816.666666666667
0.065,0.025,5819.444444444444
0.07,0.015,5822.222222222223
0.085,0.02,5825.0
0.115,0.04,5827.777777777777
0.135,0.015,5830.555555555556
0.13,-0.01,5833.333333333333
0.11,-0.015,5836.111111111111
0.08,0.0,5838.888888888889
0.06,0.005,5841.666666666667
0.075,0.05,5844.444444444444
0.09,0.045,5847.222222222223
0.09,0.04,5850.0
0.095,0.04,5852.777777777777
0.085,0.055,5855.555555555556
0.07,0.085,5858.333333333333
0.08,0.085,5861.111111111111
0.07,0.04,5863.888888888889
0.06,0.005,5866.666666666667
0.03,0.015,5869.444444444444
-0.01,0.03,5872.222222222223
-0.035,0.04,5875.0
-0.04,0.065,5877.777777777777
-0.045,0.075,5880.555555555556
-0.075,0.09,5883.333333333333
-0.115,0.065,5886.111111111111
-0.16,0.07,5888.888888888889
-0.185,0.075,5891.666666666667
-0.185,0.09,5894.444444444444
-0.195,0.1,5897.222222222223
-0.2,0.085,5900.0
-0.205,0.075,5902.777777777777
-0.215,0.05,5905.555555555556
-0.24,0.07,5908.333333333333
-0.24,0.09,5911.111111111111
-0.24,0.095,5913.888888888889
-0.255,0.09,5916.666666666667
-0.27,0.075,5919.444444444444
-0.29,0.08,5922.222222222223
-0.275,0.09,5925.0
-0.28,0.115,5927.777777777777
-0.275,0.13,5930.555555555556
-0.28,0.12,5933.333333333333
-0.28,0.09,5936.111111111111
-0.31,0.075,5938.888888888889
-0.35,0.115,5941.666666666667
-0.365,0.12,5944.444444444444
-0.33,0.115,5947.222222222223
-0.31,0.08,5950.0
-0.31,0.055,5952.777777777777
-0.335,0.06,5955.555555555556
-0.325,0.095,5958.333333333333
-0.325,0.12,5961.111111111111
-0.32,0.115,5963.888888888889
-0.33,0.085,5966.666666666667
-0.345,0.085,5969.444444444444
-0.35,0.095,5972.222222222223
-0.325,0.105,5975.0
-0.3,0.12,5977.777777777777
-0.27,0.12,5980.555555555556
-0.275,0.13,5983.333333333333
-0.285,0.135,5986.111111111111
-0.31,0.105,5988.888888888889
-0.275,0.115,5991.666666666667
-0.245,0.145,5994.444444444444
-0.235,0.13,5997.222222222223
-0.235,0.125,6000.0
-0.23,0.08,6002.777777777777
-0.21,0.075,6005.555555555556
-0.2,0.09,6008.333333333333
-0.215,0.09,6011.111111111111
-0.24,0.085,6013.888888888889
-0.285,0.075,6016.666666666667
-0.295,0.055,6019.444444444444
-0.29,0.04,6022.222222222223
-0.28,0.055,6025.0
-0.27,0.065,6027.777777777777
-0.25,0.075,6030.555555555556
-0.27,0.065,6033.333333333333
-0.305,0.055,6036.111111111111
-0.255,0.08,6038.888888888889
-0.235,0.095,6041.666666666667
-0.235,0.095,6044.444444444444
-0.3,0.1,6047.222222222223
-0.365,0.055,6050.0
-0.395,0.045,6052.777777777777
-0.415,0.075,6055.555555555556
-0.435,0.095,6058.333333333333
-0.425,0.115,6061.111111111111
-0.385,0.125,6063.888888888889
-0.365,0.1,6066.666666666667
-0.37,0.07,6069.444444444444
-0.385,0.08,6072.222222222223
-0.37,0.11,6075.0
-0.35,0.11,6077.777777777777
-0.34,0.07,6080.555555555556
-0.325,0.05,6083.333333333333
-0.32,0.03,6086.111111111111
-0.32,0.045,6088.888888888889
-0.31,0.06,6091.666666666667
-0.295,0.085,6094.444444444444
-0.29,0.105,6097.222222222223
-0.325,0.095,6100.0
-0.36,0.095,6102.777777777777
-0.365,0.075,6105.555555555556
-0.345,0.08,6108.333333333333
-0.36,0.105,6111.111111111111
-0.365,0.135,6113.888888888889
-0.38,0.145,6116.666666666667
-0.39,0.115,6119.444444444444
-0.39,0.07,6122.222222222223
-0.385,0.06,6125.0
-0.355,0.065,6127.777777777777
-0.345,0.1,6130.555555555556
-0.365,0.11,6133.333333333333
-0.39,0.075,6136.111111111111
-0.38,0.06,6138.888888888889
-0.375,0.055,6141.666666666667
-0.38,0.08,6144.444444444444
-0.36,0.115,6147.222222222223
-0.34,0.13,6150.0
-0.29,0.08,6152.777777777777
-0.17,0.02,6155.555555555556
-0.02,-0.025,6158.333333333333
0.145,-0.06,6161.111111111111
0.31,-0.08,6163.888888888889
0.455,-0.14,6166.666666666667
0.565,-0.21,6169.444444444444
0.635,-0.295,6172.222222222223
0.645,-0.335,6175.0
0.565,-0.35,6177.777777777777
0.41,-0.345,6180.555555555556
0.2,-0.345,6183.333333333333
-0.1,-0.335,6186.111111111111
-0.445,-0.28,6188.888888888889
-0.77,-0.215,6191.666666666667
-0.96,-0.14,6194.444444444444
-0.945,-0.055,6197.222222222223
-0.83,0.02,6200.0
-0.705,0.075,6202.777777777777
-0.605,0.1,6205.555555555556
-0.505,0.115,6208.333333333333
-0.435,0.1,6211.111111111111
-0.395,0.065,6213.888888888889
-0.36,0.02,6216.666666666667
-0.365,0.02,6219.444444444444
-0.35,0.035,6222.222222222223
-0.325,0.045,6225.0
-0.29,0.07,6227.777777777777
-0.31,0.08,6230.555555555556
-0.34,0.09,6233.333333333333
-0.365,0.08,6236.111111111111
-0.36,0.085,6238.888888888889
-0.345,0.09,6241.666666666667
-0.34,0.08,6244.444444444444
-0.325,0.08,6247.222222222223
-0.31,0.06,6250.0
-0.28,0.015,6252.777777777777
-0.26,-0.02,6255.555555555556
-0.255,0.0,6258.333333333333
-0.265,0.015,6261.111111111111
-0.255,0.035,6263.888888888889
-0.28,0.025,6266.666666666667
-0.29,0.03,6269.444444444444
-0.275,0.05,6272.222222222223
-0.245,0.085,6275.0
-0.245,0.06,6277.777777777777
-0.22,0.045,6280.555555555556
-0.2,0.02,6283.333333333333
-0.16,0.02,6286.111111111111
-0.13,0.02,6288.888888888889
-0.12,0.015,6291.666666666667
-0.11,0.03,6294.444444444444
-0.085,0.04,6297.222222222223
-0.07,0.03,6300.0
-0.05,-0.01,6302.777777777777
-0.065,-0.02,6305.555555555556
-0.045,0.0,6308.333333333333
-0.03,0.035,6311.111111111111
0.02,0.035,6313.888888888889
0.04,0.025,6316.666666666667
0.035,-0.01,6319.444444444444
0.025,-0.04,6322.222222222223
0.055,-0.035,6325.0
0.08,0.015,6327.777777777777
0.085,0.015,6330.555555555556
0.055,-0.01,6333.333333333333
0.0,-0.03,6336.111111111111
-0.005,-0.03,6338.888888888889
0.03,0.01,6341.666666666667
0.05,0.05,6344.444444444444
0.05,0.03,6347.222222222223
0.075,-0.015,6350.0
0.09,-0.045,6352.777777777777
0.06,-0.03,6355.555555555556
0.025,0.0,6358.333333333333
0.015,0.035,6361.111111111111
0.03,0.045,6363.888888888889
0.01,0.01,6366.666666666667
-0.03,0.005,6369.444444444444
-0.095,0.01,6372.222222222223
-0.11,0.015,6375.0
-0.11,0.06,6377.777777777777
-0.11,0.05,6380.555555555556
-0.125,0.02,6383.333333333333
-0.155,0.005,6386.111111111111
-0.17,0.02,6388.888888888889
-0.215,0.07,6391.666666666667
-0.225,0.08,6394.444444444444
-0.255,0.06,6397.222222222223
-0.275,0.035,6400.0
-0.3,0.025,6402.777777777777
-0.31,0.015,6405.555555555556
-0.31,0.04,6408.333333333333
-0.315,0.08,6411.111111111111
-0.31,0.085,6413.888888888889
-0.335,0.085,6416.666666666667
-0.37,0.055,6419.444444444444
-0.375,0.025,6422.222222222223
-0.35,0.035,6425.0
-0.335,0.05,6427.777777777777
-0.335,0.06,6430.555555555556
-0.36,0.05,6433.333333333333
-0.39,0.06,6436.111111111111
-0.415,0.065,6438.888888888889
-0.395,0.075,6441.666666666667
-0.385,0.08,6444.444444444444
-0.345,0.065,6447.222222222223
-0.38,0.025,6450.0
-0.39,0.03,6452.777777777777
-0.405,0.05,6455.555555555556
-0.395,0.09,6458.333333333333
-0.39,0.085,6461.111111111111
-0.34,0.06,6463.888888888889
-0.36,0.04,6466.666666666667
-0.36,0.025,6469.444444444444
-0.365,0.035,6472.222222222223
-0.345,0.07,6475.0
-0.335,0.08,6477.777777777777
-0.32,0.065,6480.555555555556
-0.325,0.055,6483.333333333333
-0.32,0.045,6486.111111111111
-0.31,0.065,6488.888888888889
-0.3,0.11,6491.666666666667
-0.295,0.135,6494.444444444444
-0.305,0.14,6497.222222222223
-0.315,0.095,6500.0
-0.315,0.07,6502.777777777777
-0.295,0.05,6505.555555555556
-0.28,0.045,6508.333333333333
-0.26,0.065,6511.111111111111
-0.235,0.065,6513.888888888889
-0.24,0.05,6516.666666666667
-0.255,0.02,6519.444444444444
-0.27,0.0,6522.222222222223
-0.29,0.0,6525.0
-0.3,0.02,6527.777777777777
-0.29,0.02,6530.555555555556
-0.3,0.01,6533.333333333333
-0.295,0.015,6536.111111111111
-0.335,0.01,6538.888888888889
-0.325,0.015,6541.666666666667
-0.315,0.045,6544.444444444444
-0.32,0.035,6547.222222222223
-0.335,0.045,6550.0
-0.335,0.055,6552.777777777777
-0.335,0.09,6555.555555555556
-0.335,0.08,6558.333333333333
-0.33,0.065,6561.111111111111
-0.325,0.02,6563.888888888889
-0.33,-0.01,6566.666666666667
-0.36,-0.01,6569.444444444444
-0.4,0.005,6572.222222222223
-0.41,0.05,6575.0
-0.4,0.07,6577.777777777777
-0.37,0.065,6580.555555555556
-0.38,0.055,6583.333333333333
-0.395,0.06,6586.111111111111
-0.425,0.055,6588.888888888889
-0.39,0.04,6591.666666666667
-0.385,0.045,6594.444444444444
-0.36,0.065,6597.222222222223
-0.35,0.08,6600.0
-0.34,0.075,6602.777777777777
-0.355,0.065,6605.555555555556
-0.38,0.075,6608.333333333333
-0.385,0.07,6611.111111111111
-0.385,0.08,6613.888888888889
-0.39,0.08,6616.666666666667
-0.385,0.055,6619.444444444444
-0.38,0.015,6622.222222222223
-0.37,0.02,6625.0
-0.345,0.055,6627.777777777777
-0.345,0.07,6630.555555555556
-0.375,0.06,6633.333333333333
-0.38,0.035,6636.111111111111
-0.395,0.005,6638.888888888889
-0.365,0.025,6641.666666666667
-0.35,0.035,6644.444444444444
-0.335,0.055,6647.222222222223
-0.345,0.04,6650.0
-0.37,0.035,6652.777777777777
-0.395,0.035,6655.555555555556
-0.4,0.05,6658.333333333333
-0.37,0.075,6661.111111111111
-0.315,0.065,6663.888888888889
-0.27,0.065,6666.666666666667
-0.2,0.03,6669.444444444444
-0.08,-0.015,6672.222222222223
0.06,-0.05,6675.0
0.225,-0.075,6677.777777777777
0.385,-0.125,6680.555555555556
0.545,-0.18,6683.333333333333
0.625,-0.28,6686.111111111111
0.615,-0.345,6688.888888888889
0.5,-0.38,6691.666666666667
0.365,-0.35,6694.444444444444
0.2,-0.33,6697.222222222223
-0.055,-0.32,6700.0
-0.415,-0.325,6702.777777777777
-0.76,-0.275,6705.555555555556
-0.98,-0.17,6708.333333333333
-0.985,-0.08,6711.111111111111
-0.855,-0.01,6713.888888888889
-0.705,0.005,6716.666666666667
-0.605,0.015,6719.444444444444
-0.565,0.03,6722.222222222223
-0.53,0.07,6725.0
-0.485,0.07,6727.777777777777
-0.415,0.025,6730.555555555556
-0.355,0.005,6733.333333333333
-0.335,-0.025,6736.111111111111
-0.325,-0.02,6738.888888888889
-0.335,-0.015,6741.666666666667
-0.32,0.005,6744.444444444444
-0.32,0.015,6747.222222222223
-0.295,-0.005,6750.0
-0.295,0.015,6752.777777777777
-0.285,0.01,6755.555555555556
-0.285,0.03,6758.333333333333
-0.285,0.035,6761.111111111111
-0.265,0.03,6763.888888888889
-0.26,0.005,6766.666666666667
-0.26,0.0,6769.444444444444
-0.285,0.0,6772.222222222223
-0.275,0.015,6775.0
-0.265,0.035,6777.777777777777
-0.24,0.03,6780.555555555556
-0.235,0.03,6783.333333333333
-0.245,0.015,6786.111111111111
-0.25,0.01,6788.888888888889
-0.25,0.015,6791.666666666667
-0.225,0.045,6794.444444444444
-0.205,0.04,6797.222222222223
-0.18,0.005,6800.0
-0.19,-0.01,6802.777777777777
-0.18,-0.005,6805.555555555556
-0.14,0.0,6808.333333333333
-0.09,0.01,6811.111111111111
-0.06,-0.005,6813.888888888889
-0.06,-0.005,6816.666666666667
-0.065,-0.015,6819.444444444444
-0.06,-0.01,6822.222222222223
-0.02,-0.01,6825.0
0.015,-0.01,6827.777777777777
0.035,-0.01,6830.555555555556
0.035,-0.035,6833.333333333333
0.03,-0.05,6836.111111111111
0.025,-0.05,6838.888888888889
0.045,-0.035,6841.666666666667
0.085,0.0,6844.444444444444
0.1,0.0,6847.222222222223
0.11,-0.02,6850.0
0.085,-0.045,6852.777777777777
0.08,-0.05,6855.555555555556
0.085,-0.045,6858.333333333333
0.11,-0.01,6861.111111111111
0.125,-0.005,6863.888888888889
0.13,-0.015,6866.666666666667
0.105,-0.035,6869.444444444444
0.075,-0.04,6872.222222222223
0.07,-0.02,6875.0
0.07,-0.015,6877.777777777777
0.07,-0.025,6880.555555555556
0.04,0.0,6883.333333333333
0.01,0.0,6886.111111111111
-0.01,0.015,6888.888888888889
-0.025,0.045,6891.666666666667
-0.035,0.09,6894.444444444444
-0.05,0.095,6897.222222222223
-0.095,0.1,6900.0
-0.12,0.065,6902.777777777777
-0.12,0.045,6905.555555555556
-0.12,0.055,6908.333333333333
-0.12,0.045,6911.111111111111
-0.175,0.03,6913.888888888889
-0.25,0.035,6916.666666666667
-0.29,0.02,6919.444444444444
-0.3,0.045,6922.222222222223
-0.28,0.06,6925.0
-0.265,0.055,6927.777777777777
-0.25,0.055,6930.555555555556
-0.27,0.045,6933.333333333333
-0.295,0.035,6936.111111111111
-0.305,0.025,6938.888888888889
-0.31,0.045,6941.666666666667
-0.285,0.08,6944.444444444444
-0.275,0.09,6947.222222222223
-0.28,0.085,6950.0
-0.28,0.05,6952.777777777777
-0.305,0.03,6955.555555555556
-0.32,0.035,6958.333333333333
-0.32,0.045,6961.111111111111
-0.315,0.055,6963.888888888889
-0.29,0.035,6966.666666666667
-0.305,0.02,6969.444444444444
-0.31,0.01,6972.222222222223
-0.325,0.05,6975.0
-0.325,0.07,6977.777777777777
-0.315,0.05,6980.555555555556
-0.325,0.045,6983.333333333333
-0.34,0.04,6986.111111111111
-0.34,0.045,6988.888888888889
-0.325,0.05,6991.666666666667
-0.305,0.075,6994.444444444444
-0.265,0.08,6997.222222222223
-0.265,0.065,7000.0
-0.28,0.075,7002.777777777777
-0.295,0.075,7005.555555555556
-0.275,0.08,7008.333333333333
-0.265,0.095,7011.111111111111
-0.255,0.115,7013.888888888889
-0.255,0.115,7016.666666666667
-0.26,0.09,7019.444444444444
-0.26,0.06,7022.222222222223
-0.255,0.055,7025.0
-0.215,0.06,7027.777777777777
-0.19,0.09,7030.555555555556
-0.19,0.065,7033.333333333333
-0.225,0.045,7036.111111111111
-0.25,0.03,7038.888888888889
-0.255,0.035,7041.666666666667
-0.25,0.055,7044.444444444444
-0.25,0.035,7047.222222222223
-0.275,0.01,7050.0
-0.305,-0.025,7052.777777777777
-0.33,-0.01,7055.555555555556
-0.33,-0.005,7058.333333333333
-0.315,0.015,7061.111111111111
-0.295,0.01,7063.888888888889
-0.285,0.015,7066.666666666667
-0.28,-0.01,7069.444444444444
-0.285,0.005,7072.222222222223
-0.31,0.015,7075.0
-0.33,0.045,7077.777777777777
-0.34,0.055,7080.555555555556
-0.335,0.065,7083.333333333333
-0.36,0.03,7086.111111111111
-0.34,0.025,7088.888888888889
-0.325,0.015,7091.666666666667
-0.315,0.0,7094.444444444444
-0.295,-0.005,7097.222222222223
-0.295,0.0,7100.0
-0.34,0.015,7102.777777777777
-0.35,0.03,7105.555555555556
-0.345,0.045,7108.333333333333
-0.32,0.06,7111.111111111111
-0.315,0.04,7113.888888888889
-0.3,0.025,7116.666666666667
-0.315,0.015,7119.444444444444
-0.325,0.025,7122.222222222223
-0.325,0.06,7125.0
-0.315,0.06,7127.777777777777
-0.315,0.06,7130.555555555556
-0.335,0.03,7133.333333333333
-0.345,0.03,7136.111111111111
-0.345,0.025,7138.888888888889
-0.345,0.035,7141.666666666667
-0.33,0.055,7144.444444444444
-0.3,0.05,7147.222222222223
-0.305,0.03,7150.0
-0.3,0.02,7152.777777777777
-0.31,0.015,7155.555555555556
-0.32,0.035,7158.333333333333
-0.31,0.06,7161.111111111111
-0.315,0.05,7163.888888888889
-0.295,0.025,7166.666666666667
-0.295,0.005,7169.444444444444
-0.305,0.035,7172.222222222223
-0.325,0.04,7175.0
-0.32,0.075,7177.777777777777
-0.315,0.08,7180.555555555556
-0.315,0.08,7183.333333333333
-0.29,0.075,7186.111111111111
-0.245,0.06,7188.888888888889
-0.135,0.07,7191.666666666667
0.01,0.035,7194.444444444444
0.155,-0.035,7197.222222222223
0.31,-0.15,7200.0
0.44,-0.225,7202.777777777777
0.535,-0.265,7205.555555555556
0.585,-0.315,7208.333333333333
0.56,-0.35,7211.111111111111
0.435,-0.35,7213.888888888889
0.27,-0.325,7216.666666666667
-0.03,-0.285,7219.444444444444
-0.395,-0.255,7222.222222222223
-0.72,-0.235,7225.0
-0.915,-0.185,7227.777777777777
-0.945,-0.125,7230.555555555556
-0.84,-0.07,7233.333333333333
-0.735,-0.03,7236.111111111111
-0.645,0.0,7238.888888888889
-0.575,0.01,7241.666666666667
-0.495,0.025,7244.444444444444
-0.415,0.04,7247.222222222223
-0.355,0.035,7250.0
-0.33,0.01,7252.777777777777
-0.32,-0.015,7255.555555555556
-0.3,-0.015,7258.333333333333
-0.275,0.005,7261.111111111111
-0.26,0.02,7263.888888888889
-0.26,0.01,7266.666666666667
-0.265,0.01,7269.444444444444
-0.28,0.01,7272.222222222223
-0.255,0.03,7275.0
-0.245,0.04,7277.777777777777
-0.225,0.055,7280.555555555556
-0.23,0.04,7283.333333333333
-0.23,0.02,7286.111111111111
-0.23,0.02,7288.888888888889
-0.235,0.035,7291.666666666667
-0.21,0.035,7294.444444444444
-0.205,0.03,7297.222222222223
-0.2,-0.01,7300.0
-0.2,-0.005,7302.777777777777
-0.19,0.015,7305.555555555556
-0.18,0.02,7308.333333333333
-0.16,0.015,7311.111111111111
-0.12,-0.01,7313.888888888889
-0.125,-0.025,7316.666666666667
-0.115,-0.02,7319.444444444444
-0.11,-0.01,7322.222222222223
-0.08,0.005,7325.0
-0.05,0.01,7327.777777777777
-0.03,-0.01,7330.555555555556
-0.025,-0.045,7333.333333333333
-0.03,-0.065,7336.111111111111
-0.02,-0.03,7338.888888888889
0.005,-0.025,7341.666666666667
0.03,-0.035,7344.444444444444
0.07,-0.06,7347.222222222223
0.08,-0.065,7350.0
0.09,-0.085,7352.777777777777
0.08,-0.07,7355.555555555556
0.115,-0.07,7358.333333333333
0.13,-0.04,7361.111111111111
0.145,-0.055,7363.888888888889
0.11,-0.06,7366.666666666667
0.08,-0.07,7369.444444444444
0.105,-0.06,7372.222222222223
0.12,-0.06,7375.0
0.145,-0.055,7377.777777777777
0.165,-0.06,7380.555555555556
0.17,-0.055,7383.333333333333
0.145,-0.07,7386.111111111111
0.145,-0.04,7388.888888888889
0.15,-0.03,7391.666666666667
0.15,-0.02,7394.444444444444
0.17,-0.02,7397.222222222223
0.16,-0.06,7400.0
0.11,-0.075,7402.777777777777
0.095,-0.07,7405.555555555556
0.07,-0.025,7408.333333333333
0.07,-0.025,7411.111111111111
0.055,-0.035,7413.888888888889
0.035,-0.025,7416.666666666667
0.0,-0.04,7419.444444444444
-0.04,-0.01,7422.222222222223
-0.075,0.025,7425.0
-0.08,0.06,7427.777777777777
-0.085,0.055,7430.555555555556
-0.12,0.03,7433.333333333333
-0.14,0.01,7436.111111111111
-0.16,0.0,7438.888888888889
-0.18,-0.015,7441.666666666667
-0.185,0.015,7444.444444444444
-0.18,-0.01,7447.222222222223
-0.18,-0.005,7450.0
-0.2,-0.025,7452.777777777777
-0.225,-0.025,7455.555555555556
-0.235,-0.015,7458.333333333333
-0.215,0.0,7461.111111111111
-0.19,0.0,7463.888888888889
-0.22,0.0,7466.666666666667
-0.26,-0.025,7469.444444444444
-0.26,-0.005,7472.222222222223
-0.255,0.035,7475.0
-0.25,0.055,7477.777777777777
-0.235,0.03,7480.555555555556
-0.24,0.005,7483.333333333333
-0.255,-0.01,7486.111111111111
-0.25,-0.005,7488.888888888889
-0.255,0.015,7491.666666666667
-0.24,0.025,7494.444444444444
-0.23,0.01,7497.222222222223
-0.225,-0.01,7500.0
-0.235,-0.015,7502.777777777777
-0.26,0.0,7505.555555555556
-0.28,0.0,7508.333333333333
-0.28,0.04,7511.111111111111
-0.285,0.075,7513.888888888889
-0.275,0.095,7516.666666666667
-0.275,0.08,7519.444444444444
-0.26,0.03,7522.222222222223
-0.23,0.025,7525.0
-0.225,0.03,7527.777777777777
-0.21,0.02,7530.555555555556
-0.2,0.005,7533.333333333333
-0.205,-0.035,7536.111111111111
-0.215,-0.025,7538.888888888889
-0.215,0.0,7541.666666666667
-0.195,0.02,7544.444444444444
-0.175,0.065,7547.222222222223
-0.155,0.045,7550.0
-0.17,0.025,7552.777777777777
-0.165,0.015,7555.555555555556
-0.155,0.025,7558.333333333333
-0.125,0.03,7561.111111111111
-0.125,0.0,7563.888888888889
-0.14,-0.005,7566.666666666667
-0.18,-0.03,7569.444444444444
-0.21,-0.02,7572.222222222223
-0.235,-0.04,7575.0
-0.23,-0.035,7577.777777777777
-0.215,-0.04,7580.555555555556
-0.225,-0.035,7583.333333333333
-0.245,-0.04,7586.111111111111
-0.255,-0.03,7588.888888888889
-0.26,-0.02,7591.666666666667
-0.26,0.01,7594.444444444444
-0.235,-0.005,7597.222222222223
-0.22,-0.015,7600.0
-0.255,-0.025,7602.777777777777
-0.27,-0.01,7605.555555555556
-0.27,0.02,7608.333333333333
-0.275,0.02,7611.111111111111
-0.28,0.015,7613.888888888889
-0.26,0.0,7616.666666666667
-0.275,-0.005,7619.444444444444
-0.28,-0.01,7622.222222222223
-0.265,0.01,7625.0
-0.27,0.01,7627.777777777777
-0.255,0.02,7630.555555555556
-0.26,0.005,7633.333333333333
-0.275,-0.015,7636.111111111111
-0.295,-0.015,7638.888888888889
-0.285,-0.005,7641.666666666667
-0.28,0.02,7644.444444444444
-0.265,0.03,7647.222222222223
-0.275,0.02,7650.0
-0.275,0.0,7652.777777777777
-0.285,0.0,7655.555555555556
-0.28,0.02,7658.333333333333
-0.26,0.03,7661.111111111111
-0.255,0.02,7663.888888888889
-0.245,0.005,7666.666666666667
-0.265,-0.02,7669.444444444444
-0.285,-0.01,7672.222222222223
-0.295,0.005,7675.0
-0.295,0.02,7677.777777777777
-0.285,0.03,7680.555555555556
-0.285,0.005,7683.333333333333
-0.275,-0.01,7686.111111111111
-0.29,-0.015,7688.888888888889
-0.285,0.0,7691.666666666667
-0.265,0.03,7694.444444444444
-0.25,0.035,7697.222222222223
-0.26,0.055,7700.0
-0.27,0.03,7702.777777777777
-0.275,0.025,7705.555555555556
-0.295,0.04,7708.333333333333
-0.285,0.05,7711.111111111111
-0.275,0.065,7713.888888888889
-0.25,0.055,7716.666666666667
-0.2,0.025,7719.444444444444
-0.12,-0.02,7722.222222222223
-0.01,-0.045,7725.0
0.115,-0.075,7727.777777777777
0.235,-0.12,7730.555555555556
0.375,-0.195,7733.333333333333
0.48,-0.25,7736.111111111111
0.535,-0.285,7738.888888888889
0.57,-0.315,7741.666666666667
0.58,-0.345,7744.444444444444
0.52,-0.35,7747.222222222223
0.385,-0.355,7750.0
0.175,-0.355,7752.777777777777
-0.12,-0.31,7755.555555555556
-0.425,-0.235,7758.333333333333
-0.7,-0.185,7761.111111111111
-0.84,-0.13,7763.888888888889
-0.9,-0.085,7766.666666666667
-0.83,-0.05,7769.444444444444
-0.72,0.005,7772.222222222223
-0.64,0.04,7775.0
-0.545,0.04,7777.777777777777
-0.47,0.01,7780.555555555556
-0.4,-0.025,7783.333333333333
-0.35,-0.045,7786.111111111111
-0.33,-0.035,7788.888888888889
-0.3,-0.025,7791.666666666667
-0.28,-0.01,7794.444444444444
-0.265,-0.005,7797.222222222223
-0.25,-0.025,7800.0
-0.25,-0.015,7802.777777777777
-0.24,-0.015,7805.555555555556
-0.24,0.02,7808.333333333333
-0.215,0.01,7811.111111111111
-0.19,-0.005,7813.888888888889
-0.205,0.0,7816.666666666667
-0.21,0.005,7819.444444444444
-0.22,0.005,7822.222222222223
-0.22,0.035,7825.0
-0.21,0.045,7827.777777777777
-0.2,0.03,7830.555555555556
-0.185,0.0,7833.333333333333
-0.185,-0.03,7836.111111111111
-0.18,-0.025,7838.888888888889
-0.185,-0.005,7841.666666666667
-0.15,0.015,7844.444444444444
-0.13,0.01,7847.222222222223
-0.115,-0.03,7850.0
-0.125,-0.04,7852.777777777777
-0.13,-0.035,7855.555555555556
-0.125,-0.02,7858.333333333333
-0.095,-0.005,7861.111111111111
-0.075,-0.005,7863.888888888889
-0.055,-0.035,7866.666666666667
-0.045,-0.055,7869.444444444444
-0.035,-0.06,7872.222222222223
-0.02,-0.03,7875.0
0.005,-0.04,7877.777777777777
0.035,-0.045,7880.555555555556
0.04,-0.05,7883.333333333333
0.055,-0.05,7886.111111111111
0.06,-0.03,7888.888888888889
0.07,-0.04,7891.666666666667
0.095,-0.045,7894.444444444444
0.115,-0.07,7897.222222222223
0.12,-0.075,7900.0
0.115,-0.065,7902.777777777777
0.105,-0.05,7905.555555555556
0.12,-0.035,7908.333333333333
0.14,-0.025,7911.111111111111
0.17,-0.06,7913.888888888889
0.17,-0.08,7916.666666666667
0.17,-0.085,7919.444444444444
0.165,-0.085,7922.222222222223
0.19,-0.055,7925.0
0.19,-0.045,7927.777777777777
0.19,-0.06,7930.555555555556
0.18,-0.08,7933.333333333333
0.16,-0.095,7936.111111111111
0.145,-0.085,7938.888888888889
0.155,-0.06,7941.666666666667
0.16,-0.035,7944.444444444444
0.14,-0.02,7947.222222222223
0.125,0.0,7950.0
0.09,-0.025,7952.777777777777
0.065,-0.005,7955.555555555556
0.045,-0.01,7958.333333333333
0.03,-0.005,7961.111111111111
0.035,-0.025,7963.888888888889
0.025,-0.025,7966.666666666667
-0.005,-0.025,7969.444444444444
-0.055,-0.02,7972.222222222223
-0.065,0.015,7975.0
-0.065,0.025,7977.777777777777
-0.115,0.03,7980.555555555556
-0.13,0.0,7983.333333333333
-0.16,-0.01,7986.111111111111
-0.17,0.0,7988.888888888889
-0.17,0.02,7991.666666666667
-0.16,0.045,7994.444444444444
-0.16,0.045,7997.222222222223
-0.175,0.03,8000.0
-0.21,0.005,8002.777777777777
-0.22,0.01,8005.555555555556
-0.225,0.015,8008.333333333333
-0.22,0.015,8011.111111111111
-0.22,0.01,8013.888888888889
-0.225,0.005,8016.666666666667
-0.245,-0.005,8019.444444444444
-0.245,0.015,8022.222222222223
-0.23,0.02,8025.0
-0.225,0.05,8027.777777777777
-0.22,0.06,8030.555555555556
-0.23,0.075,8033.333333333333
-0.24,0.06,8036.111111111111
-0.255,0.04,8038.888888888889
-0.24,0.015,8041.666666666667
-0.235,0.02,8044.444444444444
-0.225,0.02,8047.222222222223
-0.25,0.01,8050.0
-0.255,0.0,8052.777777777777
-0.25,-0.005,8055.555555555556
-0.24,0.01,8058.333333333333
-0.225,0.025,8061.111111111111
-0.21,0.035,8063.888888888889
-0.215,0.065,8066.666666666667
-0.22,0.055,8069.444444444444
-0.225,0.045,8072.222222222223
-0.215,0.05,8075.0
-0.195,0.06,8077.777777777777
-0.18,0.07,8080.555555555556
-0.18,0.055,8083.333333333333
-0.185,0.035,8086.111111111111
-0.21,0.06,8088.888888888889
-0.205,0.075,8091.666666666667
-0.195,0.08,8094.444444444444
-0.185,0.055,8097.222222222223
-0.155,0.055,8100.0
-0.145,0.03,8102.777777777777
-0.145,0.02,8105.555555555556
-0.135,0.05,8108.333333333333
-0.135,0.045,8111.111111111111
-0.1,0.055,8113.888888888889
-0.12,0.025,8116.666666666667
-0.15,0.01,8119.444444444444
-0.175,0.025,8122.222222222223
-0.19,0.015,8125.0
-0.18,0.025,8127.777777777777
-0.155,-0.01,8130.555555555556
-0.17,-0.04,8133.333333333333
-0.185,-0.04,8136.111111111111
-0.215,-0.035,8138.888888888889
-0.215,-0.015,8141.666666666667
-0.2,0.01,8144.444444444444
-0.195,-0.005,8147.222222222223
-0.2,-0.005,8150.0
-0.215,-0.03,8152.777777777777
-0.21,-0.025,8155.555555555556
-0.205,0.01,8158.333333333333
-0.195,0.01,8161.111111111111
-0.2,0.015,8163.888888888889
-0.225,-0.01,8166.666666666667
-0.255,-0.01,8169.444444444444
-0.27,-0.01,8172.222222222223
-0.265,0.01,8175.0
-0.245,0.05,8177.777777777777
-0.235,0.06,8180.555555555556
-0.255,0.035,8183.333333333333
-0.255,-0.01,8186.111111111111
-0.26,0.0,8188.888888888889
-0.255,0.035,8191.666666666667
-0.25,0.045,8194.444444444445
-0.235,0.06,8197.222222222223
-0.245,0.02,8200.0
-0.235,-0.01,8202.777777777777
-0.24,-0.025,8205.555555555555
-0.255,-0.03,8208.333333333334
-0.24,-0.015,8211.111111111111
-0.23,-0.015,8213.888888888889
-0.235,-0.015,8216.666666666666
-0.25,-0.02,8219.444444444445
-0.255,-0.01,8222.222222222223
-0.245,0.02,8225.0
-0.235,0.065,8227.777777777777
-0.21,0.06,8230.555555555555
-0.22,0.03,8233.333333333334
-0.235,-0.01,8236.111111111111
-0.25,-0.03,8238.888888888889
-0.235,0.0,8241.666666666666
-0.22,0.02,8244.444444444445
-0.23,0.035,8247.222222222223
-0.225,0.01,8250.0
-0.24,0.005,8252.777777777777
-0.24,0.005,8255.555555555555
-0.235,0.015,8258.333333333334
-0.245,0.035,8261.111111111111
-0.23,0.05,8263.888888888889
-0.245,0.035,8266.666666666666
-0.275,0.015,8269.444444444445
-0.295,0.01,8272.222222222223
-0.29,0.03,8275.0
-0.265,0.07,8277.777777777777
-0.22,0.05,8280.555555555555
-0.185,0.015,8283.333333333334
-0.13,-0.045,8286.111111111111
-0.045,-0.065,8288.888888888889
0.055,-0.065,8291.666666666666
0.175,-0.06,8294.444444444445
0.305,-0.12,8297.222222222223
0.42,-0.18,8300.0
0.485,-0.25,8302.777777777777
0.535,-0.285,8305.555555555555
0.585,-0.3,8308.333333333334
0.6,-0.31,8311.111111111111
0.555,-0.315,8313.888888888889
0.425,-0.31,8316.666666666666
0.225,-0.305,8319.444444444445
-0.06,-0.27,8322.222222222223
-0.345,-0.245,8325.0
-0.585,-0.195,8327.777777777777
-0.76,-0.155,8330.555555555555
-0.845,-0.125,8333.333333333334
-0.83,-0.11,8336.111111111111
-0.735,-0.055,8338.888888888889
-0.625,-0.015,8341.666666666666
-0.535,0.025,8344.444444444445
-0.46,0.025,8347.222222222223
-0.39,0.02,8350.0
-0.35,-0.005,8352.777777777777
-0.315,-0.035,8355.555555555555
-0.285,-0.03,8358.333333333334
-0.25,0.0,8361.111111111111
-0.24,-0.005,8363.888888888889
-0.225,-0.02,8366.666666666666
-0.24,-0.035,8369.444444444445
-0.235,-0.025,8372.222222222223
-0.22,0.005,8375.0
-0.19,0.01,8377.777777777777
-0.175,0.0,8380.555555555555
-0.19,-0.005,8383.333333333334
-0.19,-0.015,8386.111111111111
-0.195,-0.02,8388.888888888889
-0.18,-0.01,8391.666666666666
-0.155,-0.025,8394.444444444445
-0.15,-0.03,8397.222222222223
-0.16,-0.035,8400.0
-0.165,-0.025,8402.777777777777
-0.17,0.005,8405.555555555555
-0.15,0.035,8408.333333333334
-0.13,0.055,8411.111111111111
-0.11,0.05,8413.888888888889
-0.105,0.005,8416.666666666666
-0.105,-0.05,8419.444444444445
-0.1,-0.075,8422.222222222223
-0.09,-0.07,8425.0
-0.075,-0.045,8427.777777777777
-0.05,-0.04,8430.555555555555
-0.04,-0.03,8433.333333333334
-0.05,-0.055,8436.111111111111
-0.03,-0.04,8438.888888888889
-0.01,-0.035,8441.666666666666
0.015,-0.035,8444.444444444445
0.04,-0.065,8447.222222222223
0.05,-0.08,8450.0
0.05,-0.075,8452.777777777777
0.065,-0.06,8455.555555555555
0.085,-0.045,8458.333333333334
0.115,-0.03,8461.111111111111
0.135,-0.065,8463.888888888889
0.14,-0.115,8466.666666666666
0.145,-0.14,8469.444444444445
0.145,-0.115,8472.222222222223
0.16,-0.11,8475.0
0.18,-0.09,8477.777777777777
0.195,-0.1,8480.555555555555
0.21,-0.105,8483.333333333334
0.2,-0.105,8486.111111111111
0.185,-0.105,8488.888888888889
0.2,-0.105,8491.666666666666
0.225,-0.08,8494.444444444445
0.23,-0.07,8497.222222222223
0.22,-0.08,8500.0
0.21,-0.1,8502.777777777777
0.195,-0.105,8505.555555555555
0.195,-0.08,8508.333333333334
0.215,-0.075,8511.111111111111
0.225,-0.085,8513.888888888889
0.215,-0.085,8516.666666666666
0.195,-0.085,8519.444444444445
0.175,-0.07,8522.222222222223
0.16,-0.055,8525.0
0.16,-0.025,8527.777777777777
0.135,-0.04,8530.555555555555
0.12,-0.05,8533.333333333334
0.085,-0.065,8536.111111111111
0.065,-0.065,8538.888888888889
0.05,-0.04,8541.666666666666
0.05,-0.035,8544.444444444445
0.02,-0.055,8547.222222222223
0.0,-0.055,8550.0
-0.04,-0.04,8552.777777777777
-0.07,-0.03,8555.555555555555
-0.09,-0.005,8558.333333333334
-0.1,0.025,8561.111111111111
-0.09,0.03,8563.888888888889
-0.11,0.02,8566.666666666666
-0.13,-0.015,8569.444444444445
-0.155,-0.03,8572.222222222223
-0.15,-0.015,8575.0
-0.14,0.015,8577.777777777777
-0.14,-0.005,8580.555555555555
-0.155,-0.045,8583.333333333334
-0.165,-0.05,8586.111111111111
-0.19,-0.025,8588.888888888889
-0.19,-0.005,8591.666666666666
-0.165,0.005,8594.444444444445
-0.165,-0.015,8597.222222222223
-0.175,-0.025,8600.0
-0.205,-0.035,8602.777777777777
-0.2,-0.015,8605.555555555555
-0.195,-0.01,8608.333333333334
-0.175,0.0,8611.111111111111
-0.17,-0.02,8613.888888888889
-0.165,-0.03,8616.666666666666
-0.19,-0.025,8619.444444444445
-0.215,-0.02,8622.222222222223
-0.205,0.01,8625.0
-0.18,-0.01,8627.777777777777
-0.155,-0.015,8630.555555555555
-0.165,-0.02,8633.333333333334
-0.18,-0.025,8636.111111111111
-0.195,-0.02,8638.888888888889
-0.195,0.005,8641.666666666666
-0.175,0.01,8644.444444444445
-0.17,0.01,8647.222222222223
-0.16,0.0,8650.0
-0.165,-0.035,8652.777777777777
-0.17,-0.05,8655.555555555555
-0.145,-0.005,8658.333333333334
-0.125,0.02,8661.111111111111
-0.145,0.005,8663.888888888889
-0.14,-0.015,8666.666666666666
-0.16,-0.03,8669.444444444445
-0.15,-0.005,8672.222222222223
-0.14,0.01,8675.0
-0.105,0.035,8677.777777777777
-0.075,0.06,8680.555555555555
-0.07,0.035,8683.333333333334
-0.09,0.01,8686.111111111111
-0.1,-0.005,8688.888888888889
-0.095,0.01,8691.666666666666
-0.09,0.0,8694.444444444445
-0.085,-0.03,8697.222222222223
-0.095,-0.05,8700.0
-0.12,-0.09,8702.777777777777
-0.15,-0.07,8705.555555555555
-0.145,-0.045,8708.333333333334
-0.13,-0.02,8711.111111111111
-0.14,-0.025,8713.888888888889
-0.14,-0.03,8716.666666666666
-0.155,-0.03,8719.444444444445
-0.175,-0.02,8722.222222222223
-0.18,0.015,8725.0
-0.165,0.03,8727.777777777777
-0.15,0.005,8730.555555555555
-0.15,-0.045,8733.333333333334
-0.15,-0.08,8736.111111111111
-0.16,-0.06,8738.888888888889
-0.185,-0.03,8741.666666666666
-0.16,-0.01,8744.444444444445
-0.15,-0.01,8747.222222222223
-0.155,-0.025,8750.0
-0.16,-0.06,8752.777777777777
-0.185,-0.055,8755.555555555555
-0.17,-0.05,8758.333333333334
-0.175,-0.015,8761.111111111111
-0.155,-0.015,8763.888888888889
-0.16,-0.03,8766.666666666666
-0.18,-0.06,8769.444444444445
-0.18,-0.07,8772.222222222223
-0.175,-0.065,8775.0
-0.16,-0.05,8777.777777777777
-0.13,-0.04,8780.555555555555
-0.145,-0.06,8783.333333333334
-0.165,-0.055,8786.111111111111
-0.165,-0.035,8788.888888888889
-0.15,-0.005,8791.666666666666
-0.14,-0.005,8794.444444444445
-0.14,0.01,8797.222222222223
-0.145,-0.025,8800.0
-0.155,-0.06,8802.777777777777
-0.175,-0.065,8805.555555555555
-0.16,-0.09,8808.333333333334
-0.145,-0.055,8811.111111111111
-0.13,-0.04,8813.888888888889
-0.135,-0.045,8816.666666666666
-0.155,-0.035,8819.444444444445
-0.16,-0.045,8822.222222222223
-0.15,-0.03,8825.0
-0.13,-0.035,8827.777777777777
-0.125,-0.05,8830.555555555555
-0.14,-0.065,8833.333333333334
-0.15,-0.06,8836.111111111111
-0.17,-0.05,8838.888888888889
-0.16,-0.045,8841.666666666666
-0.13,-0.025,8844.444444444445
-0.135,-0.015,8847.222222222223
-0.16,-0.04,8850.0
-0.19,-0.02,8852.777777777777
-0.22,0.01,8855.555555555555
-0.19,0.065,8858.333333333334
-0.105,0.075,8861.111111111111
0.02,0.045,8863.888888888889
0.16,-0.035,8866.666666666666
0.28,-0.145,8869.444444444445
0.41,-0.195,8872.222222222223
0.555,-0.22,8875.0
0.695,-0.215,8877.777777777777
0.795,-0.25,8880.555555555555
0.875,-0.33,8883.333333333334
0.925,-0.42,8886.111111111111
0.925,-0.47,8888.888888888889
0.865,-0.49,8891.666666666666
0.755,-0.465,8894.444444444445
0.595,-0.475,8897.222222222223
0.315,-0.455,8900.0
-0.01,-0.415,8902.777777777777
-0.315,-0.37,8905.555555555555
-0.555,-0.32,8908.333333333334
-0.7,-0.245,8911.111111111111
-0.73,-0.185,8913.888888888889
-0.68,-0.105,8916.666666666666
-0.61,-0.06,8919.444444444445
-0.525,-0.03,8922.222222222223
-0.43,-0.015,8925.0
-0.33,-0.005,8927.777777777777
-0.255,-0.035,8930.555555555555
-0.225,-0.05,8933.333333333334
-0.205,-0.05,8936.111111111111
-0.195,-0.045,8938.888888888889
-0.175,-0.02,8941.666666666666
-0.14,-0.01,8944.444444444445
-0.12,-0.01,8947.222222222223
-0.115,-0.015,8950.0
-0.13,-0.025,8952.777777777777
-0.125,-0.025,8955.555555555555
-0.115,-0.015,8958.333333333334
-0.095,-0.005,8961.111111111111
-0.09,0.0,8963.888888888889
-0.085,-0.015,8966.666666666666
-0.095,-0.05,8969.444444444445
-0.105,-0.04,8972.222222222223
-0.1,-0.01,8975.0
-0.1,0.035,8977.777777777777
-0.08,0.025,8980.555555555555
-0.08,0.01,8983.333333333334
-0.08,-0.035,8986.111111111111
-0.085,-0.055,8988.888888888889
-0.055,-0.045,8991.666666666666
-0.045,-0.02,8994.444444444445
-0.025,-0.03,8997.222222222223
-0.025,-0.065,9000.0
-0.02,-0.06,9002.777777777777
-0.01,-0.065,9005.555555555555
-0.005,-0.055,9008.333333333334
0.02,-0.03,9011.111111111111
0.035,-0.04,9013.888888888889
0.04,-0.035,9016.666666666666
0.035,-0.06,9019.444444444445
0.03,-0.07,9022.222222222223
0.06,-0.07,9025.0
0.09,-0.045,9027.777777777777
0.11,-0.05,9030.555555555555
0.12,-0.065,9033.333333333334
0.125,-0.08,9036.111111111111
0.135,-0.075,9038.888888888889
0.155,-0.06,9041.666666666666
0.185,-0.04,9044.444444444445
0.21,-0.05,9047.222222222223
0.215,-0.035,9050.0
0.2,-0.05,9052.777777777777
0.215,-0.06,9055.555555555555
0.235,-0.09,9058.333333333334
0.25,-0.08,9061.111111111111
0.28,-0.075,9063.888888888889
0.285,-0.1,9066.666666666666
0.285,-0.125,9069.444444444445
0.275,-0.135,9072.222222222223
0.28,-0.125,9075.0
0.31,-0.11,9077.777777777777
0.325,-0.11,9080.555555555555
0.325,-0.11,9083.333333333334
0.305,-0.13,9086.111111111111
0.285,-0.125,9088.888888888889
0.295,-0.1,9091.666666666666
0.295,-0.08,9094.444444444445
0.3,-0.075,9097.222222222223
0.285,-0.09,9100.0
0.25,-0.105,9102.777777777777
0.235,-0.11,9105.555555555555
0.23,-0.105,9108.333333333334
0.21,-0.065,9111.111111111111
0.19,-0.035,9113.888888888889
0.165,-0.05,9116.666666666666
0.13,-0.035,9119.444444444445
0.1,-0.045,9122.222222222223
0.09,-0.04,9125.0
0.075,-0.025,9127.777777777777
0.07,-0.015,9130.555555555555
0.04,-0.03,9133.333333333334
0.025,-0.025,9136.111111111111
-0.005,-0.005,9138.888888888889
-0.02,0.01,9141.666666666666
-0.015,0.015,9144.444444444445
-0.025,0.015,9147.222222222223
-0.05,-0.01,9150.0
-0.055,-0.015,9152.777777777777
-0.07,-0.005,9155.555555555555
-0.07,-0.015,9158.333333333334
-0.055,-0.01,9161.111111111111
-0.05,-0.005,9163.888888888889
-0.065,-0.03,9166.666666666666
-0.085,-0.035,9169.444444444445
-0.12,-0.005,9172.222222222223
-0.11,0.0,9175.0
-0.105,0.025,9177.777777777777
-0.09,0.015,9180.555555555555
-0.105,0.0,9183.333333333334
-0.13,-0.01,9186.111111111111
-0.115,0.005,9188.888888888889
-0.12,0.015,9191.666666666666
-0.1,0.055,9194.444444444445
-0.1,0.05,9197.222222222223
-0.105,0.01,9200.0
-0.125,-0.035,9202.777777777777
-0.12,-0.045,9205.555555555555
-0.11,-0.01,9208.333333333334
-0.085,0.03,9211.111111111111
-0.07,0.025,9213.888888888889
-0.07,0.005,9216.666666666666
-0.075,-0.005,9219.444444444445
-0.075,0.005,9222.222222222223
-0.085,0.05,9225.0
-0.07,0.11,9227.777777777777
-0.055,0.09,9230.555555555555
-0.05,0.06,9233.333333333334
-0.07,0.04,9236.111111111111
-0.075,0.045,9238.888888888889
-0.055,0.045,9241.666666666666
-0.02,0.06,9244.444444444445
0.005,0.065,9247.222222222223
0.005,0.05,9250.0
-0.015,0.03,9252.777777777777
-0.02,0.015,9255.555555555555
-0.02,-0.005,9258.333333333334
-0.04,-0.005,9261.111111111111
-0.05,-0.02,9263.888888888889
-0.065,-0.035,9266.666666666666
-0.075,-0.025,9269.444444444445
-0.105,-0.045,9272.222222222223
-0.105,-0.005,9275.0
-0.085,0.025,9277.777777777777
-0.07,-0.005,9280.555555555555
-0.08,-0.02,9283.333333333334
-0.11,-0.04,9286.111111111111
-0.14,-0.035,9288.888888888889
-0.13,-0.005,9291.666666666666
-0.115,0.025,9294.444444444445
-0.095,0.035,9297.222222222223
-0.11,0.03,9300.0
-0.145,0.02,9302.777777777777
-0.175,0.02,9305.555555555555
-0.19,0.005,9308.333333333334
-0.195,0.02,9311.111111111111
-0.185,0.04,9313.888888888889
-0.18,0.045,9316.666666666666
-0.18,0.025,9319.444444444445
-0.19,0.0,9322.222222222223
-0.18,0.0,9325.0
-0.15,0.005,9327.777777777777
-0.135,-0.025,9330.555555555555
-0.135,-0.035,9333.333333333334
-0.15,-0.035,9336.111111111111
-0.17,-0.03,9338.888888888889
-0.18,-0.01,9341.666666666666
-0.16,0.005,9344.444444444445
-0.155,-0.005,9347.222222222223
-0.16,0.015,9350.0
-0.18,0.035,9352.777777777777
-0.21,0.055,9355.555555555555
-0.205,0.075,9358.333333333334
-0.18,0.06,9361.111111111111
-0.16,0.03,9363.888888888889
-0.155,-0.015,9366.666666666666
-0.165,-0.005,9369.444444444445
-0.155,-0.015,9372.222222222223
-0.155,-0.03,9375.0
-0.15,-0.055,9377.777777777777
-0.155,-0.08,9380.555555555555
-0.155,-0.065,9383.333333333334
-0.18,-0.04,9386.111111111111
-0.17,-0.005,9388.888888888889
-0.165,0.025,9391.666666666666
-0.15,0.02,9394.444444444445
-0.135,0.015,9397.222222222223
-0.16,0.025,9400.0
-0.19,0.02,9402.777777777777
-0.19,0.025,9405.555555555555
-0.19,0.03,9408.333333333334
-0.17,0.035,9411.111111111111
-0.165,0.05,9413.888888888889
-0.155,0.06,9416.666666666666
-0.135,0.04,9419.444444444445
-0.075,0.015,9422.222222222223
0.05,0.015,9425.0
0.19,-0.025,9427.777777777777
0.315,-0.045,9430.555555555555
0.44,-0.095,9433.333333333334
0.58,-0.17,9436.111111111111
0.685,-0.245,9438.888888888889
0.75,-0.3,9441.666666666666
0.795,-0.355,9444.444444444445
0.77,-0.395,9447.222222222223
0.64,-0.405,9450.0
0.475,-0.43,9452.777777777777
0.225,-0.455,9455.555555555555
-0.105,-0.39,9458.333333333334
-0.45,-0.26,9461.111111111111
-0.715,-0.18,9463.888888888889
-0.825,-0.115,9466.666666666666
-0.78,-0.07,9469.444444444445
-0.655,-0.06,9472.222222222223
-0.54,-0.065,9475.0
-0.46,-0.075,9477.777777777777
-0.375,-0.04,9480.555555555555
-0.315,-0.03,9483.333333333334
-0.265,-0.035,9486.111111111111
-0.21,-0.055,9488.888888888889
-0.185,-0.045,9491.666666666666
-0.165,0.01,9494.444444444445
-0.175,0.03,9497.222222222223
-0.16,0.04,9500.0
-0.14,0.0,9502.777777777777
-0.16,0.01,9505.555555555555
-0.15,-0.005,9508.333333333334
-0.155,-0.015,9511.111111111111
-0.145,-0.015,9513.888888888889
-0.15,-0.02,9516.666666666666
-0.145,0.01,9519.444444444445
-0.155,0.0,9522.222222222223
-0.135,0.025,9525.0
-0.11,0.03,9527.777777777777
-0.085,0.03,9530.555555555555
-0.07,0.025,9533.333333333334
-0.085,0.01,9536.111111111111
-0.07,-0.025,9538.888888888889
-0.06,-0.065,9541.666666666666
-0.05,-0.045,9544.444444444445
-0.05,-0.025,9547.222222222223
-0.07,-0.015,9550.0
-0.08,-0.035,9552.777777777777
-0.08,-0.055,9555.555555555555
-0.06,-0.05,9558.333333333334
-0.02,-0.03,9561.111111111111
0.01,-0.025,9563.888888888889
0.005,-0.015,9566.666666666666
0.005,-0.025,9569.444444444445
0.01,-0.04,9572.222222222223
0.05,-0.03,9575.0
0.07,-0.01,9577.777777777777
0.105,-0.025,9580.555555555555
0.11,-0.045,9583.333333333334
0.105,-0.075,9586.111111111111
0.105,-0.055,9588.888888888889
0.115,0.0,9591.666666666666
0.13,0.035,9594.444444444445
0.165,-0.02,9597.222222222223
0.2,-0.115,9600.0
0.2,-0.155,9602.777777777777
0.185,-0.135,9605.555555555555
0.195,-0.08,9608.333333333334
0.215,-0.045,9611.111111111111
0.21,-0.06,9613.888888888889
0.225,-0.065,9616.666666666666
0.23,-0.06,9619.444444444445
0.225,-0.06,9622.222222222223
0.235,-0.075,9625.0
0.265,-0.11,9627.777777777777
0.28,-0.135,9630.555555555555
0.26,-0.145,9633.333333333334
0.235,-0.11,9636.111111111111
0.22,-0.065,9638.888888888889
0.22,-0.03,9641.666666666666
0.225,0.0,9644.444444444445
0.26,-0.015,9647.222222222223
0.25,-0.085,9650.0
0.22,-0.16,9652.777777777777
0.21,-0.155,9655.555555555555
0.2,-0.105,9658.333333333334
0.185,-0.07,9661.111111111111
0.14,-0.04,9663.888888888889
0.1,-0.025,9666.666666666666
0.07,-0.04,9669.444444444445
0.04,-0.045,9672.222222222223
0.005,-0.04,9675.0
0.015,-0.03,9677.777777777777
0.005,-0.04,9680.555555555555
-0.02,-0.05,9683.333333333334
-0.05,-0.06,9686.111111111111
-0.065,-0.045,9688.888888888889
-0.075,-0.015,9691.666666666666
-0.08,0.0,9694.444444444445
-0.085,0.0,9697.222222222223
-0.09,0.025,9700.0
-0.14,0.04,9702.777777777777
-0.18,0.095,9705.555555555555
-0.18,0.125,9708.333333333334
-0.16,0.125,9711.111111111111
-0.13,0.045,9713.888888888889
-0.12,-0.035,9716.666666666666
-0.125,-0.08,9719.444444444445
-0.16,-0.075,9722.222222222223
-0.18,-0.035,9725.0
-0.18,0.0,9727.777777777777
-0.175,0.035,9730.555555555555
-0.18,0.04,9733.333333333334
-0.195,0.025,9736.111111111111
-0.19,0.02,9738.888888888889
-0.22,0.03,9741.666666666666
-0.2,0.05,9744.444444444445
-0.195,0.03,9747.222222222223
-0.19,-0.025,9750.0
-0.18,-0.06,9752.777777777777
-0.19,-0.055,9755.555555555555
-0.2,-0.04,9758.333333333334
-0.19,-0.01,9761.111111111111
-0.19,-0.035,9763.888888888889
-0.195,-0.035,9766.666666666666
-0.205,-0.04,9769.444444444445
-0.215,-0.015,9772.222222222223
-0.215,-0.01,9775.0
-0.19,0.02,9777.777777777777
-0.18,0.01,9780.555555555555
-0.17,-0.025,9783.333333333334
-0.19,-0.02,9786.111111111111
-0.21,-0.005,9788.888888888889
-0.19,0.02,9791.666666666666
-0.16,0.015,9794.444444444445
-0.16,-0.01,9797.222222222223
-0.155,-0.005,9800.0
-0.175,0.005,9802.777777777777
-0.18,0.02,9805.555555555555
-0.18,0.05,9808.333333333334
-0.185,0.06,9811.111111111111
-0.165,0.05,9813.888888888889
-0.15,0.015,9816.666666666666
-0.145,-0.03,9819.444444444445
-0.135,-0.035,9822.222222222223
-0.115,-0.01,9825.0
-0.095,0.01,9827.777777777777
-0.105,-0.01,9830.555555555555
-0.105,0.005,9833.333333333334
-0.13,0.01,9836.111111111111
-0.155,-0.01,9838.888888888889
-0.175,-0.02,9841.666666666666
-0.16,-0.03,9844.444444444445
-0.165,-0.06,9847.222222222223
-0.18,-0.07,9850.0
-0.205,-0.07,9852.777777777777
-0.24,-0.065,9855.555555555555
-0.225,-0.06,9858.333333333334
-0.2,-0.035,9861.111111111111
-0.175,-0.005,9863.888888888889
-0.21,0.005,9866.666666666666
-0.23,-0.005,9869.444444444445
-0.22,-0.005,9872.222222222223
-0.185,0.0,9875.0
-0.205,0.035,9877.777777777777
-0.22,0.03,9880.555555555555
-0.235,-0.015,9883.333333333334
-0.255,-0.06,9886.111111111111
-0.26,-0.065,9888.888888888889
-0.25,-0.035,9891.666666666666
-0.24,-0.02,9894.444444444445
-0.215,-0.03,9897.222222222223
-0.22,-0.045,9900.0
-0.24,-0.05,9902.777777777777
-0.245,-0.025,9905.555555555555
-0.245,-0.03,9908.333333333334
-0.235,-0.02,9911.111111111111
-0.215,-0.035,9913.888888888889
-0.225,-0.03,9916.666666666666
-0.24,-0.02,9919.444444444445
-0.25,-0.02,9922.222222222223
-0.25,-0.005,9925.0
-0.25,0.035,9927.777777777777
-0.245,0.045,9930.555555555555
-0.26,0.03,9933.333333333334
-0.28,-0.015,9936.111111111111
-0.26,-0.07,9938.888888888889
-0.23,-0.08,9941.666666666666
-0.225,-0.045,9944.444444444445
-0.24,0.01,9947.222222222223
-0.245,-0.005,9950.0
-0.25,-0.02,9952.777777777777
-0.265,-0.04,9955.555555555555
-0.24,-0.02,9958.333333333334
-0.23,0.005,9961.111111111111
-0.255,-0.005,9963.888888888889
-0.255,-0.015,9966.666666666666
-0.265,-0.035,9969.444444444445
-0.28,-0.045,9972.222222222223
-0.27,-0.04,9975.0
-0.245,0.005,9977.777777777777
-0.255,0.025,9980.555555555555
-0.275,0.04,9983.333333333334
-0.285,0.03,9986.111111111111
-0.28,0.04,9988.888888888889
-0.245,0.04,9991.666666666666
-0.175,0.03,9994.444444444445
-0.07,-0.025,9997.222222222223
0.045,-0.07,10000.0
0.145,-0.17,10002.777777777777
0.275,-0.225,10005.555555555555
0.405,-0.255,10008.333333333334
0.53,-0.26,10011.111111111111
0.62,-0.31,10013.888888888889
0.68,-0.37,10016.666666666666
0.66,-0.43,10019.444444444445
0.545,-0.435,10022.222222222223
0.36,-0.415,10025.0
0.115,-0.355,10027.777777777777
-0.18,-0.305,10030.555555555555
-0.5,-0.285,10033.333333333334
-0.755,-0.285,10036.111111111111
-0.89,-0.23,10038.888888888889
-0.88,-0.165,10041.666666666666
-0.76,-0.085,10044.444444444445
-0.635,-0.04,10047.222222222223
-0.55,-0.025,10050.0
-0.49,-0.025,10052.777777777777
-0.44,-0.03,10055.555555555555
-0.38,-0.025,10058.333333333334
-0.34,-0.01,10061.111111111111
-0.305,-0.015,10063.888888888889
-0.275,-0.03,10066.666666666666
-0.255,-0.05,10069.444444444445
-0.23,-0.06,10072.222222222223
-0.23,-0.035,10075.0
-0.21,-0.015,10077.777777777777
-0.215,-0.035,10080.555555555555
-0.22,-0.07,10083.333333333334
-0.24,-0.08,10086.111111111111
-0.245,-0.045,10088.888888888889
-0.235,-0.005,10091.666666666666
-0.2,0.035,10094.444444444445
-0.175,-0.005,10097.222222222223
-0.175,-0.02,10100.0
-0.185,-0.035,10102.777777777777
-0.185,-0.03,10105.555555555555
-0.155,-0.03,10108.333333333334
-0.14,-0.035,10111.111111111111
-0.13,-0.08,10113.888888888889
-0.125,-0.105,10116.666666666666
-0.15,-0.11,10119.444444444445
-0.115,-0.085,10122.222222222223
-0.085,-0.045,10125.0
-0.055,-0.03,10127.777777777777
-0.055,-0.045,10130.555555555555
-0.05,-0.06,10133.333333333334
-0.035,-0.07,10136.111111111111
-0.02,-0.055,10138.888888888889
-0.01,-0.05,10141.666666666666
0.03,-0.03,10144.444444444445
0.03,-0.055,10147.222222222223
0.04,-0.075,10150.0
0.04,-0.09,10152.777777777777
0.05,-0.095,10155.555555555555
0.08,-0.08,10158.333333333334
0.115,-0.055,10161.111111111111
0.135,-0.025,10163.888888888889
0.14,-0.025,10166.666666666666
0.145,-0.055,10169.444444444445
0.15,-0.08,10172.222222222223
0.175,-0.085,10175.0
0.185,-0.065,10177.777777777777
0.2,-0.045,10180.555555555555
0.185,-0.045,10183.333333333334
0.185,-0.09,10186.111111111111
0.195,-0.13,10188.888888888889
0.22,-0.1,10191.666666666666
0.23,-0.07,10194.444444444445
0.215,-0.08,10197.222222222223
0.2,-0.08,10200.0
0.19,-0.08,10202.777777777777
0.17,-0.04,10205.555555555555
0.165,-0.01,10208.333333333334
0.165,0.02,10211.111111111111
0.165,-0.02,10213.888888888889
0.16,-0.075,10216.666666666666
0.14,-0.14,10219.444444444445
0.115,-0.13,10222.222222222223
0.1,-0.075,10225.0
0.085,-0.02,10227.777777777777
0.055,-0.01,10230.555555555555
0.03,-0.015,10233.333333333334
-0.025,-0.03,10236.111111111111
-0.055,-0.015,10238.888888888889
-0.06,0.005,10241.666666666666
-0.04,0.05,10244.444444444445
-0.06,0.025,10247.222222222223
-0.09,-0.01,10250.0
-0.105,-0.035,10252.777777777777
-0.125,-0.04,10255.555555555555
-0.14,-0.015,10258.333333333334
-0.13,-0.015,10261.111111111111
-0.14,-0.005,10263.888888888889
-0.155,0.0,10266.666666666666
-0.185,0.0,10269.444444444445
-0.185,0.005,10272.222222222223
-0.185,0.035,10275.0
-0.185,0.035,10277.777777777777
-0.18,0.01,10280.555555555555
-0.18,-0.02,10283.333333333334
-0.185,-0.015,10286.111111111111
-0.2,-0.025,10288.888888888889
-0.21,-0.005,10291.666666666666
-0.185,0.03,10294.444444444445
-0.18,0.03,10297.222222222223
-0.195,0.02,10300.0
-0.215,0.015,10302.777777777777
-0.215,0.025,10305.555555555555
-0.21,0.06,10308.333333333334
-0.195,0.075,10311.111111111111
-0.19,0.045,10313.888888888889
-0.2,0.035,10316.666666666666
-0.215,0.04,10319.444444444445
-0.22,0.05,10322.222222222223
-0.2,0.07,10325.0
-0.17,0.055,10327.777777777777
-0.155,0.04,10330.555555555555
-0.155,0.025,10333.333333333334
-0.18,0.04,10336.111111111111
-0.185,0.05,10338.888888888889
-0.185,0.085,10341.666666666666
-0.155,0.115,10344.444444444445
-0.13,0.115,10347.222222222223
-0.13,0.09,10350.0
-0.125,0.075,10352.777777777777
-0.135,0.05,10355.555555555555
-0.115,0.01,10358.333333333334
-0.09,-0.02,10361.111111111111
-0.085,-0.015,10363.888888888889
-0.115,0.0,10366.666666666666
-0.16,-0.005,10369.444444444445
-0.185,0.005,10372.222222222223
-0.19,0.04,10375.0
-0.18,0.08,10377.777777777777
-0.185,0.085,10380.555555555555
-0.195,0.065,10383.333333333334
-0.21,0.08,10386.111111111111
-0.21,0.085,10388.888888888889
-0.205,0.06,10391.666666666666
-0.19,0.02,10394.444444444445
-0.19,0.01,10397.222222222223
-0.195,0.03,10400.0
-0.23,0.07,10402.777777777777
-0.25,0.075,10405.555555555555
-0.25,0.045,10408.333333333334
-0.22,0.02,10411.111111111111
-0.205,0.03,10413.888888888889
-0.225,0.025,10416.666666666666
-0.23,0.03,10419.444444444445
-0.245,0.055,10422.222222222223
-0.245,0.095,10425.0
-0.225,0.09,10427.777777777777
-0.22,0.075,10430.555555555555
-0.22,0.005,10433.333333333334
-0.23,-0.02,10436.111111111111
-0.24,0.005,10438.888888888889
-0.235,0.05,10441.666666666666
-0.21,0.075,10444.444444444445
-0.19,0.06,10447.222222222223
-0.185,0.045,10450.0
-0.18,0.02,10452.777777777777
-0.195,0.015,10455.555555555555
-0.215,0.035,10458.333333333334
-0.21,0.05,10461.111111111111
-0.22,0.03,10463.888888888889
-0.225,0.02,10466.666666666666
-0.24,0.035,10469.444444444445
-0.26,0.05,10472.222222222223
-0.245,0.075,10475.0
-0.23,0.11,10477.777777777777
-0.22,0.105,10480.555555555555
-0.22,0.05,10483.333333333334
-0.22,0.025,10486.111111111111
-0.23,0.035,10488.888888888889
-0.215,0.095,10491.666666666666
-0.21,0.11,10494.444444444445
-0.21,0.07,10497.222222222223
-0.23,0.06,10500.0
-0.245,0.09,10502.777777777777
-0.2,0.14,10505.555555555555
-0.095,0.14,10508.333333333334
0.07,0.07,10511.111111111111
0.215,-0.025,10513.888888888889
0.36,-0.09,10516.666666666666
0.495,-0.13,10519.444444444445
0.615,-0.18,10522.222222222223
0.71,-0.235,10525.0
0.775,-0.285,10527.777777777777
0.75,-0.345,10530.555555555555
0.61,-0.39,10533.333333333334
0.41,-0.405,10536.111111111111
0.125,-0.37,10538.888888888889
-0.24,-0.275,10541.666666666666
-0.575,-0.195,10544.444444444445
-0.81,-0.135,10547.222222222223
-0.88,-0.095,10550.0
-0.81,-0.02,10552.777777777777
-0.675,0.06,10555.555555555555
-0.545,0.09,10558.333333333334
-0.44,0.095,10561.111111111111
-0.355,0.07,10563.888888888889
-0.3,0.03,10566.666666666666
-0.26,0.005,10569.444444444445
-0.26,0.0,10572.222222222223
-0.24,0.035,10575.0
-0.2,0.06,10577.777777777777
-0.195,0.065,10580.555555555555
-0.19,0.04,10583.333333333334
-0.195,0.025,10586.111111111111
-0.195,0.04,10588.888888888889
-0.175,0.07,10591.666666666666
-0.155,0.09,10594.444444444445
-0.145,0.105,10597.222222222223
-0.155,0.1,10600.0
-0.17,0.08,10602.777777777777
-0.16,0.085,10605.555555555555
-0.15,0.1,10608.333333333334
-0.12,0.125,10611.111111111111
-0.095,0.13,10613.888888888889
-0.11,0.11,10616.666666666666
-0.11,0.08,10619.444444444445
-0.095,0.065,10622.222222222223
-0.095,0.1,10625.0
-0.075,0.135,10627.777777777777
-0.055,0.13,10630.555555555555
-0.03,0.085,10633.333333333334
-0.03,0.045,10636.111111111111
-0.02,0.005,10638.888888888889
0.015,0.015,10641.666666666666
0.04,0.035,10644.444444444445
0.05,0.03,10647.222222222223
0.04,0.05,10650.0
0.04,0.045,10652.777777777777
0.055,0.05,10655.555555555555
0.1,0.065,10658.333333333334
0.125,0.07,10661.111111111111
0.15,0.045,10663.888888888889
0.165,0.015,10666.666666666666
0.185,0.005,10669.444444444445
0.17,0.0,10672.222222222223
0.175,0.03,10675.0
0.195,0.03,10677.777777777777
0.215,0.015,10680.555555555555
0.235,-0.005,10683.333333333334
0.23,-0.015,10686.111111111111
0.22,0.005,10688.888888888889
0.23,0.02,10691.666666666666
0.255,0.035,10694.444444444445
0.27,0.035,10697.222222222223
0.24,0.04,10700.0
0.195,0.035,10702.777777777777
0.19,0.02,10705.555555555555
0.215,0.035,10708.333333333334
0.225,0.035,10711.111111111111
0.215,0.01,10713.888888888889
0.18,0.01,10716.666666666666
0.145,0.02,10719.444444444445
0.145,0.035,10722.222222222223
0.14,0.045,10725.0
0.125,0.065,10727.777777777777
0.095,0.075,10730.555555555555
0.05,0.075,10733.333333333334
0.005,0.065,10736.111111111111
-0.005,0.055,10738.888888888889
-0.015,0.05,10741.666666666666
-0.025,0.07,10744.444444444445
-0.03,0.065,10747.222222222223
-0.07,0.075,10750.0
-0.11,0.075,10752.777777777777
-0.125,0.1,10755.555555555555
-0.115,0.125,10758.333333333334
-0.115,0.125,10761.111111111111
-0.125,0.135,10763.888888888889
-0.14,0.085,10766.666666666666
-0.17,0.09,10769.444444444445
-0.165,0.095,10772.222222222223
-0.16,0.085,10775.0
-0.17,0.125,10777.777777777777
-0.185,0.12,10780.555555555555
-0.19,0.115,10783.333333333334
-0.185,0.1,10786.111111111111
-0.185,0.1,10788.888888888889
-0.18,0.115,10791.666666666666
-0.16,0.135,10794.444444444445
-0.155,0.105,10797.222222222223
-0.165,0.08,10800.0
-0.19,0.065,10802.777777777777
-0.18,0.09,10805.555555555555
-0.18,0.1,10808.333333333334
-0.19,0.115,10811.111111111111
-0.195,0.11,10813.888888888889
-0.19,0.095,10816.666666666666
-0.2,0.1,10819.444444444445
-0.205,0.115,10822.222222222223
-0.19,0.13,10825.0
-0.16,0.135,10827.777777777777
-0.155,0.115,10830.555555555555
-0.165,0.135,10833.333333333334
-0.17,0.15,10836.111111111111
-0.165,0.14,10838.888888888889
-0.155,0.145,10841.666666666666
-0.125,0.145,10844.444444444445
-0.115,0.15,10847.222222222223
-0.135,0.155,10850.0
-0.135,0.16,10852.777777777777
-0.125,0.165,10855.555555555555
-0.1,0.17,10858.333333333334
-0.07,0.18,10861.111111111111
-0.05,0.155,10863.888888888889
-0.055,0.135,10866.666666666666
-0.09,0.12,10869.444444444445
-0.12,0.11,10872.222222222223
-0.13,0.115,10875.0
-0.145,0.14,10877.777777777777
-0.15,0.125,10880.555555555555
-0.19,0.085,10883.333333333334
-0.21,0.065,10886.111111111111
-0.205,0.06,10888.888888888889
-0.195,0.105,10891.666666666666
-0.17,0.105,10894.444444444445
-0.16,0.095,10897.222222222223
-0.16,0.09,10900.0
-0.165,0.085,10902.777777777777
-0.18,0.075,10905.555555555555
-0.195,0.075,10908.333333333334
-0.185,0.095,10911.111111111111
-0.19,0.105,10913.888888888889
-0.21,0.075,10916.666666666666
-0.225,0.05,10919.444444444445
-0.23,0.06,10922.222222222223
-0.235,0.085,10925.0
-0.225,0.12,10927.777777777777
-0.235,0.115,10930.555555555555
-0.24,0.11,10933.333333333334
-0.25,0.065,10936.111111111111
-0.235,0.09,10938.888888888889
-0.21,0.11,10941.666666666666
-0.21,0.125,10944.444444444445
-0.21,0.1,10947.222222222223
-0.215,0.07,10950.0
-0.23,0.07,10952.777777777777
-0.235,0.09,10955.555555555555
-0.225,0.115,10958.333333333334
-0.2,0.145,10961.111111111111
-0.175,0.135,10963.888888888889
-0.19,0.115,10966.666666666666
-0.21,0.075,10969.444444444445
-0.205,0.065,10972.222222222223
-0.18,0.09,10975.0
-0.18,0.095,10977.777777777777
-0.19,0.135,10980.555555555555
-0.21,0.14,10983.333333333334
-0.24,0.11,10986.111111111111
-0.245,0.07,10988.888888888889
-0.255,0.045,10991.666666666666
-0.24,0.08,10994.444444444445
-0.23,0.095,10997.222222222223
-0.24,0.1,11000.0
-0.25,0.1,11002.777777777777
-0.26,0.1,11005.555555555555
-0.265,0.165,11008.333333333334
-0.245,0.205,11011.111111111111
-0.19,0.17,11013.888888888889
-0.085,0.105,11016.666666666666
0.025,0.03,11019.444444444445
0.155,-0.005,11022.222222222223
0.31,-0.075,11025.0
0.47,-0.12,11027.777777777777
0.595,-0.19,11030.555555555555
0.65,-0.27,11033.333333333334
0.645,-0.315,11036.111111111111
0.57,-0.33,11038.888888888889
0.435,-0.305,11041.666666666666
0.26,-0.275,11044.444444444445
-0.02,-0.24,11047.222222222223
-0.365,-0.165,11050.0
-0.685,-0.14,11052.777777777777
-0.87,-0.115,11055.555555555555
-0.885,-0.06,11058.333333333334
-0.75,0.05,11061.111111111111
-0.61,0.13,11063.888888888889
-0.515,0.13,11066.666666666666
-0.455,0.065,11069.444444444445
-0.39,0.075,11072.222222222223
-0.3,0.045,11075.0
-0.24,0.055,11077.777777777777
-0.225,0.065,11080.555555555555
-0.22,0.075,11083.333333333334
-0.22,0.055,11086.111111111111
-0.21,0.06,11088.888888888889
-0.19,0.07,11091.666666666666
-0.175,0.11,11094.444444444445
-0.16,0.11,11097.222222222223
-0.18,0.085,11100.0
-0.185,0.055,11102.777777777777
-0.19,0.035,11105.555555555555
-0.175,0.06,11108.333333333334
-0.15,0.075,11111.111111111111
-0.115,0.08,11113.888888888889
-0.115,0.06,11116.666666666666
-0.125,0.035,11119.444444444445
-0.13,0.02,11122.222222222223
-0.105,0.025,11125.0
-0.09,0.06,11127.777777777777
-0.07,0.075,11130.555555555555
-0.065,0.06,11133.333333333334
-0.08,0.045,11136.111111111111
-0.075,0.05,11138.888888888889
-0.055,0.09,11141.666666666666
-0.04,0.105,11144.444444444445
-0.015,0.1,11147.222222222223
-0.005,0.065,11150.0
0.005,0.03,11152.777777777777
0.015,-0.01,11155.555555555555
0.05,0.015,11158.333333333334
0.08,0.035,11161.111111111111
0.105,0.025,11163.888888888889
0.12,0.015,11166.666666666666
0.12,-0.005,11169.444444444445
0.13,0.01,11172.222222222223
0.155,-0.005,11175.0
0.19,0.015,11177.777777777777
0.19,0.05,11180.555555555555
0.175,0.055,11183.333333333334
0.185,0.01,11186.111111111111
0.19,-0.05,11188.888888888889
0.215,-0.065,11191.666666666666
0.245,-0.035,11194.444444444445
0.235,-0.005,11197.222222222223
0.23,-0.005,11200.0
0.205,-0.015,11202.777777777777
0.205,-0.03,11205.555555555555
0.225,-0.025,11208.333333333334
0.235,0.005,11211.111111111111
0.235,-0.015,11213.888888888889
0.2,-0.05,11216.666666666666
0.155,-0.015,11219.444444444445
0.115,0.02,11222.222222222223
0.095,0.045,11225.0
0.095,0.04,11227.777777777777
0.09,0.05,11230.555555555555
0.075,0.045,11233.333333333334
0.035,0.07,11236.111111111111
0.01,0.095,11238.888888888889
-0.02,0.085,11241.666666666666
-0.035,0.055,11244.444444444445
-0.05,0.045,11247.222222222223
-0.08,0.06,11250.0
-0.105,0.08,11252.777777777777
-0.115,0.075,11255.555555555555
-0.125,0.07,11258.333333333334
-0.135,0.075,11261.111111111111
-0.145,0.075,11263.888888888889
-0.15,0.07,11266.666666666666
-0.2,0.08,11269.444444444445
-0.235,0.105,11272.222222222223
-0.225,0.125,11275.0
-0.205,0.145,11277.777777777777
-0.185,0.09,11280.555555555555
-0.185,0.025,11283.333333333334
-0.195,-0.01,11286.111111111111
-0.205,0.035,11288.888888888889
-0.205,0.055,11291.666666666666
-0.18,0.07,11294.444444444445
-0.18,0.07,11297.222222222223
-0.185,0.095,11300.0
-0.215,0.095,11302.777777777777
-0.22,0.07,11305.555555555555
-0.21,0.035,11308.333333333334
-0.165,0.025,11311.111111111111
-0.16,0.04,11313.888888888889
-0.17,0.035,11316.666666666666
-0.185,0.025,11319.444444444445
-0.185,0.03,11322.222222222223
-0.19,0.055,11325.0
-0.19,0.075,11327.777777777777
-0.2,0.065,11330.555555555555
-0.19,0.045,11333.333333333334
-0.19,0.045,11336.111111111111
-0.195,0.075,11338.888888888889
-0.175,0.11,11341.666666666666
-0.16,0.135,11344.444444444445
-0.17,0.16,11347.222222222223
-0.185,0.18,11350.0
-0.175,0.16,11352.777777777777
-0.155,0.105,11355.555555555555
-0.125,0.055,11358.333333333334
-0.09,0.035,11361.111111111111
-0.11,0.05,11363.888888888889
-0.11,0.08,11366.666666666666
-0.125,0.085,11369.444444444445
-0.135,0.095,11372.222222222223
-0.135,0.075,11375.0
-0.14,0.055,11377.777777777777
-0.14,0.035,11380.555555555555
-0.135,-0.025,11383.333333333334
-0.125,-0.075,11386.111111111111
-0.155,-0.1,11388.888888888889
-0.195,-0.055,11391.666666666666
-0.215,-0.01,11394.444444444445
-0.215,0.02,11397.222222222223
-0.195,0.03,11400.0
-0.2,0.02,11402.777777777777
-0.185,-0.015,11405.555555555555
-0.175,-0.025,11408.333333333334
-0.185,-0.02,11411.111111111111
-0.205,-0.02,11413.888888888889
-0.215,-0.005,11416.666666666666
-0.235,-0.03,11419.444444444445
-0.235,-0.035,11422.222222222223
-0.22,-0.025,11425.0
-0.225,-0.015,11427.777777777777
-0.23,0.0,11430.555555555555
-0.245,-0.02,11433.333333333334
-0.255,-0.025,11436.111111111111
-0.26,-0.025,11438.888888888889
-0.265,0.015,11441.666666666666
-0.255,0.025,11444.444444444445
-0.235,0.01,11447.222222222223
-0.24,0.0,11450.0
-0.27,-0.03,11452.777777777777
-0.27,-0.06,11455.555555555555
-0.25,-0.07,11458.333333333334
-0.235,-0.025,11461.111111111111
-0.23,0.015,11463.888888888889
-0.25,0.015,11466.666666666666
-0.27,-0.01,11469.444444444445
-0.27,-0.035,11472.222222222223
-0.25,-0.055,11475.0
