MLII,V1,time_ms
0.045,-0.76,0.0
0.045,-0.76,2.7777777777777777
0.045,-0.76,5.555555555555555
0.045,-0.76,8.333333333333334
0.045,-0.76,11.11111111111111
0.045,-0.76,13.88888888888889
0.045,-0.76,16.666666666666668
0.045,-0.77,19.444444444444443
0.045,-0.76,22.22222222222222
0.035,-0.74,25.0
0.03,-0.72,27.77777777777778
0.045,-0.685,30.555555555555557
0.05,-0.655,33.333333333333336
0.065,-0.64,36.111111111111114
0.035,-0.645,38.888888888888886
0.03,-0.61,41.666666666666664
0.015,-0.57,44.44444444444444
0.04,-0.53,47.22222222222222
0.045,-0.485,50.0
0.02,-0.47,52.77777777777778
0.01,-0.45,55.55555555555556
-0.02,-0.42,58.333333333333336
-0.01,-0.395,61.111111111111114
-0.01,-0.35,63.888888888888886
-0.015,-0.32,66.66666666666667
-0.035,-0.295,69.44444444444444
-0.055,-0.29,72.22222222222223
-0.07,-0.25,75.0
-0.085,-0.225,77.77777777777777
-0.075,-0.175,80.55555555555556
-0.075,-0.16,83.33333333333333
-0.1,-0.145,86.11111111111111
-0.12,-0.125,88.88888888888889
-0.135,-0.105,91.66666666666667
-0.15,-0.08,94.44444444444444
-0.13,-0.045,97.22222222222223
-0.13,-0.02,100.0
-0.135,-0.01,102.77777777777777
-0.155,-0.005,105.55555555555556
-0.17,0.0,108.33333333333333
-0.175,0.04,111.11111111111111
-0.165,0.05,113.88888888888889
-0.16,0.08,116.66666666666667
-0.175,0.075,119.44444444444444
-0.205,0.065,122.22222222222223
-0.2,0.075,125.0
-0.195,0.085,127.77777777777777
-0.205,0.1,130.55555555555554
-0.19,0.12,133.33333333333334
-0.195,0.11,136.11111111111111
-0.21,0.105,138.88888888888889
-0.21,0.105,141.66666666666666
-0.205,0.1,144.44444444444446
-0.19,0.115,147.22222222222223
-0.175,0.115,150.0
-0.19,0.1,152.77777777777777
-0.195,0.08,155.55555555555554
-0.205,0.07,158.33333333333334
-0.2,0.08,161.11111111111111
-0.185,0.11,163.88888888888889
-0.17,0.115,166.66666666666666
-0.155,0.125,169.44444444444446
-0.185,0.11,172.22222222222223
-0.195,0.12,175.0
-0.205,0.125,177.77777777777777
-0.185,0.145,180.55555555555554
-0.175,0.15,183.33333333333334
-0.18,0.14,186.11111111111111
-0.19,0.135,188.88888888888889
-0.22,0.135,191.66666666666666
-0.2,0.14,194.44444444444446
-0.18,0.155,197.22222222222223
-0.185,0.17,200.0
-0.18,0.15,202.77777777777777
-0.195,0.15,205.55555555555554
-0.22,0.155,208.33333333333334
-0.2,0.16,211.11111111111111
-0.175,0.175,213.88888888888889
-0.175,0.175,216.66666666666666
-0.185,0.17,219.44444444444446
-0.2,0.15,222.22222222222223
-0.215,0.15,225.0
-0.225,0.17,227.77777777777777
-0.21,0.185,230.55555555555554
-0.195,0.19,233.33333333333334
-0.2,0.17,236.11111111111111
-0.215,0.16,238.88888888888889
-0.235,0.16,241.66666666666666
-0.235,0.17,244.44444444444446
-0.22,0.175,247.22222222222223
-0.225,0.18,250.0
-0.215,0.165,252.77777777777777
-0.23,0.16,255.55555555555554
-0.24,0.145,258.3333333333333
-0.245,0.155,261.1111111111111
-0.23,0.165,263.8888888888889
-0.21,0.165,266.6666666666667
-0.215,0.15,269.44444444444446
-0.22,0.145,272.22222222222223
-0.235,0.13,275.0
-0.22,0.145,277.77777777777777
-0.205,0.165,280.55555555555554
-0.215,0.15,283.3333333333333
-0.205,0.145,286.1111111111111
-0.205,0.15,288.8888888888889
-0.215,0.155,291.6666666666667
-0.25,0.165,294.44444444444446
-0.215,0.175,297.22222222222223
-0.2,0.185,300.0
-0.215,0.165,302.77777777777777
-0.22,0.16,305.55555555555554
-0.24,0.16,308.3333333333333
-0.23,0.175,311.1111111111111
-0.215,0.18,313.8888888888889
-0.2,0.185,316.6666666666667
-0.2,0.185,319.44444444444446
-0.215,0.16,322.22222222222223
-0.21,0.16,325.0
-0.215,0.175,327.77777777777777
-0.2,0.185,330.55555555555554
-0.19,0.19,333.3333333333333
-0.19,0.17,336.1111111111111
-0.2,0.15,338.8888888888889
-0.195,0.165,341.6666666666667
-0.205,0.17,344.44444444444446
-0.215,0.18,347.22222222222223
-0.19,0.18,350.0
-0.195,0.18,352.77777777777777
-0.225,0.155,355.55555555555554
-0.22,0.16,358.3333333333333
-0.235,0.17,361.1111111111111
-0.23,0.18,363.8888888888889
-0.195,0.19,366.6666666666667
-0.21,0.165,369.44444444444446
-0.22,0.135,372.22222222222223
-0.225,0.145,375.0
-0.22,0.145,377.77777777777777
-0.195,0.155,380.55555555555554
-0.175,0.155,383.3333333333333
-0.175,0.155,386.1111111111111
-0.19,0.14,388.8888888888889
-0.2,0.14,391.6666666666667
-0.21,0.145,394.44444444444446
-0.195,0.135,397.22222222222223
-0.185,0.145,400.0
-0.165,0.135,402.77777777777777
-0.18,0.125,405.55555555555554
-0.195,0.115,408.3333333333333
-0.195,0.135,411.1111111111111
-0.185,0.145,413.8888888888889
-0.17,0.155,416.6666666666667
-0.185,0.16,419.44444444444446
-0.195,0.145,422.22222222222223
-0.2,0.145,425.0
-0.2,0.16,427.77777777777777
-0.18,0.165,430.55555555555554
-0.15,0.16,433.3333333333333
-0.175,0.16,436.1111111111111
-0.17,0.15,438.8888888888889
-0.19,0.135,441.6666666666667
-0.195,0.15,444.44444444444446
-0.165,0.155,447.22222222222223
-0.145,0.17,450.0
-0.145,0.14,452.77777777777777
-0.165,0.135,455.55555555555554
-0.17,0.14,458.3333333333333
-0.16,0.16,461.1111111111111
-0.15,0.17,463.8888888888889
-0.15,0.17,466.6666666666667
-0.145,0.155,469.44444444444446
-0.155,0.13,472.22222222222223
-0.17,0.135,475.0
-0.16,0.125,477.77777777777777
-0.165,0.145,480.55555555555554
-0.14,0.15,483.3333333333333
-0.15,0.125,486.1111111111111
-0.165,0.105,488.8888888888889
-0.205,0.1,491.6666666666667
-0.195,0.105,494.44444444444446
-0.19,0.125,497.22222222222223
-0.155,0.11,500.0
-0.165,0.095,502.77777777777777
-0.175,0.09,505.55555555555554
-0.165,0.08,508.3333333333333
-0.155,0.105,511.1111111111111
-0.145,0.105,513.8888888888889
-0.13,0.1,516.6666666666666
-0.125,0.075,519.4444444444445
-0.115,0.045,522.2222222222222
-0.105,0.05,525.0
-0.085,0.06,527.7777777777778
-0.03,0.08,530.5555555555555
0.045,0.075,533.3333333333334
0.17,0.065,536.1111111111111
0.455,0.065,538.8888888888889
0.905,0.065,541.6666666666666
1.415,0.07,544.4444444444445
1.65,0.065,547.2222222222222
1.52,0.02,550.0
1.225,-0.08,552.7777777777778
1.03,-0.25,555.5555555555555
0.94,-0.525,558.3333333333334
0.86,-0.86,561.1111111111111
0.795,-1.075,563.8888888888889
0.7,-1.075,566.6666666666666
0.59,-0.955,569.4444444444445
0.45,-0.86,572.2222222222222
0.35,-0.835,575.0
0.25,-0.8,577.7777777777778
0.145,-0.765,580.5555555555555
0.035,-0.75,583.3333333333334
-0.07,-0.755,586.1111111111111
-0.205,-0.765,588.8888888888889
-0.33,-0.76,591.6666666666666
-0.465,-0.755,594.4444444444445
-0.595,-0.765,597.2222222222222
-0.75,-0.775,600.0
-0.91,-0.79,602.7777777777778
-1.05,-0.805,605.5555555555555
-1.185,-0.805,608.3333333333334
-1.275,-0.805,611.1111111111111
-1.35,-0.81,613.8888888888889
-1.42,-0.82,616.6666666666666
-1.485,-0.835,619.4444444444445
-1.55,-0.855,622.2222222222222
-1.6,-0.865,625.0
-1.605,-0.89,627.7777777777778
-1.59,-0.89,630.5555555555555
-1.55,-0.91,633.3333333333334
-1.51,-0.94,636.1111111111111
-1.465,-0.985,638.8888888888889
-1.42,-1.025,641.6666666666666
-1.325,-1.06,644.4444444444445
-1.205,-1.085,647.2222222222222
-1.07,-1.095,650.0
-0.97,-1.11,652.7777777777778
-0.865,-1.11,655.5555555555555
-0.78,-1.08,658.3333333333334
-0.675,-1.035,661.1111111111111
-0.62,-0.955,663.8888888888889
-0.575,-0.91,666.6666666666666
-0.535,-0.885,669.4444444444445
-0.475,-0.87,672.2222222222222
-0.385,-0.825,675.0
-0.29,-0.77,677.7777777777778
-0.19,-0.69,680.5555555555555
-0.1,-0.6,683.3333333333334
-0.035,-0.52,686.1111111111111
-0.005,-0.43,688.8888888888889
0.015,-0.32,691.6666666666666
0.035,-0.19,694.4444444444445
0.06,-0.09,697.2222222222222
0.085,0.005,700.0
0.105,0.05,702.7777777777778
0.09,0.08,705.5555555555555
0.09,0.105,708.3333333333334
0.095,0.12,711.1111111111111
0.12,0.15,713.8888888888889
0.14,0.18,716.6666666666666
0.13,0.17,719.4444444444445
0.1,0.175,722.2222222222222
0.095,0.18,725.0
0.105,0.195,727.7777777777778
0.115,0.215,730.5555555555555
0.155,0.23,733.3333333333334
0.145,0.22,736.1111111111111
0.14,0.205,738.8888888888889
0.13,0.225,741.6666666666666
0.125,0.22,744.4444444444445
0.15,0.255,747.2222222222222
0.18,0.265,750.0
0.175,0.26,752.7777777777778
0.18,0.235,755.5555555555555
0.185,0.235,758.3333333333334
0.195,0.25,761.1111111111111
0.225,0.245,763.8888888888889
0.25,0.27,766.6666666666666
0.285,0.255,769.4444444444445
0.27,0.245,772.2222222222222
0.285,0.245,775.0
0.3,0.255,777.7777777777778
0.33,0.28,780.5555555555555
0.355,0.285,783.3333333333334
0.365,0.285,786.1111111111111
0.355,0.285,788.8888888888889
0.36,0.305,791.6666666666666
0.38,0.33,794.4444444444445
0.395,0.345,797.2222222222222
0.425,0.36,800.0
0.435,0.345,802.7777777777778
0.435,0.355,805.5555555555555
0.435,0.365,808.3333333333334
0.445,0.385,811.1111111111111
0.47,0.4,813.8888888888889
0.5,0.41,816.6666666666666
0.515,0.39,819.4444444444445
0.515,0.385,822.2222222222222
0.53,0.395,825.0
0.525,0.425,827.7777777777778
0.555,0.45,830.5555555555555
0.58,0.45,833.3333333333334
0.61,0.45,836.1111111111111
0.595,0.44,838.8888888888889
0.62,0.45,841.6666666666666
0.63,0.465,844.4444444444445
0.65,0.48,847.2222222222222
0.67,0.5,850.0
0.67,0.49,852.7777777777778
0.665,0.485,855.5555555555555
0.65,0.495,858.3333333333334
0.645,0.525,861.1111111111111
0.66,0.535,863.8888888888889
0.65,0.55,866.6666666666666
0.665,0.55,869.4444444444445
0.655,0.545,872.2222222222222
0.65,0.54,875.0
0.65,0.56,877.7777777777778
0.66,0.58,880.5555555555555
0.67,0.595,883.3333333333334
0.67,0.575,886.1111111111111
0.65,0.565,888.8888888888889
0.63,0.555,891.6666666666666
0.6,0.58,894.4444444444445
0.61,0.57,897.2222222222222
0.605,0.57,900.0
0.59,0.555,902.7777777777778
0.555,0.54,905.5555555555555
0.52,0.54,908.3333333333334
0.505,0.545,911.1111111111111
0.49,0.575,913.8888888888889
0.475,0.555,916.6666666666666
0.45,0.555,919.4444444444445
0.405,0.525,922.2222222222222
0.37,0.515,925.0
0.34,0.515,927.7777777777778
0.32,0.52,930.5555555555555
0.305,0.5,933.3333333333334
0.3,0.48,936.1111111111111
0.265,0.46,938.8888888888889
0.235,0.445,941.6666666666666
0.205,0.44,944.4444444444445
0.21,0.445,947.2222222222222
0.19,0.43,950.0
0.18,0.395,952.7777777777778
0.15,0.365,955.5555555555555
0.12,0.35,958.3333333333334
0.1,0.34,961.1111111111111
0.09,0.34,963.8888888888889
0.09,0.32,966.6666666666666
0.07,0.31,969.4444444444445
0.05,0.27,972.2222222222222
0.04,0.255,975.0
0.03,0.245,977.7777777777778
0.035,0.265,980.5555555555555
0.03,0.255,983.3333333333334
0.015,0.235,986.1111111111111
-0.005,0.215,988.8888888888889
-0.015,0.2,991.6666666666666
-0.03,0.215,994.4444444444445
-0.025,0.23,997.2222222222222
-0.015,0.22,1000.0
-0.02,0.215,1002.7777777777778
-0.03,0.2,1005.5555555555555
-0.04,0.185,1008.3333333333334
-0.05,0.19,1011.1111111111111
-0.05,0.19,1013.8888888888889
-0.03,0.19,1016.6666666666666
-0.035,0.18,1019.4444444444445
-0.045,0.17,1022.2222222222222
-0.065,0.165,1025.0
-0.065,0.165,1027.7777777777778
-0.05,0.16,1030.5555555555557
-0.04,0.16,1033.3333333333333
-0.015,0.14,1036.111111111111
-0.015,0.11,1038.888888888889
-0.025,0.12,1041.6666666666667
-0.035,0.125,1044.4444444444443
-0.015,0.16,1047.2222222222222
-0.01,0.155,1050.0
-0.015,0.135,1052.7777777777778
-0.025,0.12,1055.5555555555557
-0.05,0.12,1058.3333333333333
-0.05,0.135,1061.111111111111
-0.05,0.16,1063.888888888889
-0.035,0.165,1066.6666666666667
-0.04,0.15,1069.4444444444443
-0.065,0.14,1072.2222222222222
-0.065,0.14,1075.0
-0.07,0.16,1077.7777777777778
-0.06,0.17,1080.5555555555557
-0.05,0.17,1083.3333333333333
-0.065,0.17,1086.111111111111
-0.08,0.16,1088.888888888889
-0.095,0.155,1091.6666666666667
-0.105,0.16,1094.4444444444443
-0.095,0.17,1097.2222222222222
-0.075,0.17,1100.0
-0.1,0.155,1102.7777777777778
-0.1,0.14,1105.5555555555557
-0.12,0.145,1108.3333333333333
-0.12,0.155,1111.111111111111
-0.11,0.175,1113.888888888889
-0.115,0.175,1116.6666666666667
-0.11,0.16,1119.4444444444443
-0.12,0.155,1122.2222222222222
-0.15,0.14,1125.0
-0.135,0.16,1127.7777777777778
-0.13,0.175,1130.5555555555557
-0.14,0.18,1133.3333333333333
-0.145,0.175,1136.111111111111
-0.15,0.165,1138.888888888889
-0.175,0.155,1141.6666666666667
-0.185,0.17,1144.4444444444443
-0.18,0.17,1147.2222222222222
-0.17,0.17,1150.0
-0.18,0.155,1152.7777777777778
-0.185,0.145,1155.5555555555557
-0.2,0.135,1158.3333333333333
-0.19,0.15,1161.111111111111
-0.155,0.15,1163.888888888889
-0.145,0.16,1166.6666666666667
-0.145,0.145,1169.4444444444443
-0.155,0.12,1172.2222222222222
-0.175,0.115,1175.0
-0.16,0.12,1177.7777777777778
-0.145,0.125,1180.5555555555557
-0.14,0.12,1183.3333333333333
-0.15,0.115,1186.111111111111
-0.155,0.085,1188.888888888889
-0.17,0.08,1191.6666666666667
-0.16,0.1,1194.4444444444443
-0.15,0.105,1197.2222222222222
-0.15,0.1,1200.0
-0.16,0.105,1202.7777777777778
-0.15,0.09,1205.5555555555557
-0.17,0.095,1208.3333333333333
-0.17,0.11,1211.111111111111
-0.16,0.115,1213.888888888889
-0.15,0.125,1216.6666666666667
-0.16,0.11,1219.4444444444443
-0.15,0.105,1222.2222222222222
-0.175,0.1,1225.0
-0.17,0.105,1227.7777777777778
-0.18,0.125,1230.5555555555557
-0.16,0.13,1233.3333333333333
-0.165,0.115,1236.111111111111
-0.18,0.1,1238.888888888889
-0.19,0.1,1241.6666666666667
-0.185,0.1,1244.4444444444443
-0.18,0.115,1247.2222222222222
-0.17,0.115,1250.0
-0.18,0.095,1252.7777777777778
-0.205,0.105,1255.5555555555557
-0.215,0.1,1258.3333333333333
-0.2,0.11,1261.111111111111
-0.185,0.115,1263.888888888889
-0.175,0.115,1266.6666666666667
-0.17,0.11,1269.4444444444443
-0.19,0.105,1272.2222222222222
-0.195,0.1,1275.0
-0.2,0.12,1277.7777777777778
-0.215,0.13,1280.5555555555557
-0.2,0.125,1283.3333333333333
-0.21,0.125,1286.111111111111
-0.205,0.11,1288.888888888889
-0.215,0.105,1291.6666666666667
-0.22,0.115,1294.4444444444443
-0.2,0.11,1297.2222222222222
-0.19,0.12,1300.0
-0.195,0.115,1302.7777777777778
-0.215,0.09,1305.5555555555557
-0.2,0.085,1308.3333333333333
-0.215,0.09,1311.111111111111
-0.175,0.095,1313.888888888889
-0.16,0.085,1316.6666666666667
-0.16,0.08,1319.4444444444443
-0.15,0.055,1322.2222222222222
-0.155,0.065,1325.0
-0.16,0.07,1327.7777777777778
-0.13,0.085,1330.5555555555557
-0.115,0.075,1333.3333333333333
-0.12,0.065,1336.111111111111
-0.115,0.035,1338.888888888889
-0.115,0.04,1341.6666666666667
-0.08,0.055,1344.4444444444443
-0.04,0.06,1347.2222222222222
0.01,0.065,1350.0
0.1,0.05,1352.7777777777778
0.275,0.04,1355.5555555555557
0.625,0.045,1358.3333333333333
1.125,0.05,1361.111111111111
1.53,0.05,1363.888888888889
1.6,0.015,1366.6666666666667
1.365,-0.065,1369.4444444444443
1.085,-0.195,1372.2222222222222
0.955,-0.43,1375.0
0.885,-0.755,1377.7777777777778
0.82,-1.07,1380.5555555555557
0.735,-1.265,1383.3333333333333
0.645,-1.25,1386.111111111111
0.555,-1.145,1388.888888888889
0.445,-1.04,1391.6666666666667
0.35,-0.97,1394.4444444444443
0.25,-0.93,1397.2222222222222
0.165,-0.9,1400.0
0.06,-0.885,1402.7777777777778
-0.075,-0.875,1405.5555555555557
-0.19,-0.865,1408.3333333333333
-0.32,-0.85,1411.111111111111
-0.43,-0.835,1413.888888888889
-0.535,-0.845,1416.6666666666667
-0.665,-0.855,1419.4444444444443
-0.825,-0.875,1422.2222222222222
-0.975,-0.895,1425.0
-1.125,-0.885,1427.7777777777778
-1.245,-0.88,1430.5555555555557
-1.34,-0.875,1433.3333333333333
-1.43,-0.89,1436.111111111111
-1.515,-0.895,1438.888888888889
-1.6,-0.89,1441.6666666666667
-1.665,-0.9,1444.4444444444443
-1.71,-0.895,1447.2222222222222
-1.74,-0.895,1450.0
-1.79,-0.91,1452.7777777777778
-1.81,-0.93,1455.5555555555557
-1.83,-0.945,1458.3333333333333
-1.835,-0.94,1461.111111111111
-1.775,-0.935,1463.888888888889
-1.725,-0.955,1466.6666666666667
-1.69,-0.995,1469.4444444444443
-1.645,-1.025,1472.2222222222222
-1.58,-1.045,1475.0
-1.47,-1.04,1477.7777777777778
-1.35,-1.055,1480.5555555555557
-1.195,-1.07,1483.3333333333333
-1.07,-1.09,1486.111111111111
-0.95,-1.075,1488.888888888889
-0.88,-1.04,1491.6666666666667
-0.825,-0.98,1494.4444444444443
-0.775,-0.92,1497.2222222222222
-0.72,-0.88,1500.0
-0.665,-0.85,1502.7777777777778
-0.615,-0.81,1505.5555555555557
-0.565,-0.77,1508.3333333333333
-0.5,-0.705,1511.111111111111
-0.43,-0.65,1513.888888888889
-0.365,-0.58,1516.6666666666667
-0.31,-0.55,1519.4444444444443
-0.265,-0.495,1522.2222222222222
-0.225,-0.435,1525.0
-0.175,-0.36,1527.7777777777778
-0.1,-0.28,1530.5555555555557
-0.025,-0.215,1533.3333333333333
0.02,-0.17,1536.111111111111
0.05,-0.13,1538.888888888889
0.065,-0.055,1541.6666666666667
0.095,0.0,1544.4444444444443
0.12,0.05,1547.2222222222222
0.17,0.08,1550.0
0.17,0.115,1552.7777777777778
0.165,0.125,1555.5555555555557
0.185,0.135,1558.3333333333333
0.19,0.155,1561.111111111111
0.205,0.18,1563.888888888889
0.23,0.205,1566.6666666666667
0.235,0.2,1569.4444444444443
0.23,0.19,1572.2222222222222
0.23,0.2,1575.0
0.235,0.22,1577.7777777777778
0.255,0.235,1580.5555555555557
0.285,0.245,1583.3333333333333
0.29,0.24,1586.111111111111
0.28,0.23,1588.888888888889
0.275,0.235,1591.6666666666667
0.26,0.24,1594.4444444444443
0.305,0.245,1597.2222222222222
0.32,0.245,1600.0
0.32,0.235,1602.7777777777778
0.315,0.22,1605.5555555555557
0.315,0.22,1608.3333333333333
0.345,0.24,1611.111111111111
0.365,0.255,1613.888888888889
0.385,0.25,1616.6666666666667
0.4,0.245,1619.4444444444443
0.405,0.245,1622.2222222222222
0.41,0.235,1625.0
0.44,0.25,1627.7777777777778
0.46,0.26,1630.5555555555557
0.5,0.255,1633.3333333333333
0.5,0.26,1636.111111111111
0.505,0.235,1638.888888888889
0.505,0.26,1641.6666666666667
0.535,0.28,1644.4444444444443
0.57,0.305,1647.2222222222222
0.6,0.33,1650.0
0.615,0.33,1652.7777777777778
0.625,0.33,1655.5555555555557
0.635,0.33,1658.3333333333333
0.65,0.355,1661.111111111111
0.68,0.375,1663.888888888889
0.705,0.38,1666.6666666666667
0.725,0.395,1669.4444444444443
0.74,0.39,1672.2222222222222
0.755,0.4,1675.0
0.775,0.42,1677.7777777777778
0.8,0.43,1680.5555555555557
0.845,0.435,1683.3333333333333
0.85,0.435,1686.111111111111
0.86,0.445,1688.888888888889
0.88,0.455,1691.6666666666667
0.905,0.455,1694.4444444444443
0.925,0.485,1697.2222222222222
0.945,0.48,1700.0
0.955,0.465,1702.7777777777778
0.975,0.475,1705.5555555555557
0.98,0.48,1708.3333333333333
1.005,0.505,1711.111111111111
1.025,0.535,1713.888888888889
1.055,0.535,1716.6666666666667
1.045,0.54,1719.4444444444443
1.03,0.54,1722.2222222222222
1.025,0.555,1725.0
1.045,0.57,1727.7777777777778
1.06,0.585,1730.5555555555557
1.06,0.58,1733.3333333333333
1.05,0.585,1736.111111111111
1.055,0.58,1738.888888888889
1.02,0.59,1741.6666666666667
1.005,0.6,1744.4444444444443
0.99,0.61,1747.2222222222222
0.975,0.615,1750.0
0.94,0.6,1752.7777777777778
0.905,0.575,1755.5555555555557
0.885,0.57,1758.3333333333333
0.85,0.585,1761.111111111111
0.825,0.595,1763.888888888889
0.815,0.585,1766.6666666666667
0.765,0.565,1769.4444444444443
0.725,0.54,1772.2222222222222
0.68,0.52,1775.0
0.65,0.51,1777.7777777777778
0.62,0.53,1780.5555555555557
0.61,0.52,1783.3333333333333
0.56,0.495,1786.111111111111
0.495,0.47,1788.888888888889
0.445,0.455,1791.6666666666667
0.4,0.455,1794.4444444444443
0.38,0.455,1797.2222222222222
0.355,0.445,1800.0
0.3,0.415,1802.7777777777778
0.265,0.395,1805.5555555555557
0.215,0.38,1808.3333333333333
0.18,0.37,1811.111111111111
0.175,0.37,1813.888888888889
0.16,0.36,1816.6666666666667
0.125,0.32,1819.4444444444443
0.08,0.295,1822.2222222222222
0.055,0.28,1825.0
0.05,0.295,1827.7777777777778
0.035,0.295,1830.5555555555557
0.025,0.275,1833.3333333333333
0.01,0.255,1836.111111111111
-0.02,0.24,1838.888888888889
-0.045,0.225,1841.6666666666667
-0.045,0.24,1844.4444444444443
-0.06,0.24,1847.2222222222222
-0.055,0.225,1850.0
-0.065,0.225,1852.7777777777778
-0.095,0.195,1855.5555555555557
-0.105,0.195,1858.3333333333333
-0.11,0.19,1861.111111111111
-0.105,0.185,1863.888888888889
-0.095,0.205,1866.6666666666667
-0.1,0.19,1869.4444444444443
-0.115,0.175,1872.2222222222222
-0.155,0.165,1875.0
-0.16,0.17,1877.7777777777778
-0.145,0.19,1880.5555555555557
-0.13,0.185,1883.3333333333333
-0.145,0.165,1886.111111111111
-0.15,0.155,1888.888888888889
-0.15,0.15,1891.6666666666667
-0.155,0.145,1894.4444444444443
-0.13,0.155,1897.2222222222222
-0.13,0.145,1900.0
-0.13,0.115,1902.7777777777778
-0.15,0.1,1905.5555555555557
-0.15,0.105,1908.3333333333333
-0.14,0.105,1911.111111111111
-0.12,0.12,1913.888888888889
-0.1,0.115,1916.6666666666667
-0.1,0.1,1919.4444444444443
-0.115,0.09,1922.2222222222222
-0.135,0.09,1925.0
-0.13,0.1,1927.7777777777778
-0.135,0.115,1930.5555555555557
-0.12,0.125,1933.3333333333333
-0.13,0.105,1936.111111111111
-0.14,0.105,1938.888888888889
-0.145,0.09,1941.6666666666667
-0.165,0.1,1944.4444444444443
-0.17,0.12,1947.2222222222222
-0.145,0.115,1950.0
-0.145,0.105,1952.7777777777778
-0.165,0.09,1955.5555555555557
-0.18,0.1,1958.3333333333333
-0.185,0.105,1961.111111111111
-0.19,0.135,1963.888888888889
-0.175,0.12,1966.6666666666667
-0.2,0.1,1969.4444444444443
-0.205,0.11,1972.2222222222222
-0.22,0.11,1975.0
-0.21,0.13,1977.7777777777778
-0.205,0.14,1980.5555555555557
-0.205,0.12,1983.3333333333333
-0.215,0.12,1986.111111111111
-0.225,0.115,1988.888888888889
-0.23,0.11,1991.6666666666667
-0.235,0.12,1994.4444444444443
-0.235,0.13,1997.2222222222222
-0.22,0.145,2000.0
-0.245,0.135,2002.7777777777778
-0.255,0.12,2005.5555555555557
-0.275,0.11,2008.3333333333333
-0.275,0.13,2011.111111111111
-0.29,0.155,2013.888888888889
-0.28,0.155,2016.6666666666667
-0.29,0.14,2019.4444444444443
-0.295,0.135,2022.2222222222222
-0.315,0.135,2025.0
-0.275,0.15,2027.7777777777778
-0.265,0.155,2030.5555555555557
-0.245,0.155,2033.3333333333333
-0.235,0.145,2036.111111111111
-0.255,0.135,2038.888888888889
-0.26,0.125,2041.6666666666667
-0.24,0.115,2044.4444444444443
-0.24,0.13,2047.2222222222222
-0.22,0.11,2050.0
-0.23,0.09,2052.777777777778
-0.25,0.09,2055.5555555555557
-0.24,0.09,2058.3333333333335
-0.24,0.095,2061.1111111111113
-0.21,0.105,2063.8888888888887
-0.2,0.11,2066.6666666666665
-0.205,0.105,2069.4444444444443
-0.225,0.085,2072.222222222222
-0.235,0.085,2075.0
-0.215,0.09,2077.777777777778
-0.215,0.115,2080.5555555555557
-0.195,0.1,2083.3333333333335
-0.205,0.09,2086.1111111111113
-0.215,0.07,2088.8888888888887
-0.235,0.085,2091.6666666666665
-0.255,0.095,2094.4444444444443
-0.23,0.085,2097.222222222222
-0.215,0.095,2100.0
-0.22,0.1,2102.777777777778
-0.225,0.07,2105.5555555555557
-0.245,0.08,2108.3333333333335
-0.255,0.09,2111.1111111111113
-0.245,0.085,2113.8888888888887
-0.245,0.095,2116.6666666666665
-0.245,0.075,2119.4444444444443
-0.265,0.055,2122.222222222222
-0.27,0.065,2125.0
-0.265,0.085,2127.777777777778
-0.265,0.09,2130.5555555555557
-0.24,0.09,2133.3333333333335
-0.25,0.085,2136.1111111111113
-0.245,0.075,2138.8888888888887
-0.27,0.065,2141.6666666666665
-0.27,0.095,2144.4444444444443
-0.265,0.1,2147.222222222222
-0.255,0.1,2150.0
-0.275,0.1,2152.777777777778
-0.285,0.08,2155.5555555555557
-0.3,0.085,2158.3333333333335
-0.305,0.09,2161.1111111111113
-0.305,0.105,2163.8888888888887
-0.29,0.105,2166.6666666666665
-0.29,0.1,2169.4444444444443
-0.3,0.09,2172.222222222222
-0.285,0.09,2175.0
-0.245,0.085,2177.777777777778
-0.235,0.09,2180.5555555555557
-0.21,0.105,2183.3333333333335
-0.2,0.095,2186.1111111111113
-0.195,0.075,2188.8888888888887
-0.205,0.055,2191.6666666666665
-0.195,0.04,2194.4444444444443
-0.185,0.055,2197.222222222222
-0.165,0.04,2200.0
-0.155,0.025,2202.777777777778
-0.16,0.015,2205.5555555555557
-0.15,0.01,2208.3333333333335
-0.125,0.02,2211.1111111111113
-0.095,0.03,2213.8888888888887
-0.04,0.03,2216.6666666666665
0.025,0.01,2219.4444444444443
0.17,-0.01,2222.222222222222
0.46,-0.01,2225.0
0.89,-0.01,2227.777777777778
1.315,-0.02,2230.5555555555557
1.47,-0.05,2233.3333333333335
1.32,-0.135,2236.1111111111113
1.095,-0.25,2238.8888888888887
0.93,-0.445,2241.6666666666665
0.865,-0.725,2244.4444444444443
0.8,-1.025,2247.222222222222
0.74,-1.22,2250.0
0.635,-1.21,2252.777777777778
0.535,-1.095,2255.5555555555557
0.435,-1.01,2258.3333333333335
0.35,-0.945,2261.1111111111113
0.25,-0.91,2263.8888888888887
0.16,-0.88,2266.6666666666665
0.04,-0.87,2269.4444444444443
-0.07,-0.865,2272.222222222222
-0.2,-0.845,2275.0
-0.31,-0.84,2277.777777777778
-0.44,-0.82,2280.5555555555557
-0.565,-0.825,2283.3333333333335
-0.7,-0.845,2286.1111111111113
-0.855,-0.86,2288.8888888888887
-1.02,-0.885,2291.6666666666665
-1.16,-0.865,2294.4444444444443
-1.3,-0.855,2297.222222222222
-1.4,-0.87,2300.0
-1.5,-0.87,2302.777777777778
-1.595,-0.875,2305.5555555555557
-1.695,-0.875,2308.3333333333335
-1.755,-0.885,2311.1111111111113
-1.8,-0.885,2313.8888888888887
-1.83,-0.89,2316.6666666666665
-1.865,-0.89,2319.4444444444443
-1.905,-0.925,2322.222222222222
-1.93,-0.935,2325.0
-1.915,-0.935,2327.777777777778
-1.865,-0.935,2330.5555555555557
-1.8,-0.96,2333.3333333333335
-1.765,-0.99,2336.1111111111113
-1.73,-1.05,2338.8888888888887
-1.68,-1.06,2341.6666666666665
-1.58,-1.09,2344.4444444444443
-1.465,-1.075,2347.222222222222
-1.335,-1.075,2350.0
-1.235,-1.085,2352.777777777778
-1.105,-1.09,2355.5555555555557
-1.01,-1.05,2358.3333333333335
-0.93,-1.0,2361.1111111111113
-0.875,-0.96,2363.8888888888887
-0.83,-0.9,2366.6666666666665
-0.775,-0.875,2369.4444444444443
-0.725,-0.855,2372.222222222222
-0.68,-0.805,2375.0
-0.605,-0.75,2377.777777777778
-0.52,-0.68,2380.5555555555557
-0.435,-0.635,2383.3333333333335
-0.37,-0.575,2386.1111111111113
-0.315,-0.525,2388.8888888888887
-0.275,-0.475,2391.6666666666665
-0.21,-0.39,2394.4444444444443
-0.15,-0.32,2397.222222222222
-0.085,-0.27,2400.0
-0.05,-0.21,2402.777777777778
-0.02,-0.17,2405.5555555555557
-0.005,-0.125,2408.3333333333335
0.015,-0.07,2411.1111111111113
0.04,-0.015,2413.8888888888887
0.055,0.015,2416.6666666666665
0.07,0.025,2419.4444444444443
0.075,0.045,2422.222222222222
0.075,0.065,2425.0
0.085,0.1,2427.777777777778
0.115,0.135,2430.5555555555557
0.125,0.15,2433.3333333333335
0.125,0.14,2436.1111111111113
0.13,0.145,2438.8888888888887
0.11,0.15,2441.6666666666665
0.11,0.175,2444.4444444444443
0.135,0.205,2447.222222222222
0.14,0.215,2450.0
0.155,0.205,2452.777777777778
0.16,0.195,2455.5555555555557
0.16,0.205,2458.3333333333335
0.18,0.215,2461.1111111111113
0.22,0.235,2463.8888888888887
0.235,0.235,2466.6666666666665
0.255,0.235,2469.4444444444443
0.255,0.235,2472.222222222222
0.265,0.24,2475.0
0.285,0.25,2477.777777777778
0.315,0.26,2480.5555555555557
0.345,0.26,2483.3333333333335
0.35,0.245,2486.1111111111113
0.365,0.235,2488.8888888888887
0.35,0.235,2491.6666666666665
0.35,0.25,2494.4444444444443
0.385,0.265,2497.222222222222
0.42,0.27,2500.0
0.425,0.27,2502.777777777778
0.43,0.26,2505.5555555555557
0.42,0.26,2508.3333333333335
0.44,0.28,2511.1111111111113
0.48,0.295,2513.8888888888887
0.5,0.3,2516.6666666666665
0.515,0.295,2519.4444444444443
0.515,0.295,2522.222222222222
0.515,0.315,2525.0
0.53,0.32,2527.777777777778
0.565,0.345,2530.5555555555557
0.6,0.345,2533.3333333333335
0.62,0.34,2536.1111111111113
0.635,0.335,2538.8888888888887
0.645,0.35,2541.6666666666665
0.655,0.37,2544.4444444444443
0.675,0.395,2547.222222222222
0.71,0.395,2550.0
0.725,0.385,2552.777777777778
0.715,0.39,2555.5555555555557
0.72,0.4,2558.3333333333335
0.745,0.425,2561.1111111111113
0.77,0.44,2563.8888888888887
0.8,0.445,2566.6666666666665
0.83,0.445,2569.4444444444443
0.84,0.44,2572.222222222222
0.845,0.445,2575.0
0.87,0.47,2577.777777777778
0.89,0.495,2580.5555555555557
0.915,0.515,2583.3333333333335
0.92,0.505,2586.1111111111113
0.895,0.505,2588.8888888888887
0.905,0.52,2591.6666666666665
0.905,0.53,2594.4444444444443
0.93,0.54,2597.222222222222
0.935,0.56,2600.0
0.905,0.56,2602.777777777778
0.9,0.545,2605.5555555555557
0.86,0.545,2608.3333333333335
0.855,0.56,2611.1111111111113
0.85,0.575,2613.8888888888887
0.845,0.575,2616.6666666666665
0.825,0.57,2619.4444444444443
0.8,0.56,2622.222222222222
0.775,0.57,2625.0
0.77,0.575,2627.777777777778
0.755,0.575,2630.5555555555557
0.75,0.575,2633.3333333333335
0.72,0.56,2636.1111111111113
0.655,0.545,2638.8888888888887
0.615,0.56,2641.6666666666665
0.565,0.54,2644.4444444444443
0.555,0.545,2647.222222222222
0.53,0.525,2650.0
0.48,0.5,2652.777777777778
0.43,0.475,2655.5555555555557
0.375,0.455,2658.3333333333335
0.345,0.45,2661.1111111111113
0.31,0.46,2663.8888888888887
0.26,0.435,2666.6666666666665
0.235,0.41,2669.4444444444443
0.185,0.365,2672.222222222222
0.155,0.37,2675.0
0.135,0.36,2677.777777777778
0.12,0.35,2680.5555555555557
0.115,0.335,2683.3333333333335
0.075,0.305,2686.1111111111113
0.045,0.27,2688.8888888888887
0.02,0.25,2691.6666666666665
0.005,0.25,2694.4444444444443
0.005,0.255,2697.222222222222
0.0,0.25,2700.0
-0.025,0.235,2702.777777777778
-0.05,0.205,2705.5555555555557
-0.09,0.2,2708.3333333333335
-0.085,0.2,2711.1111111111113
-0.09,0.2,2713.8888888888887
-0.085,0.195,2716.6666666666665
-0.095,0.175,2719.4444444444443
-0.11,0.15,2722.222222222222
-0.13,0.15,2725.0
-0.13,0.15,2727.777777777778
-0.13,0.17,2730.5555555555557
-0.115,0.165,2733.3333333333335
-0.115,0.15,2736.1111111111113
-0.125,0.125,2738.8888888888887
-0.145,0.12,2741.6666666666665
-0.16,0.14,2744.4444444444443
-0.13,0.155,2747.222222222222
-0.125,0.145,2750.0
-0.145,0.12,2752.777777777778
-0.165,0.105,2755.5555555555557
-0.175,0.11,2758.3333333333335
-0.18,0.105,2761.1111111111113
-0.165,0.115,2763.8888888888887
-0.145,0.11,2766.6666666666665
-0.16,0.1,2769.4444444444443
-0.2,0.095,2772.222222222222
-0.195,0.105,2775.0
-0.19,0.12,2777.777777777778
-0.18,0.125,2780.5555555555557
-0.175,0.12,2783.3333333333335
-0.18,0.105,2786.1111111111113
-0.19,0.105,2788.8888888888887
-0.165,0.13,2791.6666666666665
-0.17,0.14,2794.4444444444443
-0.16,0.13,2797.222222222222
-0.14,0.135,2800.0
-0.16,0.11,2802.777777777778
-0.175,0.105,2805.5555555555557
-0.175,0.12,2808.3333333333335
-0.195,0.14,2811.1111111111113
-0.16,0.135,2813.8888888888887
-0.165,0.125,2816.6666666666665
-0.18,0.125,2819.4444444444443
-0.175,0.115,2822.222222222222
-0.175,0.13,2825.0
-0.17,0.14,2827.777777777778
-0.17,0.145,2830.5555555555557
-0.175,0.125,2833.3333333333335
-0.185,0.12,2836.1111111111113
-0.21,0.115,2838.8888888888887
-0.205,0.125,2841.6666666666665
-0.185,0.135,2844.4444444444443
-0.18,0.135,2847.222222222222
-0.19,0.14,2850.0
-0.215,0.125,2852.777777777778
-0.21,0.12,2855.5555555555557
-0.22,0.135,2858.3333333333335
-0.2,0.145,2861.1111111111113
-0.2,0.14,2863.8888888888887
-0.22,0.115,2866.6666666666665
-0.225,0.115,2869.4444444444443
-0.215,0.11,2872.222222222222
-0.245,0.125,2875.0
-0.225,0.14,2877.777777777778
-0.21,0.135,2880.5555555555557
-0.235,0.125,2883.3333333333335
-0.24,0.12,2886.1111111111113
-0.245,0.11,2888.8888888888887
-0.245,0.105,2891.6666666666665
-0.225,0.12,2894.4444444444443
-0.23,0.115,2897.222222222222
-0.23,0.105,2900.0
-0.255,0.085,2902.777777777778
-0.25,0.085,2905.5555555555557
-0.25,0.105,2908.3333333333335
-0.235,0.11,2911.1111111111113
-0.255,0.1,2913.8888888888887
-0.25,0.08,2916.6666666666665
-0.285,0.06,2919.4444444444443
-0.295,0.05,2922.222222222222
-0.315,0.055,2925.0
-0.315,0.06,2927.777777777778
-0.29,0.07,2930.5555555555557
-0.29,0.055,2933.3333333333335
-0.31,0.06,2936.1111111111113
-0.305,0.045,2938.8888888888887
-0.285,0.07,2941.6666666666665
-0.25,0.08,2944.4444444444443
-0.245,0.08,2947.222222222222
-0.245,0.07,2950.0
-0.26,0.055,2952.777777777778
-0.27,0.055,2955.5555555555557
-0.265,0.055,2958.3333333333335
-0.24,0.09,2961.1111111111113
-0.22,0.08,2963.8888888888887
-0.245,0.075,2966.6666666666665
-0.255,0.07,2969.4444444444443
-0.26,0.065,2972.222222222222
-0.25,0.09,2975.0
-0.235,0.095,2977.777777777778
-0.23,0.105,2980.5555555555557
-0.215,0.085,2983.3333333333335
-0.235,0.085,2986.1111111111113
-0.245,0.075,2988.8888888888887
-0.23,0.09,2991.6666666666665
-0.235,0.095,2994.4444444444443
-0.225,0.11,2997.222222222222
-0.23,0.1,3000.0
-0.245,0.085,3002.777777777778
-0.25,0.09,3005.5555555555557
-0.245,0.095,3008.3333333333335
-0.24,0.11,3011.1111111111113
-0.22,0.11,3013.8888888888887
-0.23,0.1,3016.6666666666665
-0.245,0.095,3019.4444444444443
-0.26,0.09,3022.222222222222
-0.255,0.105,3025.0
-0.245,0.11,3027.777777777778
-0.235,0.11,3030.5555555555557
-0.255,0.095,3033.3333333333335
-0.255,0.075,3036.1111111111113
-0.27,0.07,3038.8888888888887
-0.27,0.07,3041.6666666666665
-0.25,0.095,3044.4444444444443
-0.235,0.08,3047.222222222222
-0.245,0.07,3050.0
-0.26,0.05,3052.777777777778
-0.275,0.05,3055.5555555555557
-0.27,0.035,3058.3333333333335
-0.25,0.05,3061.1111111111113
-0.235,0.04,3063.8888888888887
-0.235,0.03,3066.6666666666665
-0.235,0.01,3069.4444444444443
-0.255,0.01,3072.222222222222
-0.26,0.02,3075.0
-0.245,0.03,3077.777777777778
-0.23,0.025,3080.5555555555557
-0.23,0.005,3083.3333333333335
-0.235,-0.015,3086.1111111111113
-0.23,-0.005,3088.8888888888887
-0.2,0.005,3091.6666666666665
-0.16,0.0,3094.4444444444443
-0.12,0.005,3097.222222222222
-0.09,-0.025,3100.0
-0.07,-0.03,3102.777777777778
-0.01,-0.045,3105.5555555555557
0.15,-0.035,3108.3333333333335
0.48,-0.01,3111.1111111111113
0.955,-0.03,3113.8888888888887
1.355,-0.07,3116.6666666666665
1.47,-0.12,3119.4444444444443
1.285,-0.18,3122.222222222222
1.065,-0.275,3125.0
0.94,-0.445,3127.777777777778
0.88,-0.74,3130.5555555555557
0.81,-1.055,3133.3333333333335
0.745,-1.205,3136.1111111111113
0.64,-1.185,3138.8888888888887
0.565,-1.065,3141.6666666666665
0.5,-0.97,3144.4444444444443
0.425,-0.94,3147.222222222222
0.335,-0.93,3150.0
0.22,-0.915,3152.777777777778
0.11,-0.895,3155.5555555555557
0.02,-0.845,3158.3333333333335
-0.085,-0.82,3161.1111111111113
-0.205,-0.83,3163.8888888888887
-0.335,-0.82,3166.6666666666665
-0.47,-0.84,3169.4444444444443
-0.61,-0.84,3172.222222222222
-0.755,-0.84,3175.0
-0.9,-0.825,3177.777777777778
-1.05,-0.835,3180.5555555555557
-1.215,-0.86,3183.3333333333335
-1.35,-0.865,3186.1111111111113
-1.465,-0.875,3188.8888888888887
-1.56,-0.855,3191.6666666666665
-1.62,-0.875,3194.4444444444443
-1.69,-0.875,3197.222222222222
-1.78,-0.91,3200.0
-1.835,-0.955,3202.777777777778
-1.86,-0.96,3205.5555555555557
-1.885,-0.97,3208.3333333333335
-1.875,-0.955,3211.1111111111113
-1.865,-0.96,3213.8888888888887
-1.855,-0.985,3216.6666666666665
-1.815,-1.05,3219.4444444444443
-1.8,-1.08,3222.222222222222
-1.755,-1.105,3225.0
-1.7,-1.1,3227.777777777778
-1.58,-1.11,3230.5555555555557
-1.46,-1.14,3233.3333333333335
-1.36,-1.145,3236.1111111111113
-1.235,-1.125,3238.8888888888887
-1.105,-1.09,3241.6666666666665
-0.98,-1.045,3244.4444444444443
-0.895,-1.0,3247.222222222222
-0.885,-0.99,3250.0
-0.9,-0.99,3252.777777777778
-0.87,-0.97,3255.5555555555557
-0.815,-0.92,3258.3333333333335
-0.72,-0.86,3261.1111111111113
-0.63,-0.815,3263.8888888888887
-0.545,-0.785,3266.6666666666665
-0.495,-0.725,3269.4444444444443
-0.46,-0.675,3272.222222222222
-0.39,-0.62,3275.0
-0.32,-0.54,3277.777777777778
-0.25,-0.475,3280.5555555555557
-0.195,-0.42,3283.3333333333335
-0.15,-0.38,3286.1111111111113
-0.115,-0.32,3288.8888888888887
-0.065,-0.235,3291.6666666666665
-0.02,-0.175,3294.4444444444443
0.025,-0.125,3297.222222222222
0.05,-0.09,3300.0
0.05,-0.055,3302.777777777778
0.045,-0.01,3305.5555555555557
0.07,0.04,3308.3333333333335
0.1,0.075,3311.1111111111113
0.12,0.095,3313.8888888888887
0.125,0.115,3316.6666666666665
0.135,0.125,3319.4444444444443
0.13,0.13,3322.222222222222
0.14,0.145,3325.0
0.155,0.165,3327.777777777778
0.175,0.175,3330.5555555555557
0.175,0.17,3333.3333333333335
0.17,0.175,3336.1111111111113
0.17,0.19,3338.8888888888887
0.18,0.195,3341.6666666666665
0.2,0.22,3344.4444444444443
0.215,0.22,3347.222222222222
0.22,0.21,3350.0
0.215,0.215,3352.777777777778
0.2,0.2,3355.5555555555557
0.215,0.225,3358.3333333333335
0.245,0.24,3361.1111111111113
0.255,0.245,3363.8888888888887
0.255,0.225,3366.6666666666665
0.275,0.22,3369.4444444444443
0.275,0.23,3372.222222222222
0.285,0.265,3375.0
0.305,0.28,3377.777777777778
0.335,0.28,3380.5555555555557
0.345,0.28,3383.3333333333335
0.35,0.28,3386.1111111111113
0.36,0.29,3388.8888888888887
0.38,0.285,3391.6666666666665
0.41,0.315,3394.4444444444443
0.44,0.32,3397.222222222222
0.45,0.31,3400.0
0.455,0.315,3402.777777777778
0.475,0.335,3405.5555555555557
0.505,0.355,3408.3333333333335
0.54,0.365,3411.1111111111113
0.57,0.38,3413.8888888888887
0.565,0.38,3416.6666666666665
0.575,0.355,3419.4444444444443
0.59,0.375,3422.222222222222
0.61,0.395,3425.0
0.655,0.405,3427.777777777778
0.675,0.415,3430.5555555555557
0.7,0.425,3433.3333333333335
0.7,0.41,3436.1111111111113
0.705,0.42,3438.8888888888887
0.715,0.45,3441.6666666666665
0.76,0.47,3444.4444444444443
0.785,0.475,3447.222222222222
0.81,0.48,3450.0
0.805,0.475,3452.777777777778
0.81,0.48,3455.5555555555557
0.815,0.5,3458.3333333333335
0.845,0.52,3461.1111111111113
0.885,0.515,3463.8888888888887
0.885,0.515,3466.6666666666665
0.89,0.51,3469.4444444444443
0.9,0.52,3472.222222222222
0.89,0.53,3475.0
0.91,0.55,3477.777777777778
0.92,0.55,3480.5555555555557
0.915,0.545,3483.3333333333335
0.905,0.55,3486.1111111111113
0.89,0.55,3488.8888888888887
0.885,0.575,3491.6666666666665
0.885,0.595,3494.4444444444443
0.88,0.605,3497.222222222222
0.865,0.6,3500.0
0.835,0.595,3502.777777777778
0.815,0.595,3505.5555555555557
0.81,0.605,3508.3333333333335
0.79,0.61,3511.1111111111113
0.775,0.615,3513.8888888888887
0.74,0.595,3516.6666666666665
0.68,0.58,3519.4444444444443
0.65,0.57,3522.222222222222
0.62,0.59,3525.0
0.6,0.605,3527.777777777778
0.575,0.59,3530.5555555555557
0.515,0.565,3533.3333333333335
0.475,0.535,3536.1111111111113
0.43,0.51,3538.8888888888887
0.395,0.505,3541.6666666666665
0.38,0.505,3544.4444444444443
0.34,0.485,3547.222222222222
0.3,0.455,3550.0
0.265,0.43,3552.777777777778
0.22,0.41,3555.5555555555557
0.195,0.41,3558.3333333333335
0.17,0.41,3561.1111111111113
0.165,0.385,3563.8888888888887
0.135,0.36,3566.6666666666665
0.08,0.33,3569.4444444444443
0.035,0.305,3572.222222222222
0.015,0.3,3575.0
0.015,0.3,3577.777777777778
0.02,0.28,3580.5555555555557
-0.01,0.26,3583.3333333333335
-0.02,0.225,3586.1111111111113
-0.04,0.215,3588.8888888888887
-0.04,0.215,3591.6666666666665
-0.05,0.215,3594.4444444444443
-0.05,0.195,3597.222222222222
-0.08,0.175,3600.0
-0.1,0.155,3602.777777777778
-0.12,0.16,3605.5555555555557
-0.12,0.16,3608.3333333333335
-0.105,0.175,3611.1111111111113
-0.105,0.165,3613.8888888888887
-0.125,0.14,3616.6666666666665
-0.15,0.14,3619.4444444444443
-0.15,0.135,3622.222222222222
-0.14,0.145,3625.0
-0.125,0.155,3627.777777777778
-0.105,0.15,3630.5555555555557
-0.11,0.135,3633.3333333333335
-0.13,0.11,3636.1111111111113
-0.14,0.12,3638.8888888888887
-0.15,0.13,3641.6666666666665
-0.16,0.155,3644.4444444444443
-0.14,0.155,3647.222222222222
-0.135,0.125,3650.0
-0.145,0.13,3652.777777777778
-0.15,0.13,3655.5555555555557
-0.14,0.13,3658.3333333333335
-0.135,0.16,3661.1111111111113
-0.11,0.155,3663.8888888888887
-0.105,0.145,3666.6666666666665
-0.135,0.13,3669.4444444444443
-0.14,0.135,3672.222222222222
-0.14,0.14,3675.0
-0.13,0.16,3677.777777777778
-0.1,0.15,3680.5555555555557
-0.11,0.135,3683.3333333333335
-0.13,0.13,3686.1111111111113
-0.14,0.135,3688.8888888888887
-0.145,0.15,3691.6666666666665
-0.13,0.165,3694.4444444444443
-0.12,0.165,3697.222222222222
-0.135,0.14,3700.0
-0.15,0.135,3702.777777777778
-0.165,0.13,3705.5555555555557
-0.16,0.15,3708.3333333333335
-0.16,0.16,3711.1111111111113
-0.14,0.155,3713.8888888888887
-0.155,0.14,3716.6666666666665
-0.15,0.12,3719.4444444444443
-0.175,0.12,3722.222222222222
-0.16,0.115,3725.0
-0.155,0.145,3727.777777777778
-0.145,0.14,3730.5555555555557
-0.17,0.13,3733.3333333333335
-0.17,0.12,3736.1111111111113
-0.17,0.11,3738.8888888888887
-0.18,0.12,3741.6666666666665
-0.17,0.13,3744.4444444444443
-0.145,0.12,3747.222222222222
-0.165,0.105,3750.0
-0.17,0.095,3752.777777777778
-0.195,0.095,3755.5555555555557
-0.2,0.095,3758.3333333333335
-0.2,0.11,3761.1111111111113
-0.195,0.115,3763.8888888888887
-0.205,0.095,3766.6666666666665
-0.235,0.085,3769.4444444444443
-0.25,0.09,3772.222222222222
-0.24,0.095,3775.0
-0.22,0.11,3777.777777777778
-0.205,0.105,3780.5555555555557
-0.2,0.105,3783.3333333333335
-0.21,0.08,3786.1111111111113
-0.23,0.075,3788.8888888888887
-0.205,0.09,3791.6666666666665
-0.18,0.105,3794.4444444444443
-0.155,0.09,3797.222222222222
-0.17,0.09,3800.0
-0.185,0.075,3802.777777777778
-0.2,0.09,3805.5555555555557
-0.21,0.105,3808.3333333333335
-0.205,0.11,3811.1111111111113
-0.2,0.125,3813.8888888888887
-0.19,0.125,3816.6666666666665
-0.195,0.105,3819.4444444444443
-0.205,0.1,3822.222222222222
-0.2,0.11,3825.0
-0.18,0.12,3827.777777777778
-0.17,0.11,3830.5555555555557
-0.16,0.1,3833.3333333333335
-0.175,0.075,3836.1111111111113
-0.185,0.07,3838.8888888888887
-0.185,0.085,3841.6666666666665
-0.185,0.09,3844.4444444444443
-0.165,0.08,3847.222222222222
-0.185,0.065,3850.0
-0.205,0.05,3852.777777777778
-0.215,0.045,3855.5555555555557
-0.205,0.055,3858.3333333333335
-0.185,0.065,3861.1111111111113
-0.18,0.08,3863.8888888888887
-0.17,0.065,3866.6666666666665
-0.2,0.06,3869.4444444444443
-0.215,0.075,3872.222222222222
-0.21,0.075,3875.0
-0.205,0.1,3877.777777777778
-0.19,0.105,3880.5555555555557
-0.2,0.095,3883.3333333333335
-0.215,0.07,3886.1111111111113
-0.215,0.065,3888.8888888888887
-0.22,0.08,3891.6666666666665
-0.22,0.08,3894.4444444444443
-0.215,0.07,3897.222222222222
-0.225,0.055,3900.0
-0.235,0.03,3902.777777777778
-0.24,0.03,3905.5555555555557
-0.24,0.045,3908.3333333333335
-0.225,0.06,3911.1111111111113
-0.205,0.045,3913.8888888888887
-0.195,0.045,3916.6666666666665
-0.215,0.015,3919.4444444444443
-0.21,0.015,3922.222222222222
-0.205,0.025,3925.0
-0.185,0.045,3927.777777777778
-0.175,0.035,3930.5555555555557
-0.175,0.01,3933.3333333333335
-0.175,0.005,3936.1111111111113
-0.17,0.005,3938.8888888888887
-0.17,-0.005,3941.6666666666665
-0.145,0.02,3944.4444444444443
-0.125,0.02,3947.222222222222
-0.1,0.0,3950.0
-0.105,-0.01,3952.777777777778
-0.08,-0.015,3955.5555555555557
-0.035,-0.015,3958.3333333333335
0.05,-0.01,3961.1111111111113
0.22,-0.015,3963.8888888888887
0.555,-0.03,3966.6666666666665
0.985,-0.05,3969.4444444444443
1.34,-0.065,3972.222222222222
1.415,-0.095,3975.0
1.26,-0.16,3977.777777777778
1.05,-0.26,3980.5555555555557
0.915,-0.455,3983.3333333333335
0.83,-0.75,3986.1111111111113
0.755,-1.025,3988.8888888888887
0.69,-1.13,3991.6666666666665
0.6,-1.08,3994.4444444444443
0.535,-0.975,3997.222222222222
0.44,-0.92,4000.0
0.315,-0.905,4002.777777777778
0.195,-0.895,4005.5555555555557
0.08,-0.865,4008.3333333333335
-0.02,-0.84,4011.1111111111113
-0.15,-0.835,4013.8888888888887
-0.295,-0.85,4016.6666666666665
-0.47,-0.86,4019.4444444444443
-0.61,-0.865,4022.222222222222
-0.755,-0.87,4025.0
-0.905,-0.865,4027.777777777778
-1.065,-0.88,4030.5555555555557
-1.19,-0.895,4033.3333333333335
-1.33,-0.905,4036.1111111111113
-1.44,-0.915,4038.8888888888887
-1.52,-0.9,4041.6666666666665
-1.575,-0.88,4044.4444444444443
-1.64,-0.885,4047.222222222222
-1.7,-0.9,4050.0
-1.75,-0.93,4052.777777777778
-1.785,-0.92,4055.5555555555557
-1.76,-0.905,4058.3333333333335
-1.7,-0.89,4061.1111111111113
-1.64,-0.895,4063.8888888888887
-1.58,-0.915,4066.6666666666665
-1.515,-0.94,4069.4444444444443
-1.445,-0.945,4072.222222222222
-1.37,-0.95,4075.0
-1.285,-0.955,4077.777777777778
-1.21,-0.96,4080.5555555555557
-1.155,-0.98,4083.3333333333335
-1.05,-1.0,4086.1111111111113
-0.97,-0.975,4088.8888888888887
-0.855,-0.935,4091.6666666666665
-0.735,-0.89,4094.4444444444443
-0.615,-0.865,4097.222222222223
-0.515,-0.85,4100.0
-0.44,-0.835,4102.777777777777
-0.36,-0.8,4105.555555555556
-0.25,-0.755,4108.333333333333
-0.14,-0.68,4111.111111111111
-0.065,-0.63,4113.888888888889
-0.045,-0.545,4116.666666666667
-0.025,-0.47,4119.444444444444
-0.025,-0.375,4122.222222222223
-0.005,-0.28,4125.0
0.01,-0.185,4127.777777777777
0.035,-0.14,4130.555555555556
0.035,-0.09,4133.333333333333
0.025,-0.09,4136.111111111111
0.02,-0.065,4138.888888888889
0.025,-0.03,4141.666666666667
0.035,-0.005,4144.444444444444
0.04,0.005,4147.222222222223
0.035,0.02,4150.0
0.045,0.025,4152.777777777777
0.025,0.04,4155.555555555556
0.03,0.07,4158.333333333333
0.04,0.085,4161.111111111111
0.06,0.095,4163.888888888889
0.06,0.085,4166.666666666667
0.045,0.09,4169.444444444444
0.035,0.1,4172.222222222223
0.065,0.125,4175.0
0.075,0.14,4177.777777777777
0.095,0.155,4180.555555555556
0.105,0.15,4183.333333333333
0.085,0.165,4186.111111111111
0.095,0.17,4188.888888888889
0.1,0.175,4191.666666666667
0.125,0.195,4194.444444444444
0.13,0.2,4197.222222222223
0.15,0.19,4200.0
0.14,0.195,4202.777777777777
0.14,0.21,4205.555555555556
0.13,0.215,4208.333333333333
0.16,0.23,4211.111111111111
0.175,0.225,4213.888888888889
0.175,0.205,4216.666666666667
0.185,0.19,4219.444444444444
0.18,0.205,4222.222222222223
0.195,0.22,4225.0
0.205,0.225,4227.777777777777
0.23,0.215,4230.555555555556
0.23,0.2,4233.333333333333
0.21,0.2,4236.111111111111
0.21,0.21,4238.888888888889
0.24,0.22,4241.666666666667
0.26,0.24,4244.444444444444
0.29,0.24,4247.222222222223
0.275,0.235,4250.0
0.3,0.22,4252.777777777777
0.295,0.225,4255.555555555556
0.32,0.25,4258.333333333333
0.345,0.25,4261.111111111111
0.38,0.255,4263.888888888889
0.39,0.255,4266.666666666667
0.37,0.25,4269.444444444444
0.385,0.27,4272.222222222223
0.41,0.28,4275.0
0.43,0.3,4277.777777777777
0.475,0.3,4280.555555555556
0.485,0.29,4283.333333333333
0.5,0.285,4286.111111111111
0.495,0.27,4288.888888888889
0.5,0.295,4291.666666666667
0.525,0.32,4294.444444444444
0.535,0.32,4297.222222222223
0.55,0.335,4300.0
0.545,0.325,4302.777777777777
0.535,0.345,4305.555555555556
0.56,0.355,4308.333333333333
0.59,0.38,4311.111111111111
0.6,0.395,4313.888888888889
0.59,0.4,4316.666666666667
0.585,0.4,4319.444444444444
0.575,0.41,4322.222222222223
0.57,0.435,4325.0
0.57,0.45,4327.777777777777
0.585,0.445,4330.555555555556
0.56,0.44,4333.333333333333
0.52,0.43,4336.111111111111
0.5,0.43,4338.888888888889
0.485,0.44,4341.666666666667
0.465,0.45,4344.444444444444
0.455,0.445,4347.222222222223
0.43,0.45,4350.0
0.395,0.425,4352.777777777777
0.35,0.425,4355.555555555556
0.33,0.425,4358.333333333333
0.31,0.43,4361.111111111111
0.3,0.415,4363.888888888889
0.26,0.4,4366.666666666667
0.21,0.375,4369.444444444444
0.175,0.37,4372.222222222223
0.15,0.365,4375.0
0.115,0.37,4377.777777777777
0.115,0.355,4380.555555555556
0.09,0.335,4383.333333333333
0.05,0.315,4386.111111111111
0.015,0.29,4388.888888888889
0.0,0.295,4391.666666666667
-0.005,0.28,4394.444444444444
-0.005,0.28,4397.222222222223
-0.015,0.26,4400.0
-0.04,0.245,4402.777777777777
-0.075,0.23,4405.555555555556
-0.075,0.23,4408.333333333333
-0.09,0.22,4411.111111111111
-0.1,0.205,4413.888888888889
-0.125,0.19,4416.666666666667
-0.145,0.165,4419.444444444444
-0.17,0.155,4422.222222222223
-0.165,0.17,4425.0
-0.155,0.17,4427.777777777777
-0.145,0.16,4430.555555555556
-0.145,0.16,4433.333333333333
-0.16,0.15,4436.111111111111
-0.18,0.175,4438.888888888889
-0.175,0.175,4441.666666666667
-0.175,0.2,4444.444444444444
-0.155,0.2,4447.222222222223
-0.175,0.18,4450.0
-0.2,0.18,4452.777777777777
-0.195,0.18,4455.555555555556
-0.2,0.195,4458.333333333333
-0.17,0.205,4461.111111111111
-0.165,0.2,4463.888888888889
-0.18,0.19,4466.666666666667
-0.2,0.19,4469.444444444444
-0.22,0.185,4472.222222222223
-0.215,0.2,4475.0
-0.21,0.205,4477.777777777777
-0.2,0.195,4480.555555555556
-0.195,0.18,4483.333333333333
-0.195,0.165,4486.111111111111
-0.21,0.145,4488.888888888889
-0.205,0.155,4491.666666666667
-0.195,0.155,4494.444444444444
-0.21,0.145,4497.222222222223
-0.205,0.14,4500.0
-0.21,0.12,4502.777777777777
-0.215,0.115,4505.555555555556
-0.22,0.13,4508.333333333333
-0.205,0.13,4511.111111111111
-0.185,0.125,4513.888888888889
-0.185,0.11,4516.666666666667
-0.19,0.095,4519.444444444444
-0.195,0.105,4522.222222222223
-0.2,0.125,4525.0
-0.19,0.135,4527.777777777777
-0.2,0.135,4530.555555555556
-0.215,0.14,4533.333333333333
-0.21,0.105,4536.111111111111
-0.23,0.11,4538.888888888889
-0.25,0.115,4541.666666666667
-0.235,0.12,4544.444444444444
-0.235,0.12,4547.222222222223
-0.23,0.115,4550.0
-0.235,0.115,4552.777777777777
-0.255,0.115,4555.555555555556
-0.25,0.145,4558.333333333333
-0.23,0.15,4561.111111111111
-0.225,0.14,4563.888888888889
-0.23,0.14,4566.666666666667
-0.23,0.125,4569.444444444444
-0.245,0.14,4572.222222222223
-0.245,0.155,4575.0
-0.25,0.165,4577.777777777777
-0.235,0.165,4580.555555555556
-0.235,0.15,4583.333333333333
-0.255,0.125,4586.111111111111
-0.26,0.135,4588.888888888889
-0.27,0.145,4591.666666666667
-0.255,0.16,4594.444444444444
-0.235,0.16,4597.222222222223
-0.255,0.155,4600.0
-0.26,0.135,4602.777777777777
-0.27,0.145,4605.555555555556
-0.25,0.145,4608.333333333333
-0.235,0.15,4611.111111111111
-0.23,0.145,4613.888888888889
-0.245,0.13,4616.666666666667
-0.265,0.125,4619.444444444444
-0.29,0.115,4622.222222222223
-0.29,0.125,4625.0
-0.265,0.135,4627.777777777777
-0.27,0.115,4630.555555555556
-0.27,0.105,4633.333333333333
-0.26,0.1,4636.111111111111
-0.26,0.09,4638.888888888889
-0.26,0.1,4641.666666666667
-0.25,0.11,4644.444444444444
-0.225,0.115,4647.222222222223
-0.245,0.105,4650.0
-0.265,0.095,4652.777777777777
-0.285,0.08,4655.555555555556
-0.275,0.085,4658.333333333333
-0.27,0.09,4661.111111111111
-0.25,0.085,4663.888888888889
-0.275,0.08,4666.666666666667
-0.285,0.065,4669.444444444444
-0.295,0.075,4672.222222222223
-0.3,0.09,4675.0
-0.28,0.1,4677.777777777777
-0.28,0.1,4680.555555555556
-0.285,0.09,4683.333333333333
-0.295,0.075,4686.111111111111
-0.3,0.09,4688.888888888889
-0.305,0.095,4691.666666666667
-0.305,0.1,4694.444444444444
-0.3,0.1,4697.222222222223
-0.305,0.095,4700.0
-0.31,0.085,4702.777777777777
-0.32,0.075,4705.555555555556
-0.325,0.085,4708.333333333333
-0.31,0.105,4711.111111111111
-0.29,0.115,4713.888888888889
-0.3,0.1,4716.666666666667
-0.3,0.08,4719.444444444444
-0.29,0.095,4722.222222222223
-0.29,0.105,4725.0
-0.285,0.125,4727.777777777777
-0.265,0.115,4730.555555555556
-0.28,0.11,4733.333333333333
-0.285,0.1,4736.111111111111
-0.29,0.09,4738.888888888889
-0.3,0.085,4741.666666666667
-0.295,0.11,4744.444444444444
-0.3,0.095,4747.222222222223
-0.31,0.1,4750.0
-0.335,0.075,4752.777777777777
-0.33,0.08,4755.555555555556
-0.32,0.085,4758.333333333333
-0.305,0.115,4761.111111111111
-0.275,0.09,4763.888888888889
-0.27,0.075,4766.666666666667
-0.285,0.05,4769.444444444444
-0.28,0.05,4772.222222222223
-0.285,0.07,4775.0
-0.285,0.05,4777.777777777777
-0.275,0.055,4780.555555555556
-0.26,0.03,4783.333333333333
-0.26,0.015,4786.111111111111
-0.245,0.005,4788.888888888889
-0.235,0.02,4791.666666666667
-0.21,0.025,4794.444444444444
-0.175,0.04,4797.222222222223
-0.125,0.025,4800.0
-0.055,0.0,4802.777777777777
0.12,0.005,4805.555555555556
0.485,0.01,4808.333333333333
0.985,0.01,4811.111111111111
1.35,-0.025,4813.888888888889
1.375,-0.085,4816.666666666667
1.18,-0.175,4819.444444444444
0.955,-0.315,4822.222222222223
0.835,-0.555,4825.0
0.79,-0.885,4827.777777777777
0.74,-1.155,4830.555555555556
0.655,-1.235,4833.333333333333
0.545,-1.165,4836.111111111111
0.465,-1.04,4838.888888888889
0.39,-0.97,4841.666666666667
0.3,-0.93,4844.444444444444
0.24,-0.915,4847.222222222223
0.14,-0.895,4850.0
0.04,-0.885,4852.777777777777
-0.07,-0.86,4855.555555555556
-0.18,-0.86,4858.333333333333
-0.28,-0.83,4861.111111111111
-0.36,-0.825,4863.888888888889
-0.47,-0.84,4866.666666666667
-0.615,-0.86,4869.444444444444
-0.73,-0.87,4872.222222222223
-0.83,-0.855,4875.0
-0.89,-0.83,4877.777777777777
-0.88,-0.83,4880.555555555556
-0.84,-0.84,4883.333333333333
-0.8,-0.86,4886.111111111111
-0.775,-0.855,4888.888888888889
-0.76,-0.845,4891.666666666667
-0.765,-0.84,4894.444444444444
-0.775,-0.865,4897.222222222223
-0.78,-0.895,4900.0
-0.775,-0.925,4902.777777777777
-0.74,-0.935,4905.555555555556
-0.715,-0.94,4908.333333333333
-0.685,-0.905,4911.111111111111
-0.69,-0.885,4913.888888888889
-0.74,-0.88,4916.666666666667
-0.765,-0.875,4919.444444444444
-0.735,-0.855,4922.222222222223
-0.635,-0.825,4925.0
-0.51,-0.77,4927.777777777777
-0.4,-0.74,4930.555555555556
-0.33,-0.685,4933.333333333333
-0.295,-0.605,4936.111111111111
-0.295,-0.5,4938.888888888889
-0.27,-0.41,4941.666666666667
-0.25,-0.325,4944.444444444444
-0.22,-0.255,4947.222222222223
-0.22,-0.18,4950.0
-0.235,-0.145,4952.777777777777
-0.24,-0.1,4955.555555555556
-0.25,-0.05,4958.333333333333
-0.245,-0.02,4961.111111111111
-0.23,-0.005,4963.888888888889
-0.23,-0.005,4966.666666666667
-0.24,-0.01,4969.444444444444
-0.26,0.0,4972.222222222223
-0.255,0.03,4975.0
-0.235,0.055,4977.777777777777
-0.22,0.065,4980.555555555556
-0.225,0.06,4983.333333333333
-0.24,0.045,4986.111111111111
-0.26,0.045,4988.888888888889
-0.26,0.065,4991.666666666667
-0.26,0.095,4994.444444444444
-0.25,0.08,4997.222222222223
-0.27,0.095,5000.0
-0.27,0.085,5002.777777777777
-0.28,0.08,5005.555555555556
-0.27,0.105,5008.333333333333
-0.26,0.125,5011.111111111111
-0.245,0.12,5013.888888888889
-0.255,0.125,5016.666666666667
-0.265,0.105,5019.444444444444
-0.285,0.115,5022.222222222223
-0.28,0.125,5025.0
-0.285,0.14,5027.777777777777
-0.27,0.135,5030.555555555556
-0.27,0.135,5033.333333333333
-0.315,0.125,5036.111111111111
-0.325,0.15,5038.888888888889
-0.325,0.17,5041.666666666667
-0.295,0.18,5044.444444444444
-0.28,0.185,5047.222222222223
-0.285,0.165,5050.0
-0.275,0.165,5052.777777777777
-0.27,0.16,5055.555555555556
-0.27,0.185,5058.333333333333
-0.27,0.2,5061.111111111111
-0.255,0.2,5063.888888888889
-0.255,0.19,5066.666666666667
-0.265,0.17,5069.444444444444
-0.275,0.185,5072.222222222223
-0.265,0.205,5075.0
-0.24,0.225,5077.777777777777
-0.225,0.22,5080.555555555556
-0.235,0.215,5083.333333333333
-0.245,0.195,5086.111111111111
-0.245,0.2,5088.888888888889
-0.235,0.22,5091.666666666667
-0.225,0.225,5094.444444444444
-0.21,0.225,5097.222222222223
-0.21,0.23,5100.0
-0.22,0.215,5102.777777777777
-0.225,0.215,5105.555555555556
-0.205,0.225,5108.333333333333
-0.18,0.245,5111.111111111111
-0.17,0.245,5113.888888888889
-0.18,0.245,5116.666666666667
-0.195,0.22,5119.444444444444
-0.22,0.225,5122.222222222223
-0.205,0.23,5125.0
-0.205,0.225,5127.777777777777
-0.195,0.24,5130.555555555556
-0.205,0.235,5133.333333333333
-0.225,0.23,5136.111111111111
-0.245,0.24,5138.888888888889
-0.255,0.26,5141.666666666667
-0.265,0.275,5144.444444444444
-0.27,0.26,5147.222222222223
-0.285,0.25,5150.0
-0.315,0.24,5152.777777777777
-0.32,0.255,5155.555555555556
-0.33,0.265,5158.333333333333
-0.34,0.28,5161.111111111111
-0.345,0.285,5163.888888888889
-0.355,0.285,5166.666666666667
-0.395,0.285,5169.444444444444
-0.42,0.28,5172.222222222223
-0.435,0.29,5175.0
-0.44,0.31,5177.777777777777
-0.445,0.305,5180.555555555556
-0.455,0.305,5183.333333333333
-0.49,0.28,5186.111111111111
-0.48,0.27,5188.888888888889
-0.47,0.285,5191.666666666667
-0.47,0.275,5194.444444444444
-0.445,0.285,5197.222222222223
-0.445,0.27,5200.0
-0.445,0.245,5202.777777777777
-0.445,0.25,5205.555555555556
-0.435,0.255,5208.333333333333
-0.41,0.27,5211.111111111111
-0.38,0.265,5213.888888888889
-0.39,0.25,5216.666666666667
-0.4,0.235,5219.444444444444
-0.405,0.22,5222.222222222223
-0.4,0.22,5225.0
-0.38,0.23,5227.777777777777
-0.34,0.2,5230.555555555556
-0.35,0.185,5233.333333333333
-0.355,0.185,5236.111111111111
-0.36,0.21,5238.888888888889
-0.36,0.225,5241.666666666667
-0.37,0.235,5244.444444444444
-0.355,0.23,5247.222222222223
-0.37,0.21,5250.0
-0.38,0.205,5252.777777777777
-0.39,0.205,5255.555555555556
-0.395,0.215,5258.333333333333
-0.38,0.225,5261.111111111111
-0.38,0.205,5263.888888888889
-0.395,0.16,5266.666666666667
-0.415,0.15,5269.444444444444
-0.425,0.155,5272.222222222223
-0.425,0.17,5275.0
-0.43,0.155,5277.777777777777
-0.405,0.16,5280.555555555556
-0.415,0.15,5283.333333333333
-0.42,0.16,5286.111111111111
-0.435,0.16,5288.888888888889
-0.435,0.18,5291.666666666667
-0.405,0.18,5294.444444444444
-0.41,0.19,5297.222222222223
-0.435,0.165,5300.0
-0.45,0.175,5302.777777777777
-0.465,0.17,5305.555555555556
-0.46,0.19,5308.333333333333
-0.45,0.195,5311.111111111111
-0.455,0.205,5313.888888888889
-0.45,0.185,5316.666666666667
-0.455,0.175,5319.444444444444
-0.46,0.185,5322.222222222223
-0.445,0.19,5325.0
-0.42,0.195,5327.777777777777
-0.405,0.19,5330.555555555556
-0.39,0.2,5333.333333333333
-0.39,0.17,5336.111111111111
-0.39,0.18,5338.888888888889
-0.39,0.205,5341.666666666667
-0.375,0.21,5344.444444444444
-0.35,0.21,5347.222222222223
-0.36,0.19,5350.0
-0.37,0.17,5352.777777777777
-0.37,0.175,5355.555555555556
-0.375,0.19,5358.333333333333
-0.355,0.21,5361.111111111111
-0.365,0.185,5363.888888888889
-0.365,0.17,5366.666666666667
-0.375,0.145,5369.444444444444
-0.38,0.155,5372.222222222223
-0.37,0.165,5375.0
-0.36,0.175,5377.777777777777
-0.36,0.18,5380.555555555556
-0.39,0.165,5383.333333333333
-0.415,0.15,5386.111111111111
-0.405,0.165,5388.888888888889
-0.405,0.18,5391.666666666667
-0.38,0.195,5394.444444444444
-0.355,0.185,5397.222222222223
-0.36,0.17,5400.0
-0.37,0.15,5402.777777777777
-0.38,0.16,5405.555555555556
-0.385,0.175,5408.333333333333
-0.385,0.2,5411.111111111111
-0.38,0.2,5413.888888888889
-0.395,0.18,5416.666666666667
-0.42,0.165,5419.444444444444
-0.44,0.185,5422.222222222223
-0.43,0.195,5425.0
-0.42,0.205,5427.777777777777
-0.435,0.205,5430.555555555556
-0.43,0.19,5433.333333333333
-0.455,0.18,5436.111111111111
-0.475,0.18,5438.888888888889
-0.475,0.19,5441.666666666667
-0.45,0.195,5444.444444444444
-0.43,0.195,5447.222222222223
-0.43,0.195,5450.0
-0.435,0.19,5452.777777777777
-0.455,0.185,5455.555555555556
-0.43,0.195,5458.333333333333
-0.42,0.22,5461.111111111111
-0.39,0.195,5463.888888888889
-0.38,0.2,5466.666666666667
-0.39,0.165,5469.444444444444
-0.4,0.16,5472.222222222223
-0.4,0.16,5475.0
-0.395,0.165,5477.777777777777
-0.405,0.17,5480.555555555556
-0.41,0.17,5483.333333333333
-0.43,0.17,5486.111111111111
-0.435,0.17,5488.888888888889
-0.425,0.175,5491.666666666667
-0.39,0.195,5494.444444444444
-0.38,0.17,5497.222222222223
-0.395,0.16,5500.0
-0.4,0.15,5502.777777777777
-0.42,0.165,5505.555555555556
-0.42,0.16,5508.333333333333
-0.405,0.175,5511.111111111111
-0.405,0.155,5513.888888888889
-0.43,0.14,5516.666666666667
-0.455,0.135,5519.444444444444
-0.445,0.14,5522.222222222223
-0.44,0.15,5525.0
-0.41,0.18,5527.777777777777
-0.405,0.155,5530.555555555556
-0.395,0.155,5533.333333333333
-0.41,0.135,5536.111111111111
-0.425,0.14,5538.888888888889
-0.415,0.14,5541.666666666667
-0.415,0.18,5544.444444444444
-0.425,0.17,5547.222222222223
-0.425,0.15,5550.0
-0.45,0.125,5552.777777777777
-0.475,0.145,5555.555555555556
-0.475,0.15,5558.333333333333
-0.455,0.175,5561.111111111111
-0.445,0.16,5563.888888888889
-0.445,0.14,5566.666666666667
-0.46,0.125,5569.444444444444
-0.455,0.115,5572.222222222223
-0.45,0.12,5575.0
-0.44,0.13,5577.777777777777
-0.43,0.14,5580.555555555556
-0.43,0.145,5583.333333333333
-0.44,0.13,5586.111111111111
-0.455,0.125,5588.888888888889
-0.465,0.125,5591.666666666667
-0.43,0.145,5594.444444444444
-0.41,0.14,5597.222222222223
-0.4,0.13,5600.0
-0.39,0.105,5602.777777777777
-0.37,0.11,5605.555555555556
-0.34,0.125,5608.333333333333
-0.285,0.14,5611.111111111111
-0.205,0.14,5613.888888888889
-0.06,0.135,5616.666666666667
0.25,0.12,5619.444444444444
0.745,0.125,5622.222222222223
1.19,0.125,5625.0
1.305,0.11,5627.777777777777
1.1,0.035,5630.555555555556
0.835,-0.15,5633.333333333333
0.68,-0.41,5636.111111111111
0.585,-0.8,5638.888888888889
0.52,-1.155,5641.666666666667
0.415,-1.265,5644.444444444444
0.315,-1.13,5647.222222222223
0.225,-0.95,5650.0
0.12,-0.87,5652.777777777777
0.0,-0.845,5655.555555555556
-0.115,-0.805,5658.333333333333
-0.235,-0.765,5661.111111111111
-0.38,-0.755,5663.888888888889
-0.52,-0.765,5666.666666666667
-0.66,-0.76,5669.444444444444
-0.805,-0.76,5672.222222222223
-0.935,-0.76,5675.0
-1.09,-0.75,5677.777777777777
-1.26,-0.755,5680.555555555556
-1.42,-0.77,5683.333333333333
-1.585,-0.79,5686.111111111111
-1.685,-0.79,5688.888888888889
-1.76,-0.765,5691.666666666667
-1.82,-0.76,5694.444444444444
-1.885,-0.78,5697.222222222223
-1.975,-0.805,5700.0
-2.02,-0.845,5702.777777777777
-2.06,-0.855,5705.555555555556
-2.06,-0.84,5708.333333333333
-2.06,-0.825,5711.111111111111
-2.045,-0.84,5713.888888888889
-2.025,-0.885,5716.666666666667
-1.995,-0.915,5719.444444444444
-1.995,-0.96,5722.222222222223
-1.92,-0.985,5725.0
-1.825,-0.995,5727.777777777777
-1.695,-1.01,5730.555555555556
-1.56,-1.035,5733.333333333333
-1.435,-1.025,5736.111111111111
-1.35,-1.01,5738.888888888889
-1.25,-0.95,5741.666666666667
-1.2,-0.91,5744.444444444444
-1.165,-0.86,5747.222222222223
-1.155,-0.84,5750.0
-1.125,-0.82,5752.777777777777
-1.09,-0.77,5755.555555555556
-1.03,-0.71,5758.333333333333
-0.95,-0.64,5761.111111111111
-0.87,-0.585,5763.888888888889
-0.815,-0.52,5766.666666666667
-0.74,-0.475,5769.444444444444
-0.69,-0.41,5772.222222222223
-0.615,-0.34,5775.0
-0.53,-0.25,5777.777777777777
-0.445,-0.185,5780.555555555556
-0.395,-0.115,5783.333333333333
-0.365,-0.08,5786.111111111111
-0.355,-0.005,5788.888888888889
-0.32,0.06,5791.666666666667
-0.29,0.13,5794.444444444444
-0.27,0.17,5797.222222222223
-0.26,0.175,5800.0
-0.25,0.195,5802.777777777777
-0.24,0.24,5805.555555555556
-0.235,0.285,5808.333333333333
-0.22,0.32,5811.111111111111
-0.21,0.335,5813.888888888889
-0.205,0.35,5816.666666666667
-0.21,0.35,5819.444444444444
-0.185,0.36,5822.222222222223
-0.17,0.385,5825.0
-0.145,0.405,5827.777777777777
-0.125,0.385,5830.555555555556
-0.09,0.395,5833.333333333333
-0.08,0.375,5836.111111111111
-0.065,0.39,5838.888888888889
-0.055,0.4,5841.666666666667
-0.035,0.43,5844.444444444444
-0.01,0.42,5847.222222222223
0.0,0.4,5850.0
0.005,0.395,5852.777777777777
-0.005,0.41,5855.555555555556
0.015,0.425,5858.333333333333
0.03,0.43,5861.111111111111
0.045,0.43,5863.888888888889
0.06,0.425,5866.666666666667
0.065,0.425,5869.444444444444
0.08,0.425,5872.222222222223
0.085,0.445,5875.0
0.085,0.465,5877.777777777777
0.1,0.475,5880.555555555556
0.11,0.465,5883.333333333333
0.11,0.45,5886.111111111111
0.105,0.455,5888.888888888889
0.135,0.465,5891.666666666667
0.165,0.495,5894.444444444444
0.2,0.505,5897.222222222223
0.235,0.49,5900.0
0.26,0.49,5902.777777777777
0.265,0.505,5905.555555555556
0.295,0.515,5908.333333333333
0.33,0.54,5911.111111111111
0.355,0.545,5913.888888888889
0.355,0.54,5916.666666666667
0.36,0.54,5919.444444444444
0.38,0.545,5922.222222222223
0.4,0.57,5925.0
0.425,0.585,5927.777777777777
0.43,0.6,5930.555555555556
0.46,0.595,5933.333333333333
0.47,0.59,5936.111111111111
0.495,0.605,5938.888888888889
0.525,0.635,5941.666666666667
0.555,0.66,5944.444444444444
0.6,0.645,5947.222222222223
0.61,0.645,5950.0
0.62,0.645,5952.777777777777
0.65,0.675,5955.555555555556
0.67,0.71,5958.333333333333
0.71,0.725,5961.111111111111
0.725,0.735,5963.888888888889
0.72,0.735,5966.666666666667
0.71,0.715,5969.444444444444
0.69,0.735,5972.222222222223
0.7,0.735,5975.0
0.7,0.75,5977.777777777777
0.72,0.73,5980.555555555556
0.695,0.72,5983.333333333333
0.68,0.705,5986.111111111111
0.65,0.705,5988.888888888889
0.64,0.73,5991.666666666667
0.62,0.74,5994.444444444444
0.595,0.75,5997.222222222223
0.545,0.715,6000.0
0.49,0.685,6002.777777777777
0.435,0.685,6005.555555555556
0.405,0.685,6008.333333333333
0.39,0.69,6011.111111111111
0.365,0.68,6013.888888888889
0.32,0.635,6016.666666666667
0.265,0.62,6019.444444444444
0.2,0.605,6022.222222222223
0.15,0.595,6025.0
0.12,0.595,6027.777777777777
0.09,0.57,6030.555555555556
0.055,0.54,6033.333333333333
0.0,0.505,6036.111111111111
-0.03,0.505,6038.888888888889
-0.075,0.505,6041.666666666667
-0.105,0.505,6044.444444444444
-0.145,0.465,6047.222222222223
-0.19,0.435,6050.0
-0.225,0.395,6052.777777777777
-0.265,0.385,6055.555555555556
-0.265,0.385,6058.333333333333
-0.295,0.4,6061.111111111111
-0.3,0.385,6063.888888888889
-0.325,0.36,6066.666666666667
-0.325,0.345,6069.444444444444
-0.355,0.355,6072.222222222223
-0.355,0.34,6075.0
-0.345,0.365,6077.777777777777
-0.33,0.345,6080.555555555556
-0.33,0.335,6083.333333333333
-0.33,0.31,6086.111111111111
-0.35,0.32,6088.888888888889
-0.355,0.32,6091.666666666667
-0.345,0.345,6094.444444444444
-0.35,0.33,6097.222222222223
-0.35,0.295,6100.0
-0.345,0.28,6102.777777777777
-0.355,0.27,6105.555555555556
-0.38,0.28,6108.333333333333
-0.36,0.28,6111.111111111111
-0.345,0.295,6113.888888888889
-0.335,0.285,6116.666666666667
-0.345,0.265,6119.444444444444
-0.35,0.25,6122.222222222223
-0.36,0.265,6125.0
-0.345,0.275,6127.777777777777
-0.335,0.265,6130.555555555556
-0.33,0.255,6133.333333333333
-0.345,0.235,6136.111111111111
-0.355,0.23,6138.888888888889
-0.36,0.24,6141.666666666667
-0.345,0.26,6144.444444444444
-0.34,0.25,6147.222222222223
-0.345,0.245,6150.0
-0.35,0.24,6152.777777777777
-0.37,0.245,6155.555555555556
-0.375,0.26,6158.333333333333
-0.36,0.28,6161.111111111111
-0.355,0.265,6163.888888888889
-0.35,0.255,6166.666666666667
-0.36,0.255,6169.444444444444
-0.38,0.25,6172.222222222223
-0.385,0.265,6175.0
-0.375,0.265,6177.777777777777
-0.38,0.255,6180.555555555556
-0.39,0.25,6183.333333333333
-0.4,0.235,6186.111111111111
-0.42,0.245,6188.888888888889
-0.43,0.25,6191.666666666667
-0.42,0.265,6194.444444444444
-0.42,0.255,6197.222222222223
-0.43,0.24,6200.0
-0.45,0.25,6202.777777777777
-0.45,0.245,6205.555555555556
-0.44,0.265,6208.333333333333
-0.415,0.275,6211.111111111111
-0.375,0.28,6213.888888888889
-0.37,0.27,6216.666666666667
-0.365,0.265,6219.444444444444
-0.395,0.245,6222.222222222223
-0.41,0.26,6225.0
-0.405,0.26,6227.777777777777
-0.41,0.235,6230.555555555556
-0.42,0.215,6233.333333333333
-0.435,0.2,6236.111111111111
-0.425,0.185,6238.888888888889
-0.4,0.195,6241.666666666667
-0.39,0.23,6244.444444444444
-0.37,0.215,6247.222222222223
-0.37,0.21,6250.0
-0.39,0.215,6252.777777777777
-0.42,0.21,6255.555555555556
-0.435,0.21,6258.333333333333
-0.425,0.215,6261.111111111111
-0.415,0.195,6263.888888888889
-0.42,0.18,6266.666666666667
-0.43,0.16,6269.444444444444
-0.445,0.165,6272.222222222223
-0.425,0.18,6275.0
-0.415,0.195,6277.777777777777
-0.405,0.19,6280.555555555556
-0.42,0.18,6283.333333333333
-0.415,0.165,6286.111111111111
-0.415,0.155,6288.888888888889
-0.425,0.18,6291.666666666667
-0.415,0.18,6294.444444444444
-0.395,0.19,6297.222222222223
-0.405,0.175,6300.0
-0.425,0.16,6302.777777777777
-0.435,0.165,6305.555555555556
-0.445,0.19,6308.333333333333
-0.455,0.19,6311.111111111111
-0.45,0.195,6313.888888888889
-0.44,0.175,6316.666666666667
-0.445,0.18,6319.444444444444
-0.465,0.175,6322.222222222223
-0.46,0.195,6325.0
-0.45,0.2,6327.777777777777
-0.425,0.205,6330.555555555556
-0.42,0.18,6333.333333333333
-0.43,0.165,6336.111111111111
-0.44,0.18,6338.888888888889
-0.425,0.19,6341.666666666667
-0.415,0.205,6344.444444444444
-0.395,0.21,6347.222222222223
-0.39,0.195,6350.0
-0.4,0.185,6352.777777777777
-0.4,0.17,6355.555555555556
-0.415,0.165,6358.333333333333
-0.415,0.17,6361.111111111111
-0.395,0.155,6363.888888888889
-0.41,0.155,6366.666666666667
-0.405,0.13,6369.444444444444
-0.405,0.135,6372.222222222223
-0.395,0.145,6375.0
-0.39,0.15,6377.777777777777
-0.375,0.135,6380.555555555556
-0.38,0.12,6383.333333333333
-0.405,0.1,6386.111111111111
-0.405,0.11,6388.888888888889
-0.39,0.12,6391.666666666667
-0.39,0.115,6394.444444444444
-0.38,0.105,6397.222222222223
-0.4,0.1,6400.0
-0.385,0.095,6402.777777777777
-0.395,0.095,6405.555555555556
-0.37,0.105,6408.333333333333
-0.36,0.125,6411.111111111111
-0.335,0.115,6413.888888888889
-0.34,0.095,6416.666666666667
-0.315,0.075,6419.444444444444
-0.295,0.07,6422.222222222223
-0.2,0.075,6425.0
-0.005,0.08,6427.777777777777
0.375,0.075,6430.555555555556
0.895,0.06,6433.333333333333
1.31,0.015,6436.111111111111
1.35,-0.05,6438.888888888889
1.1,-0.11,6441.666666666667
0.85,-0.305,6444.444444444444
0.72,-0.62,6447.222222222223
0.645,-1.025,6450.0
0.55,-1.26,6452.777777777777
0.43,-1.22,6455.555555555556
0.31,-1.05,6458.333333333333
0.2,-0.91,6461.111111111111
0.085,-0.885,6463.888888888889
-0.065,-0.875,6466.666666666667
-0.19,-0.85,6469.444444444444
-0.31,-0.82,6472.222222222223
-0.41,-0.78,6475.0
-0.535,-0.765,6477.777777777777
-0.66,-0.775,6480.555555555556
-0.81,-0.795,6483.333333333333
-0.99,-0.82,6486.111111111111
-1.165,-0.85,6488.888888888889
-1.315,-0.845,6491.666666666667
-1.45,-0.845,6494.444444444444
-1.545,-0.85,6497.222222222223
-1.64,-0.875,6500.0
-1.75,-0.89,6502.777777777777
-1.845,-0.925,6505.555555555556
-1.92,-0.91,6508.333333333333
-1.975,-0.91,6511.111111111111
-2.0,-0.935,6513.888888888889
-2.035,-0.95,6516.666666666667
-2.06,-0.98,6519.444444444444
-2.07,-0.98,6522.222222222223
-2.035,-0.995,6525.0
-1.99,-1.0,6527.777777777777
-1.94,-1.03,6530.555555555556
-1.9,-1.07,6533.333333333333
-1.845,-1.115,6536.111111111111
-1.76,-1.135,6538.888888888889
-1.615,-1.13,6541.666666666667
-1.47,-1.11,6544.444444444444
-1.34,-1.105,6547.222222222223
-1.225,-1.09,6550.0
-1.14,-1.065,6552.777777777777
-1.11,-1.015,6555.555555555556
-1.075,-0.965,6558.333333333333
-1.01,-0.915,6561.111111111111
-0.955,-0.9,6563.888888888889
-0.92,-0.86,6566.666666666667
-0.86,-0.825,6569.444444444444
-0.81,-0.775,6572.222222222223
-0.735,-0.695,6575.0
-0.64,-0.64,6577.777777777777
-0.57,-0.58,6580.555555555556
-0.505,-0.515,6583.333333333333
-0.435,-0.455,6586.111111111111
-0.37,-0.395,6588.888888888889
-0.325,-0.305,6591.666666666667
-0.26,-0.235,6594.444444444444
-0.235,-0.175,6597.222222222223
-0.205,-0.12,6600.0
-0.195,-0.07,6602.777777777777
-0.165,-0.02,6605.555555555556
-0.115,0.04,6608.333333333333
-0.09,0.09,6611.111111111111
-0.08,0.115,6613.888888888889
-0.08,0.13,6616.666666666667
-0.075,0.125,6619.444444444444
-0.06,0.13,6622.222222222223
-0.02,0.16,6625.0
0.01,0.175,6627.777777777777
0.035,0.175,6630.555555555556
0.05,0.165,6633.333333333333
0.05,0.155,6636.111111111111
0.055,0.165,6638.888888888889
0.065,0.195,6641.666666666667
0.095,0.22,6644.444444444444
0.115,0.225,6647.222222222223
0.11,0.23,6650.0
0.105,0.22,6652.777777777777
0.115,0.225,6655.555555555556
0.12,0.25,6658.333333333333
0.14,0.26,6661.111111111111
0.165,0.255,6663.888888888889
0.17,0.25,6666.666666666667
0.18,0.24,6669.444444444444
0.17,0.245,6672.222222222223
0.19,0.25,6675.0
0.205,0.27,6677.777777777777
0.215,0.285,6680.555555555556
0.22,0.285,6683.333333333333
0.215,0.29,6686.111111111111
0.225,0.28,6688.888888888889
0.255,0.31,6691.666666666667
0.29,0.32,6694.444444444444
0.32,0.33,6697.222222222223
0.34,0.325,6700.0
0.33,0.3,6702.777777777777
0.33,0.315,6705.555555555556
0.345,0.335,6708.333333333333
0.395,0.35,6711.111111111111
0.425,0.36,6713.888888888889
0.435,0.345,6716.666666666667
0.455,0.335,6719.444444444444
0.47,0.36,6722.222222222223
0.49,0.375,6725.0
0.52,0.4,6727.777777777777
0.545,0.4,6730.555555555556
0.555,0.395,6733.333333333333
0.565,0.39,6736.111111111111
0.58,0.4,6738.888888888889
0.615,0.43,6741.666666666667
0.65,0.44,6744.444444444444
0.685,0.455,6747.222222222223
0.7,0.445,6750.0
0.725,0.435,6752.777777777777
0.74,0.445,6755.555555555556
0.76,0.455,6758.333333333333
0.79,0.475,6761.111111111111
0.815,0.48,6763.888888888889
0.825,0.465,6766.666666666667
0.815,0.45,6769.444444444444
0.835,0.46,6772.222222222223
0.855,0.485,6775.0
0.885,0.505,6777.777777777777
0.9,0.52,6780.555555555556
0.88,0.515,6783.333333333333
0.875,0.505,6786.111111111111
0.865,0.515,6788.888888888889
0.865,0.555,6791.666666666667
0.875,0.575,6794.444444444444
0.865,0.575,6797.222222222223
0.83,0.57,6800.0
0.795,0.555,6802.777777777777
0.765,0.565,6805.555555555556
0.74,0.575,6808.333333333333
0.74,0.575,6811.111111111111
0.705,0.575,6813.888888888889
0.665,0.555,6816.666666666667
0.615,0.555,6819.444444444444
0.56,0.54,6822.222222222223
0.555,0.55,6825.0
0.505,0.56,6827.777777777777
0.47,0.54,6830.555555555556
0.41,0.515,6833.333333333333
0.34,0.485,6836.111111111111
0.28,0.485,6838.888888888889
0.245,0.47,6841.666666666667
0.21,0.47,6844.444444444444
0.185,0.44,6847.222222222223
0.14,0.415,6850.0
0.08,0.365,6852.777777777777
0.04,0.365,6855.555555555556
0.005,0.355,6858.333333333333
-0.025,0.37,6861.111111111111
-0.045,0.34,6863.888888888889
-0.07,0.32,6866.666666666667
-0.09,0.285,6869.444444444444
-0.13,0.28,6872.222222222223
-0.15,0.275,6875.0
-0.17,0.27,6877.777777777777
-0.21,0.26,6880.555555555556
-0.22,0.235,6883.333333333333
-0.25,0.21,6886.111111111111
-0.28,0.205,6888.888888888889
-0.27,0.19,6891.666666666667
-0.26,0.205,6894.444444444444
-0.26,0.195,6897.222222222223
-0.255,0.175,6900.0
-0.275,0.15,6902.777777777777
-0.295,0.125,6905.555555555556
-0.29,0.14,6908.333333333333
-0.29,0.125,6911.111111111111
-0.3,0.115,6913.888888888889
-0.295,0.11,6916.666666666667
-0.305,0.085,6919.444444444444
-0.305,0.08,6922.222222222223
-0.3,0.085,6925.0
-0.3,0.105,6927.777777777777
-0.305,0.095,6930.555555555556
-0.3,0.095,6933.333333333333
-0.31,0.07,6936.111111111111
-0.31,0.06,6938.888888888889
-0.295,0.075,6941.666666666667
-0.28,0.09,6944.444444444444
-0.27,0.085,6947.222222222223
-0.275,0.075,6950.0
-0.29,0.07,6952.777777777777
-0.32,0.09,6955.555555555556
-0.305,0.105,6958.333333333333
-0.3,0.11,6961.111111111111
-0.285,0.11,6963.888888888889
-0.3,0.1,6966.666666666667
-0.305,0.075,6969.444444444444
-0.31,0.085,6972.222222222223
-0.3,0.11,6975.0
-0.28,0.13,6977.777777777777
-0.28,0.12,6980.555555555556
-0.275,0.115,6983.333333333333
-0.305,0.105,6986.111111111111
-0.315,0.095,6988.888888888889
-0.305,0.11,6991.666666666667
-0.295,0.11,6994.444444444444
-0.29,0.115,6997.222222222223
-0.32,0.11,7000.0
-0.325,0.095,7002.777777777777
-0.34,0.09,7005.555555555556
-0.33,0.115,7008.333333333333
-0.31,0.12,7011.111111111111
-0.32,0.115,7013.888888888889
-0.32,0.115,7016.666666666667
-0.35,0.105,7019.444444444444
-0.34,0.11,7022.222222222223
-0.345,0.12,7025.0
-0.33,0.13,7027.777777777777
-0.315,0.13,7030.555555555556
-0.335,0.11,7033.333333333333
-0.355,0.105,7036.111111111111
-0.37,0.095,7038.888888888889
-0.35,0.08,7041.666666666667
-0.355,0.09,7044.444444444444
-0.365,0.09,7047.222222222223
-0.38,0.065,7050.0
-0.37,0.05,7052.777777777777
-0.38,0.07,7055.555555555556
-0.375,0.07,7058.333333333333
-0.355,0.095,7061.111111111111
-0.325,0.09,7063.888888888889
-0.345,0.085,7066.666666666667
-0.37,0.08,7069.444444444444
-0.385,0.06,7072.222222222223
-0.38,0.08,7075.0
-0.365,0.085,7077.777777777777
-0.355,0.08,7080.555555555556
-0.36,0.06,7083.333333333333
-0.375,0.035,7086.111111111111
-0.375,0.04,7088.888888888889
-0.375,0.06,7091.666666666667
-0.355,0.075,7094.444444444444
-0.355,0.065,7097.222222222223
-0.345,0.065,7100.0
-0.36,0.05,7102.777777777777
-0.375,0.055,7105.555555555556
-0.365,0.06,7108.333333333333
-0.36,0.06,7111.111111111111
-0.365,0.065,7113.888888888889
-0.385,0.055,7116.666666666667
-0.38,0.04,7119.444444444444
-0.39,0.055,7122.222222222223
-0.375,0.065,7125.0
-0.37,0.085,7127.777777777777
-0.355,0.08,7130.555555555556
-0.365,0.06,7133.333333333333
-0.37,0.06,7136.111111111111
-0.385,0.06,7138.888888888889
-0.375,0.07,7141.666666666667
-0.375,0.07,7144.444444444444
-0.36,0.07,7147.222222222223
-0.37,0.065,7150.0
-0.39,0.05,7152.777777777777
-0.4,0.045,7155.555555555556
-0.405,0.06,7158.333333333333
-0.395,0.065,7161.111111111111
-0.38,0.08,7163.888888888889
-0.4,0.075,7166.666666666667
-0.405,0.07,7169.444444444444
-0.395,0.065,7172.222222222223
-0.39,0.07,7175.0
-0.385,0.08,7177.777777777777
-0.37,0.065,7180.555555555556
-0.37,0.05,7183.333333333333
-0.38,0.03,7186.111111111111
-0.38,0.015,7188.888888888889
-0.385,0.03,7191.666666666667
-0.365,0.03,7194.444444444444
-0.36,0.035,7197.222222222223
-0.365,0.02,7200.0
-0.375,0.01,7202.777777777777
-0.36,0.02,7205.555555555556
-0.37,0.035,7208.333333333333
-0.35,0.045,7211.111111111111
-0.335,0.04,7213.888888888889
-0.34,0.03,7216.666666666667
-0.345,0.01,7219.444444444444
-0.355,0.0,7222.222222222223
-0.35,0.005,7225.0
-0.34,0.025,7227.777777777777
-0.325,0.015,7230.555555555556
-0.325,0.0,7233.333333333333
-0.34,-0.01,7236.111111111111
-0.33,-0.005,7238.888888888889
-0.325,0.01,7241.666666666667
-0.315,0.015,7244.444444444444
-0.295,0.005,7247.222222222223
-0.305,-0.015,7250.0
-0.305,-0.025,7252.777777777777
-0.305,-0.02,7255.555555555556
-0.28,-0.03,7258.333333333333
-0.255,-0.02,7261.111111111111
-0.18,-0.03,7263.888888888889
-0.095,-0.065,7266.666666666667
0.125,-0.06,7269.444444444444
0.53,-0.055,7272.222222222223
1.065,-0.05,7275.0
1.445,-0.07,7277.777777777777
1.455,-0.13,7280.555555555556
1.21,-0.21,7283.333333333333
0.95,-0.35,7286.111111111111
0.82,-0.575,7288.888888888889
0.73,-0.885,7291.666666666667
0.655,-1.16,7294.444444444444
0.545,-1.295,7297.222222222223
0.425,-1.225,7300.0
0.305,-1.1,7302.777777777777
0.185,-1.01,7305.555555555556
0.08,-0.965,7308.333333333333
-0.04,-0.935,7311.111111111111
-0.165,-0.915,7313.888888888889
-0.305,-0.9,7316.666666666667
-0.445,-0.895,7319.444444444444
-0.575,-0.885,7322.222222222223
-0.715,-0.89,7325.0
-0.83,-0.89,7327.777777777777
-0.97,-0.905,7330.555555555556
-1.12,-0.945,7333.333333333333
-1.265,-0.965,7336.111111111111
-1.41,-0.975,7338.888888888889
-1.51,-0.96,7341.666666666667
-1.585,-0.945,7344.444444444444
-1.645,-0.965,7347.222222222223
-1.73,-0.98,7350.0
-1.83,-1.0,7352.777777777777
-1.895,-1.015,7355.555555555556
-1.945,-1.01,7358.333333333333
-1.97,-0.995,7361.111111111111
-1.985,-1.03,7363.888888888889
-2.01,-1.05,7366.666666666667
-2.03,-1.065,7369.444444444444
-2.04,-1.065,7372.222222222223
-2.005,-1.07,7375.0
-1.945,-1.095,7377.777777777777
-1.89,-1.125,7380.555555555556
-1.86,-1.155,7383.333333333333
-1.79,-1.2,7386.111111111111
-1.7,-1.21,7388.888888888889
-1.58,-1.2,7391.666666666667
-1.43,-1.175,7394.444444444444
-1.27,-1.165,7397.222222222223
-1.15,-1.155,7400.0
-1.08,-1.13,7402.777777777777
-1.045,-1.08,7405.555555555556
-1.025,-1.035,7408.333333333333
-0.985,-1.0,7411.111111111111
-0.95,-0.975,7413.888888888889
-0.9,-0.95,7416.666666666667
-0.845,-0.91,7419.444444444444
-0.785,-0.86,7422.222222222223
-0.71,-0.785,7425.0
-0.635,-0.71,7427.777777777777
-0.555,-0.67,7430.555555555556
-0.475,-0.61,7433.333333333333
-0.435,-0.545,7436.111111111111
-0.37,-0.46,7438.888888888889
-0.305,-0.37,7441.666666666667
-0.24,-0.28,7444.444444444444
-0.17,-0.2,7447.222222222223
-0.13,-0.155,7450.0
-0.12,-0.105,7452.777777777777
-0.12,-0.045,7455.555555555556
-0.11,0.005,7458.333333333333
-0.07,0.045,7461.111111111111
-0.04,0.07,7463.888888888889
-0.015,0.075,7466.666666666667
-0.015,0.08,7469.444444444444
-0.01,0.09,7472.222222222223
0.015,0.115,7475.0
0.015,0.14,7477.777777777777
0.045,0.12,7480.555555555556
0.035,0.115,7483.333333333333
0.025,0.1,7486.111111111111
0.035,0.115,7488.888888888889
0.04,0.125,7491.666666666667
0.06,0.135,7494.444444444444
0.075,0.135,7497.222222222223
0.085,0.135,7500.0
0.095,0.14,7502.777777777777
0.115,0.135,7505.555555555556
0.135,0.165,7508.333333333333
0.165,0.19,7511.111111111111
0.195,0.19,7513.888888888889
0.19,0.185,7516.666666666667
0.18,0.175,7519.444444444444
0.175,0.18,7522.222222222223
0.19,0.205,7525.0
0.225,0.24,7527.777777777777
0.25,0.245,7530.555555555556
0.255,0.245,7533.333333333333
0.255,0.24,7536.111111111111
0.255,0.255,7538.888888888889
0.27,0.265,7541.666666666667
0.3,0.29,7544.444444444444
0.33,0.31,7547.222222222223
0.335,0.3,7550.0
0.355,0.295,7552.777777777777
0.36,0.315,7555.555555555556
0.39,0.335,7558.333333333333
0.43,0.35,7561.111111111111
0.46,0.35,7563.888888888889
0.48,0.345,7566.666666666667
0.475,0.33,7569.444444444444
0.495,0.355,7572.222222222223
0.525,0.37,7575.0
0.56,0.395,7577.777777777777
0.58,0.4,7580.555555555556
0.625,0.39,7583.333333333333
0.64,0.39,7586.111111111111
0.67,0.395,7588.888888888889
0.71,0.425,7591.666666666667
0.74,0.45,7594.444444444444
0.765,0.45,7597.222222222223
0.785,0.45,7600.0
0.795,0.45,7602.777777777777
0.8,0.465,7605.555555555556
0.83,0.5,7608.333333333333
0.865,0.505,7611.111111111111
0.86,0.515,7613.888888888889
0.89,0.515,7616.666666666667
0.875,0.515,7619.444444444444
0.87,0.515,7622.222222222223
0.865,0.54,7625.0
0.87,0.565,7627.777777777777
0.875,0.56,7630.555555555556
0.88,0.55,7633.333333333333
0.85,0.545,7636.111111111111
0.825,0.55,7638.888888888889
0.825,0.56,7641.666666666667
0.82,0.55,7644.444444444444
0.795,0.535,7647.222222222223
0.765,0.5,7650.0
0.715,0.49,7652.777777777777
0.67,0.48,7655.555555555556
0.63,0.475,7658.333333333333
0.595,0.465,7661.111111111111
0.54,0.455,7663.888888888889
0.48,0.42,7666.666666666667
0.415,0.41,7669.444444444444
0.36,0.405,7672.222222222223
0.32,0.41,7675.0
0.285,0.41,7677.777777777777
0.25,0.395,7680.555555555556
0.19,0.36,7683.333333333333
0.145,0.335,7686.111111111111
0.085,0.32,7688.888888888889
0.065,0.315,7691.666666666667
0.025,0.315,7694.444444444444
-0.025,0.29,7697.222222222223
-0.045,0.27,7700.0
-0.065,0.23,7702.777777777777
-0.105,0.22,7705.555555555556
-0.12,0.215,7708.333333333333
-0.125,0.225,7711.111111111111
-0.145,0.215,7713.888888888889
-0.155,0.195,7716.666666666667
-0.185,0.165,7719.444444444444
-0.195,0.16,7722.222222222223
-0.2,0.17,7725.0
-0.205,0.17,7727.777777777777
-0.2,0.155,7730.555555555556
-0.225,0.145,7733.333333333333
-0.245,0.125,7736.111111111111
-0.24,0.13,7738.888888888889
-0.24,0.13,7741.666666666667
-0.225,0.155,7744.444444444444
-0.23,0.145,7747.222222222223
-0.23,0.135,7750.0
-0.24,0.12,7752.777777777777
-0.255,0.115,7755.555555555556
-0.24,0.125,7758.333333333333
-0.225,0.13,7761.111111111111
-0.235,0.14,7763.888888888889
-0.245,0.12,7766.666666666667
-0.26,0.11,7769.444444444444
-0.265,0.12,7772.222222222223
-0.26,0.125,7775.0
-0.27,0.14,7777.777777777777
-0.265,0.13,7780.555555555556
-0.285,0.12,7783.333333333333
-0.295,0.12,7786.111111111111
-0.315,0.12,7788.888888888889
-0.3,0.135,7791.666666666667
-0.295,0.145,7794.444444444444
-0.265,0.135,7797.222222222223
-0.28,0.13,7800.0
-0.295,0.115,7802.777777777777
-0.28,0.1,7805.555555555556
-0.28,0.11,7808.333333333333
-0.27,0.105,7811.111111111111
-0.255,0.1,7813.888888888889
-0.27,0.08,7816.666666666667
-0.285,0.075,7819.444444444444
-0.275,0.085,7822.222222222223
-0.275,0.1,7825.0
-0.265,0.115,7827.777777777777
-0.255,0.105,7830.555555555556
-0.265,0.09,7833.333333333333
-0.275,0.085,7836.111111111111
-0.275,0.075,7838.888888888889
-0.27,0.1,7841.666666666667
-0.27,0.11,7844.444444444444
-0.27,0.11,7847.222222222223
-0.275,0.1,7850.0
-0.305,0.08,7852.777777777777
-0.32,0.08,7855.555555555556
-0.325,0.095,7858.333333333333
-0.295,0.115,7861.111111111111
-0.3,0.1,7863.888888888889
-0.31,0.07,7866.666666666667
-0.305,0.06,7869.444444444444
-0.31,0.055,7872.222222222223
-0.32,0.08,7875.0
-0.305,0.1,7877.777777777777
-0.28,0.1,7880.555555555556
-0.305,0.085,7883.333333333333
-0.325,0.065,7886.111111111111
-0.325,0.065,7888.888888888889
-0.32,0.08,7891.666666666667
-0.3,0.085,7894.444444444444
-0.3,0.085,7897.222222222223
-0.315,0.07,7900.0
-0.33,0.06,7902.777777777777
-0.34,0.07,7905.555555555556
-0.335,0.075,7908.333333333333
-0.335,0.1,7911.111111111111
-0.32,0.095,7913.888888888889
-0.325,0.07,7916.666666666667
-0.34,0.07,7919.444444444444
-0.36,0.075,7922.222222222223
-0.35,0.085,7925.0
-0.335,0.095,7927.777777777777
-0.335,0.105,7930.555555555556
-0.345,0.095,7933.333333333333
-0.36,0.07,7936.111111111111
-0.38,0.085,7938.888888888889
-0.37,0.095,7941.666666666667
-0.355,0.105,7944.444444444444
-0.36,0.105,7947.222222222223
-0.36,0.095,7950.0
-0.38,0.09,7952.777777777777
-0.365,0.105,7955.555555555556
-0.37,0.11,7958.333333333333
-0.33,0.125,7961.111111111111
-0.31,0.11,7963.888888888889
-0.31,0.09,7966.666666666667
-0.32,0.075,7969.444444444444
-0.315,0.065,7972.222222222223
-0.32,0.07,7975.0
-0.31,0.075,7977.777777777777
-0.305,0.085,7980.555555555556
-0.32,0.075,7983.333333333333
-0.335,0.075,7986.111111111111
-0.33,0.085,7988.888888888889
-0.335,0.105,7991.666666666667
-0.305,0.135,7994.444444444444
-0.31,0.13,7997.222222222223
-0.31,0.14,8000.0
-0.315,0.13,8002.777777777777
-0.305,0.125,8005.555555555556
-0.305,0.11,8008.333333333333
-0.29,0.11,8011.111111111111
-0.285,0.08,8013.888888888889
-0.28,0.09,8016.666666666667
-0.29,0.07,8019.444444444444
-0.315,0.05,8022.222222222223
-0.3,0.045,8025.0
-0.295,0.025,8027.777777777777
-0.305,0.005,8030.555555555556
-0.305,0.0,8033.333333333333
-0.31,-0.025,8036.111111111111
-0.315,-0.015,8038.888888888889
-0.305,-0.015,8041.666666666667
-0.29,-0.005,8044.444444444444
-0.275,0.0,8047.222222222223
-0.29,-0.01,8050.0
-0.325,-0.02,8052.777777777777
-0.315,-0.015,8055.555555555556
-0.305,-0.005,8058.333333333333
-0.275,0.02,8061.111111111111
-0.265,0.015,8063.888888888889
-0.28,0.005,8066.666666666667
-0.29,0.005,8069.444444444444
-0.295,-0.005,8072.222222222223
-0.265,0.005,8075.0
-0.25,0.02,8077.777777777777
-0.24,0.01,8080.555555555556
-0.235,-0.005,8083.333333333333
-0.24,-0.015,8086.111111111111
-0.235,-0.015,8088.888888888889
-0.195,-0.015,8091.666666666667
-0.105,0.005,8094.444444444444
0.04,-0.01,8097.222222222223
0.33,-0.025,8100.0
0.78,-0.055,8102.777777777777
1.23,-0.055,8105.555555555556
1.475,-0.08,8108.333333333333
1.405,-0.125,8111.111111111111
1.165,-0.23,8113.888888888889
0.965,-0.41,8116.666666666667
0.86,-0.695,8119.444444444444
0.805,-1.035,8122.222222222223
0.735,-1.265,8125.0
0.67,-1.28,8127.777777777777
0.585,-1.145,8130.555555555556
0.47,-1.065,8133.333333333333
0.36,-1.025,8136.111111111111
0.245,-0.99,8138.888888888889
0.135,-0.965,8141.666666666667
0.025,-0.935,8144.444444444444
-0.08,-0.925,8147.222222222223
-0.215,-0.935,8150.0
-0.365,-0.93,8152.777777777777
-0.485,-0.915,8155.555555555556
-0.605,-0.915,8158.333333333333
-0.73,-0.91,8161.111111111111
-0.86,-0.93,8163.888888888889
-1.03,-0.955,8166.666666666667
-1.2,-0.965,8169.444444444444
-1.34,-0.965,8172.222222222223
-1.45,-0.955,8175.0
-1.51,-0.94,8177.777777777777
-1.595,-0.95,8180.555555555556
-1.67,-0.97,8183.333333333333
-1.785,-0.99,8186.111111111111
-1.855,-0.99,8188.888888888889
-1.905,-0.99,8191.666666666667
-1.925,-0.98,8194.444444444445
-1.94,-0.99,8197.222222222223
-1.95,-1.035,8200.0
-1.945,-1.04,8202.777777777777
-1.925,-1.045,8205.555555555555
-1.88,-1.055,8208.333333333334
-1.81,-1.065,8211.111111111111
-1.77,-1.08,8213.888888888889
-1.685,-1.105,8216.666666666666
-1.61,-1.125,8219.444444444445
-1.505,-1.135,8222.222222222223
-1.385,-1.12,8225.0
-1.25,-1.1,8227.777777777777
-1.125,-1.065,8230.555555555555
-1.045,-1.035,8233.333333333334
-0.985,-1.025,8236.111111111111
-0.945,-0.99,8238.888888888889
-0.91,-0.95,8241.666666666666
-0.87,-0.905,8244.444444444445
-0.81,-0.86,8247.222222222223
-0.755,-0.83,8250.0
-0.72,-0.8,8252.777777777777
-0.655,-0.735,8255.555555555555
-0.57,-0.66,8258.333333333334
-0.49,-0.585,8261.111111111111
-0.395,-0.54,8263.888888888889
-0.325,-0.465,8266.666666666666
-0.275,-0.4,8269.444444444445
-0.215,-0.355,8272.222222222223
-0.15,-0.275,8275.0
-0.08,-0.2,8277.777777777777
-0.03,-0.15,8280.555555555555
0.0,-0.125,8283.333333333334
0.025,-0.1,8286.111111111111
0.05,-0.055,8288.888888888889
0.075,-0.005,8291.666666666666
0.1,0.035,8294.444444444445
0.13,0.045,8297.222222222223
0.145,0.07,8300.0
0.135,0.08,8302.777777777777
0.15,0.105,8305.555555555555
0.15,0.125,8308.333333333334
0.165,0.135,8311.111111111111
0.165,0.155,8313.888888888889
0.165,0.16,8316.666666666666
0.15,0.155,8319.444444444445
0.155,0.17,8322.222222222223
0.17,0.185,8325.0
0.195,0.22,8327.777777777777
0.22,0.205,8330.555555555555
0.215,0.22,8333.333333333334
0.195,0.205,8336.111111111111
0.205,0.215,8338.888888888889
0.225,0.24,8341.666666666666
0.24,0.265,8344.444444444445
0.27,0.265,8347.222222222223
0.27,0.26,8350.0
0.255,0.255,8352.777777777777
0.275,0.27,8355.555555555555
0.285,0.285,8358.333333333334
0.305,0.295,8361.111111111111
0.325,0.305,8363.888888888889
0.34,0.29,8366.666666666666
0.325,0.295,8369.444444444445
0.345,0.295,8372.222222222223
0.36,0.305,8375.0
0.385,0.32,8377.777777777777
0.395,0.31,8380.555555555555
0.415,0.315,8383.333333333334
0.405,0.31,8386.111111111111
0.42,0.325,8388.888888888889
0.445,0.35,8391.666666666666
0.455,0.36,8394.444444444445
0.48,0.36,8397.222222222223
0.49,0.345,8400.0
0.49,0.335,8402.777777777777
0.505,0.345,8405.555555555555
0.54,0.37,8408.333333333334
0.56,0.38,8411.111111111111
0.595,0.385,8413.888888888889
0.59,0.375,8416.666666666666
0.6,0.355,8419.444444444445
0.62,0.38,8422.222222222223
0.64,0.4,8425.0
0.68,0.405,8427.777777777777
0.7,0.41,8430.555555555555
0.73,0.385,8433.333333333334
0.75,0.4,8436.111111111111
0.76,0.41,8438.888888888889
0.79,0.425,8441.666666666666
0.82,0.445,8444.444444444445
0.845,0.45,8447.222222222223
0.865,0.455,8450.0
0.89,0.46,8452.777777777777
0.9,0.49,8455.555555555555
0.92,0.505,8458.333333333334
0.935,0.545,8461.111111111111
0.95,0.545,8463.888888888889
0.94,0.535,8466.666666666666
0.92,0.555,8469.444444444445
0.925,0.565,8472.222222222223
0.905,0.585,8475.0
0.92,0.605,8477.777777777777
0.905,0.595,8480.555555555555
0.88,0.6,8483.333333333334
0.85,0.595,8486.111111111111
0.805,0.605,8488.888888888889
0.795,0.62,8491.666666666666
0.77,0.61,8494.444444444445
0.76,0.61,8497.222222222223
0.71,0.595,8500.0
0.675,0.59,8502.777777777777
0.625,0.58,8505.555555555555
0.595,0.58,8508.333333333334
0.57,0.59,8511.111111111111
0.515,0.55,8513.888888888889
0.46,0.54,8516.666666666666
0.41,0.515,8519.444444444445
0.35,0.505,8522.222222222223
0.315,0.49,8525.0
0.29,0.485,8527.777777777777
0.25,0.46,8530.555555555555
0.2,0.44,8533.333333333334
0.145,0.4,8536.111111111111
0.105,0.385,8538.888888888889
0.07,0.365,8541.666666666666
0.04,0.36,8544.444444444445
0.025,0.325,8547.222222222223
-0.005,0.31,8550.0
-0.055,0.28,8552.777777777777
-0.09,0.27,8555.555555555555
-0.115,0.265,8558.333333333334
-0.115,0.26,8561.111111111111
-0.11,0.24,8563.888888888889
-0.13,0.215,8566.666666666666
-0.18,0.195,8569.444444444445
-0.18,0.18,8572.222222222223
-0.185,0.19,8575.0
-0.17,0.19,8577.777777777777
-0.18,0.165,8580.555555555555
-0.185,0.155,8583.333333333334
-0.21,0.13,8586.111111111111
-0.22,0.135,8588.888888888889
-0.21,0.155,8591.666666666666
-0.2,0.17,8594.444444444445
-0.195,0.17,8597.222222222223
-0.215,0.16,8600.0
-0.23,0.155,8602.777777777777
-0.235,0.16,8605.555555555555
-0.23,0.185,8608.333333333334
-0.2,0.195,8611.111111111111
-0.195,0.19,8613.888888888889
-0.22,0.17,8616.666666666666
-0.235,0.14,8619.444444444445
-0.24,0.145,8622.222222222223
-0.23,0.175,8625.0
-0.215,0.175,8627.777777777777
-0.21,0.17,8630.555555555555
-0.22,0.15,8633.333333333334
-0.22,0.155,8636.111111111111
-0.215,0.16,8638.888888888889
-0.215,0.16,8641.666666666666
-0.21,0.185,8644.444444444445
-0.195,0.165,8647.222222222223
-0.205,0.155,8650.0
-0.215,0.15,8652.777777777777
-0.215,0.145,8655.555555555555
-0.205,0.155,8658.333333333334
-0.215,0.165,8661.111111111111
-0.2,0.155,8663.888888888889
-0.22,0.145,8666.666666666666
-0.22,0.145,8669.444444444445
-0.23,0.145,8672.222222222223
-0.215,0.15,8675.0
-0.22,0.155,8677.777777777777
-0.215,0.145,8680.555555555555
-0.215,0.125,8683.333333333334
-0.23,0.11,8686.111111111111
-0.25,0.11,8688.888888888889
-0.255,0.12,8691.666666666666
-0.245,0.135,8694.444444444445
-0.23,0.125,8697.222222222223
-0.23,0.11,8700.0
-0.255,0.1,8702.777777777777
-0.255,0.095,8705.555555555555
-0.255,0.09,8708.333333333334
-0.26,0.1,8711.111111111111
-0.275,0.1,8713.888888888889
-0.285,0.1,8716.666666666666
-0.28,0.08,8719.444444444445
-0.295,0.075,8722.222222222223
-0.3,0.085,8725.0
-0.29,0.11,8727.777777777777
-0.3,0.1,8730.555555555555
-0.31,0.105,8733.333333333334
-0.325,0.095,8736.111111111111
-0.325,0.095,8738.888888888889
-0.315,0.115,8741.666666666666
-0.295,0.115,8744.444444444445
-0.27,0.115,8747.222222222223
-0.265,0.115,8750.0
-0.27,0.1,8752.777777777777
-0.29,0.12,8755.555555555555
-0.27,0.13,8758.333333333334
-0.26,0.155,8761.111111111111
-0.265,0.125,8763.888888888889
-0.27,0.115,8766.666666666666
-0.29,0.105,8769.444444444445
-0.3,0.1,8772.222222222223
-0.29,0.12,8775.0
-0.285,0.125,8777.777777777777
-0.28,0.12,8780.555555555555
-0.295,0.095,8783.333333333334
-0.31,0.095,8786.111111111111
-0.315,0.115,8788.888888888889
-0.29,0.115,8791.666666666666
-0.285,0.14,8794.444444444445
-0.27,0.13,8797.222222222223
-0.29,0.12,8800.0
-0.325,0.11,8802.777777777777
-0.32,0.11,8805.555555555555
-0.305,0.105,8808.333333333334
-0.28,0.11,8811.111111111111
-0.28,0.105,8813.888888888889
-0.295,0.085,8816.666666666666
-0.3,0.065,8819.444444444445
-0.305,0.075,8822.222222222223
-0.32,0.085,8825.0
-0.305,0.085,8827.777777777777
-0.285,0.08,8830.555555555555
-0.3,0.055,8833.333333333334
-0.305,0.065,8836.111111111111
-0.31,0.07,8838.888888888889
-0.34,0.055,8841.666666666666
-0.33,0.07,8844.444444444445
-0.32,0.06,8847.222222222223
-0.34,0.045,8850.0
-0.355,0.035,8852.777777777777
-0.36,0.04,8855.555555555555
-0.355,0.065,8858.333333333334
-0.33,0.08,8861.111111111111
-0.335,0.075,8863.888888888889
-0.32,0.055,8866.666666666666
-0.335,0.05,8869.444444444445
-0.33,0.04,8872.222222222223
-0.315,0.045,8875.0
-0.3,0.07,8877.777777777777
-0.28,0.065,8880.555555555555
-0.275,0.05,8883.333333333334
-0.29,0.035,8886.111111111111
-0.275,0.04,8888.888888888889
-0.265,0.055,8891.666666666666
-0.26,0.07,8894.444444444445
-0.24,0.065,8897.222222222223
-0.26,0.05,8900.0
-0.28,0.045,8902.777777777777
-0.295,0.05,8905.555555555555
-0.275,0.055,8908.333333333334
-0.25,0.07,8911.111111111111
-0.245,0.06,8913.888888888889
-0.255,0.04,8916.666666666666
-0.275,0.025,8919.444444444445
-0.28,0.035,8922.222222222223
-0.255,0.04,8925.0
-0.235,0.055,8927.777777777777
-0.22,0.04,8930.555555555555
-0.22,0.02,8933.333333333334
-0.235,0.005,8936.111111111111
-0.235,0.01,8938.888888888889
-0.2,0.005,8941.666666666666
-0.165,0.02,8944.444444444445
-0.135,0.005,8947.222222222223
-0.095,-0.015,8950.0
0.0,-0.03,8952.777777777777
0.2,-0.025,8955.555555555555
0.605,-0.02,8958.333333333334
1.08,-0.04,8961.111111111111
1.44,-0.08,8963.888888888889
1.47,-0.15,8966.666666666666
1.255,-0.23,8969.444444444445
1.03,-0.355,8972.222222222223
0.895,-0.55,8975.0
0.835,-0.835,8977.777777777777
0.805,-1.115,8980.555555555555
0.71,-1.245,8983.333333333334
0.605,-1.21,8986.111111111111
0.495,-1.1,8988.888888888889
0.41,-1.025,8991.666666666666
0.31,-0.99,8994.444444444445
0.18,-0.975,8997.222222222223
0.03,-0.955,9000.0
-0.105,-0.94,9002.777777777777
-0.25,-0.92,9005.555555555555
-0.355,-0.905,9008.333333333334
-0.475,-0.875,9011.111111111111
-0.605,-0.895,9013.888888888889
-0.77,-0.915,9016.666666666666
-0.91,-0.94,9019.444444444445
-1.055,-0.94,9022.222222222223
-1.175,-0.935,9025.0
-1.295,-0.915,9027.777777777777
-1.38,-0.925,9030.555555555555
-1.485,-0.935,9033.333333333334
-1.585,-0.945,9036.111111111111
-1.685,-0.94,9038.888888888889
-1.77,-0.945,9041.666666666666
-1.84,-0.925,9044.444444444445
-1.885,-0.935,9047.222222222223
-1.925,-0.96,9050.0
-1.955,-0.97,9052.777777777777
-1.975,-0.975,9055.555555555555
-1.96,-0.975,9058.333333333334
-1.93,-0.955,9061.111111111111
-1.875,-0.985,9063.888888888889
-1.865,-1.01,9066.666666666666
-1.845,-1.04,9069.444444444445
-1.8,-1.07,9072.222222222223
-1.715,-1.08,9075.0
-1.59,-1.08,9077.777777777777
-1.455,-1.085,9080.555555555555
-1.33,-1.085,9083.333333333334
-1.2,-1.08,9086.111111111111
-1.1,-1.04,9088.888888888889
-1.01,-0.985,9091.666666666666
-0.95,-0.93,9094.444444444445
-0.935,-0.905,9097.222222222223
-0.915,-0.89,9100.0
-0.885,-0.865,9102.777777777777
-0.83,-0.82,9105.555555555555
-0.76,-0.765,9108.333333333334
-0.685,-0.705,9111.111111111111
-0.6,-0.655,9113.888888888889
-0.545,-0.62,9116.666666666666
-0.48,-0.585,9119.444444444445
-0.42,-0.515,9122.222222222223
-0.325,-0.435,9125.0
-0.24,-0.355,9127.777777777777
-0.17,-0.3,9130.555555555555
-0.125,-0.265,9133.333333333334
-0.1,-0.225,9136.111111111111
-0.075,-0.185,9138.888888888889
-0.04,-0.125,9141.666666666666
-0.005,-0.08,9144.444444444445
0.025,-0.05,9147.222222222223
0.05,-0.035,9150.0
0.06,-0.005,9152.777777777777
0.055,0.02,9155.555555555555
0.09,0.045,9158.333333333334
0.105,0.075,9161.111111111111
0.125,0.095,9163.888888888889
0.13,0.085,9166.666666666666
0.145,0.11,9169.444444444445
0.14,0.135,9172.222222222223
0.16,0.14,9175.0
0.185,0.165,9177.777777777777
0.2,0.175,9180.555555555555
0.195,0.17,9183.333333333334
0.195,0.175,9186.111111111111
0.2,0.185,9188.888888888889
0.22,0.205,9191.666666666666
0.255,0.23,9194.444444444445
0.265,0.245,9197.222222222223
0.26,0.24,9200.0
0.26,0.245,9202.777777777777
0.26,0.26,9205.555555555555
0.29,0.295,9208.333333333334
0.335,0.32,9211.111111111111
0.355,0.33,9213.888888888889
0.345,0.34,9216.666666666666
0.33,0.315,9219.444444444445
0.325,0.31,9222.222222222223
0.345,0.29,9225.0
0.38,0.27,9227.777777777777
0.395,0.23,9230.555555555555
0.415,0.23,9233.333333333334
0.39,0.215,9236.111111111111
0.405,0.24,9238.888888888889
0.435,0.275,9241.666666666666
0.45,0.295,9244.444444444445
0.485,0.295,9247.222222222223
0.5,0.29,9250.0
0.49,0.285,9252.777777777777
0.505,0.295,9255.555555555555
0.515,0.315,9258.333333333334
0.55,0.33,9261.111111111111
0.585,0.325,9263.888888888889
0.595,0.315,9266.666666666666
0.59,0.315,9269.444444444445
0.605,0.32,9272.222222222223
0.645,0.33,9275.0
0.675,0.35,9277.777777777777
0.71,0.355,9280.555555555555
0.725,0.33,9283.333333333334
0.74,0.325,9286.111111111111
0.74,0.325,9288.888888888889
0.77,0.335,9291.666666666666
0.815,0.355,9294.444444444445
0.835,0.345,9297.222222222223
0.86,0.345,9300.0
0.88,0.34,9302.777777777777
0.885,0.34,9305.555555555555
0.92,0.355,9308.333333333334
0.955,0.38,9311.111111111111
0.96,0.39,9313.888888888889
0.95,0.395,9316.666666666666
0.94,0.395,9319.444444444445
0.945,0.415,9322.222222222223
0.955,0.44,9325.0
0.985,0.47,9327.777777777777
0.985,0.47,9330.555555555555
0.97,0.47,9333.333333333334
0.975,0.46,9336.111111111111
0.96,0.5,9338.888888888889
0.965,0.495,9341.666666666666
0.95,0.53,9344.444444444445
0.955,0.52,9347.222222222223
0.925,0.515,9350.0
0.875,0.525,9352.777777777777
0.845,0.535,9355.555555555555
0.82,0.56,9358.333333333334
0.805,0.57,9361.111111111111
0.79,0.555,9363.888888888889
0.74,0.525,9366.666666666666
0.695,0.525,9369.444444444445
0.645,0.525,9372.222222222223
0.59,0.525,9375.0
0.555,0.515,9377.777777777777
0.52,0.495,9380.555555555555
0.475,0.48,9383.333333333334
0.41,0.445,9386.111111111111
0.355,0.43,9388.888888888889
0.325,0.42,9391.666666666666
0.31,0.415,9394.444444444445
0.275,0.39,9397.222222222223
0.24,0.36,9400.0
0.185,0.33,9402.777777777777
0.14,0.315,9405.555555555555
0.11,0.305,9408.333333333334
0.09,0.3,9411.111111111111
0.06,0.27,9413.888888888889
0.03,0.245,9416.666666666666
-0.02,0.205,9419.444444444445
-0.045,0.21,9422.222222222223
-0.045,0.2,9425.0
-0.065,0.195,9427.777777777777
-0.055,0.175,9430.555555555555
-0.065,0.14,9433.333333333334
-0.09,0.13,9436.111111111111
-0.115,0.105,9438.888888888889
-0.11,0.105,9441.666666666666
-0.105,0.1,9444.444444444445
-0.105,0.08,9447.222222222223
-0.125,0.06,9450.0
-0.13,0.045,9452.777777777777
-0.145,0.035,9455.555555555555
-0.14,0.045,9458.333333333334
-0.135,0.065,9461.111111111111
-0.135,0.05,9463.888888888889
-0.14,0.055,9466.666666666666
-0.17,0.055,9469.444444444445
-0.165,0.06,9472.222222222223
-0.15,0.085,9475.0
-0.135,0.09,9477.777777777777
-0.12,0.09,9480.555555555555
-0.125,0.07,9483.333333333334
-0.135,0.075,9486.111111111111
-0.15,0.085,9488.888888888889
-0.16,0.095,9491.666666666666
-0.16,0.11,9494.444444444445
-0.145,0.1,9497.222222222223
-0.155,0.1,9500.0
-0.16,0.095,9502.777777777777
-0.14,0.1,9505.555555555555
-0.15,0.12,9508.333333333334
-0.135,0.13,9511.111111111111
-0.135,0.13,9513.888888888889
-0.145,0.125,9516.666666666666
-0.165,0.115,9519.444444444445
-0.17,0.11,9522.222222222223
-0.155,0.115,9525.0
-0.155,0.14,9527.777777777777
-0.14,0.12,9530.555555555555
-0.16,0.11,9533.333333333334
-0.185,0.105,9536.111111111111
-0.195,0.095,9538.888888888889
-0.195,0.11,9541.666666666666
-0.18,0.105,9544.444444444445
-0.185,0.11,9547.222222222223
-0.19,0.105,9550.0
-0.205,0.085,9552.777777777777
-0.21,0.085,9555.555555555555
-0.2,0.085,9558.333333333334
-0.19,0.105,9561.111111111111
-0.185,0.11,9563.888888888889
-0.195,0.09,9566.666666666666
-0.23,0.075,9569.444444444445
-0.225,0.06,9572.222222222223
-0.215,0.055,9575.0
-0.22,0.055,9577.777777777777
-0.215,0.05,9580.555555555555
-0.22,0.035,9583.333333333334
-0.245,0.025,9586.111111111111
-0.245,0.02,9588.888888888889
-0.235,0.025,9591.666666666666
-0.23,0.03,9594.444444444445
-0.24,0.025,9597.222222222223
-0.26,0.025,9600.0
-0.285,0.01,9602.777777777777
-0.285,0.025,9605.555555555555
-0.275,0.03,9608.333333333334
-0.25,0.045,9611.111111111111
-0.25,0.035,9613.888888888889
-0.25,0.02,9616.666666666666
-0.245,0.015,9619.444444444445
-0.245,0.005,9622.222222222223
-0.225,0.03,9625.0
-0.225,0.05,9627.777777777777
-0.225,0.05,9630.555555555555
-0.22,0.045,9633.333333333334
-0.245,0.06,9636.111111111111
-0.24,0.05,9638.888888888889
-0.225,0.07,9641.666666666666
-0.225,0.08,9644.444444444445
-0.215,0.065,9647.222222222223
-0.24,0.055,9650.0
-0.235,0.055,9652.777777777777
-0.25,0.055,9655.555555555555
-0.225,0.075,9658.333333333334
-0.205,0.08,9661.111111111111
-0.22,0.075,9663.888888888889
-0.21,0.07,9666.666666666666
-0.23,0.05,9669.444444444445
-0.245,0.065,9672.222222222223
-0.265,0.075,9675.0
-0.22,0.065,9677.777777777777
-0.22,0.05,9680.555555555555
-0.225,0.045,9683.333333333334
-0.24,0.04,9686.111111111111
-0.235,0.05,9688.888888888889
-0.235,0.06,9691.666666666666
-0.215,0.06,9694.444444444445
-0.215,0.05,9697.222222222223
-0.225,0.035,9700.0
-0.245,0.025,9702.777777777777
-0.245,0.02,9705.555555555555
-0.235,0.04,9708.333333333334
-0.22,0.035,9711.111111111111
-0.205,0.025,9713.888888888889
-0.225,0.015,9716.666666666666
-0.225,-0.005,9719.444444444445
-0.22,0.005,9722.222222222223
-0.225,0.005,9725.0
-0.21,0.015,9727.777777777777
-0.2,0.005,9730.555555555555
-0.215,-0.015,9733.333333333334
-0.24,-0.02,9736.111111111111
-0.245,-0.02,9738.888888888889
-0.24,-0.015,9741.666666666666
-0.23,0.015,9744.444444444445
-0.22,-0.005,9747.222222222223
-0.24,-0.01,9750.0
-0.255,-0.02,9752.777777777777
-0.27,0.0,9755.555555555555
-0.26,0.005,9758.333333333334
-0.235,0.02,9761.111111111111
-0.225,0.015,9763.888888888889
-0.225,0.005,9766.666666666666
-0.225,0.0,9769.444444444445
-0.22,0.0,9772.222222222223
-0.205,0.015,9775.0
-0.185,0.035,9777.777777777777
-0.19,0.01,9780.555555555555
-0.18,0.015,9783.333333333334
-0.18,-0.005,9786.111111111111
-0.175,0.005,9788.888888888889
-0.175,0.015,9791.666666666666
-0.155,0.015,9794.444444444445
-0.13,0.015,9797.222222222223
-0.14,-0.005,9800.0
-0.11,-0.01,9802.777777777777
-0.07,0.0,9805.555555555555
-0.005,-0.005,9808.333333333334
0.14,0.0,9811.111111111111
0.38,-0.015,9813.888888888889
0.795,-0.035,9816.666666666666
1.215,-0.055,9819.444444444445
1.475,-0.075,9822.222222222223
1.44,-0.11,9825.0
1.245,-0.185,9827.777777777777
1.07,-0.34,9830.555555555555
0.955,-0.63,9833.333333333334
0.87,-0.97,9836.111111111111
0.8,-1.28,9838.888888888889
0.745,-1.385,9841.666666666666
0.665,-1.325,9844.444444444445
0.59,-1.18,9847.222222222223
0.495,-1.105,9850.0
0.36,-1.065,9852.777777777777
0.255,-1.035,9855.555555555555
0.135,-1.005,9858.333333333334
0.02,-0.975,9861.111111111111
-0.11,-0.965,9863.888888888889
-0.255,-0.985,9866.666666666666
-0.395,-0.995,9869.444444444445
-0.54,-0.97,9872.222222222223
-0.675,-0.975,9875.0
-0.82,-0.97,9877.777777777777
-0.96,-0.995,9880.555555555555
-1.13,-1.005,9883.333333333334
-1.28,-1.02,9886.111111111111
-1.445,-1.015,9888.888888888889
-1.555,-1.0,9891.666666666666
-1.615,-0.995,9894.444444444445
-1.715,-1.015,9897.222222222223
-1.82,-1.03,9900.0
-1.895,-1.065,9902.777777777777
-1.96,-1.045,9905.555555555555
-1.97,-1.035,9908.333333333334
-1.965,-1.035,9911.111111111111
-1.98,-1.02,9913.888888888889
-1.95,-1.035,9916.666666666666
-1.94,-1.05,9919.444444444445
-1.91,-1.055,9922.222222222223
-1.86,-1.06,9925.0
-1.78,-1.065,9927.777777777777
-1.72,-1.09,9930.555555555555
-1.625,-1.115,9933.333333333334
-1.53,-1.15,9936.111111111111
-1.405,-1.155,9938.888888888889
-1.265,-1.135,9941.666666666666
-1.12,-1.105,9944.444444444445
-0.995,-1.075,9947.222222222223
-0.93,-1.05,9950.0
-0.895,-1.005,9952.777777777777
-0.855,-0.975,9955.555555555555
-0.785,-0.92,9958.333333333334
-0.72,-0.885,9961.111111111111
-0.65,-0.845,9963.888888888889
-0.59,-0.81,9966.666666666666
-0.54,-0.775,9969.444444444445
-0.475,-0.71,9972.222222222223
-0.395,-0.635,9975.0
-0.31,-0.565,9977.777777777777
-0.235,-0.515,9980.555555555555
-0.185,-0.48,9983.333333333334
-0.135,-0.43,9986.111111111111
-0.09,-0.365,9988.888888888889
-0.025,-0.275,9991.666666666666
0.035,-0.2,9994.444444444445
0.095,-0.145,9997.222222222223
0.115,-0.13,10000.0
0.105,-0.09,10002.777777777777
0.125,-0.04,10005.555555555555
0.15,0.0,10008.333333333334
0.17,0.035,10011.111111111111
0.195,0.05,10013.888888888889
0.2,0.065,10016.666666666666
0.19,0.06,10019.444444444445
0.2,0.08,10022.222222222223
0.205,0.1,10025.0
0.235,0.12,10027.777777777777
0.245,0.125,10030.555555555555
0.23,0.13,10033.333333333334
0.215,0.14,10036.111111111111
0.225,0.15,10038.888888888889
0.24,0.17,10041.666666666666
0.25,0.185,10044.444444444445
0.245,0.19,10047.222222222223
0.24,0.165,10050.0
0.255,0.16,10052.777777777777
0.255,0.17,10055.555555555555
0.29,0.215,10058.333333333334
0.32,0.23,10061.111111111111
0.345,0.22,10063.888888888889
0.35,0.21,10066.666666666666
0.355,0.2,10069.444444444445
0.355,0.225,10072.222222222223
0.38,0.25,10075.0
0.405,0.27,10077.777777777777
0.42,0.265,10080.555555555555
0.42,0.265,10083.333333333334
0.425,0.26,10086.111111111111
0.44,0.265,10088.888888888889
0.465,0.28,10091.666666666666
0.5,0.29,10094.444444444445
0.53,0.295,10097.222222222223
0.53,0.295,10100.0
0.525,0.285,10102.777777777777
0.545,0.305,10105.555555555555
0.55,0.32,10108.333333333334
0.585,0.325,10111.111111111111
0.6,0.335,10113.888888888889
0.615,0.345,10116.666666666666
0.62,0.335,10119.444444444445
0.635,0.335,10122.222222222223
0.67,0.36,10125.0
0.695,0.375,10127.777777777777
0.71,0.365,10130.555555555555
0.725,0.34,10133.333333333334
0.745,0.325,10136.111111111111
0.75,0.36,10138.888888888889
0.775,0.375,10141.666666666666
0.79,0.385,10144.444444444445
0.83,0.39,10147.222222222223
0.855,0.37,10150.0
0.86,0.365,10152.777777777777
0.875,0.385,10155.555555555555
0.89,0.4,10158.333333333334
0.92,0.415,10161.111111111111
0.935,0.415,10163.888888888889
0.935,0.405,10166.666666666666
0.94,0.415,10169.444444444445
0.945,0.415,10172.222222222223
0.96,0.455,10175.0
0.99,0.48,10177.777777777777
0.99,0.475,10180.555555555555
0.99,0.48,10183.333333333334
0.975,0.475,10186.111111111111
0.975,0.495,10188.888888888889
0.975,0.525,10191.666666666666
0.98,0.535,10194.444444444445
0.975,0.525,10197.222222222223
0.96,0.51,10200.0
0.95,0.52,10202.777777777777
0.925,0.54,10205.555555555555
0.92,0.555,10208.333333333334
0.905,0.575,10211.111111111111
0.895,0.57,10213.888888888889
0.865,0.565,10216.666666666666
0.82,0.545,10219.444444444445
0.765,0.555,10222.222222222223
0.755,0.57,10225.0
0.725,0.565,10227.777777777777
0.705,0.555,10230.555555555555
0.67,0.53,10233.333333333334
0.62,0.515,10236.111111111111
0.575,0.51,10238.888888888889
0.545,0.515,10241.666666666666
0.52,0.525,10244.444444444445
0.485,0.5,10247.222222222223
0.44,0.465,10250.0
0.385,0.44,10252.777777777777
0.33,0.435,10255.555555555555
0.3,0.43,10258.333333333334
0.27,0.42,10261.111111111111
0.23,0.4,10263.888888888889
0.19,0.365,10266.666666666666
0.13,0.325,10269.444444444445
0.105,0.305,10272.222222222223
0.075,0.3,10275.0
0.065,0.3,10277.777777777777
0.035,0.31,10280.555555555555
0.005,0.275,10283.333333333334
-0.005,0.26,10286.111111111111
-0.025,0.22,10288.888888888889
-0.045,0.2,10291.666666666666
-0.04,0.185,10294.444444444445
-0.05,0.16,10297.222222222223
-0.075,0.155,10300.0
-0.08,0.115,10302.777777777777
-0.105,0.105,10305.555555555555
-0.11,0.105,10308.333333333334
-0.11,0.12,10311.111111111111
-0.115,0.115,10313.888888888889
-0.135,0.085,10316.666666666666
-0.16,0.07,10319.444444444445
-0.15,0.065,10322.222222222223
-0.15,0.075,10325.0
-0.135,0.095,10327.777777777777
-0.12,0.09,10330.555555555555
-0.145,0.085,10333.333333333334
-0.155,0.07,10336.111111111111
-0.15,0.07,10338.888888888889
-0.135,0.08,10341.666666666666
-0.13,0.09,10344.444444444445
-0.12,0.085,10347.222222222223
-0.13,0.09,10350.0
-0.145,0.09,10352.777777777777
-0.155,0.095,10355.555555555555
-0.135,0.115,10358.333333333334
-0.11,0.135,10361.111111111111
-0.105,0.115,10363.888888888889
-0.125,0.11,10366.666666666666
-0.13,0.095,10369.444444444445
-0.13,0.095,10372.222222222223
-0.13,0.12,10375.0
-0.12,0.14,10377.777777777777
-0.125,0.13,10380.555555555555
-0.135,0.145,10383.333333333334
-0.14,0.14,10386.111111111111
-0.155,0.13,10388.888888888889
-0.125,0.15,10391.666666666666
-0.12,0.155,10394.444444444445
-0.125,0.155,10397.222222222223
-0.145,0.155,10400.0
-0.165,0.135,10402.777777777777
-0.175,0.15,10405.555555555555
-0.16,0.155,10408.333333333334
-0.135,0.175,10411.111111111111
-0.15,0.18,10413.888888888889
-0.155,0.15,10416.666666666666
-0.18,0.13,10419.444444444445
-0.195,0.12,10422.222222222223
-0.195,0.11,10425.0
-0.175,0.12,10427.777777777777
-0.17,0.105,10430.555555555555
-0.18,0.09,10433.333333333334
-0.2,0.075,10436.111111111111
-0.205,0.09,10438.888888888889
-0.21,0.085,10441.666666666666
-0.215,0.09,10444.444444444445
-0.225,0.08,10447.222222222223
-0.24,0.07,10450.0
-0.26,0.055,10452.777777777777
-0.25,0.05,10455.555555555555
-0.25,0.055,10458.333333333334
-0.23,0.06,10461.111111111111
-0.23,0.05,10463.888888888889
-0.245,0.03,10466.666666666666
-0.26,0.025,10469.444444444445
-0.255,0.055,10472.222222222223
-0.25,0.075,10475.0
-0.235,0.09,10477.777777777777
-0.23,0.09,10480.555555555555
-0.255,0.075,10483.333333333334
-0.265,0.06,10486.111111111111
-0.275,0.06,10488.888888888889
-0.29,0.085,10491.666666666666
-0.265,0.105,10494.444444444445
-0.255,0.095,10497.222222222223
-0.245,0.095,10500.0
-0.25,0.095,10502.777777777777
-0.24,0.115,10505.555555555555
-0.245,0.15,10508.333333333334
-0.2,0.16,10511.111111111111
-0.185,0.145,10513.888888888889
-0.22,0.115,10516.666666666666
-0.215,0.08,10519.444444444445
-0.235,0.07,10522.222222222223
-0.22,0.07,10525.0
-0.2,0.09,10527.777777777777
-0.19,0.085,10530.555555555555
-0.19,0.075,10533.333333333334
-0.195,0.06,10536.111111111111
-0.215,0.055,10538.888888888889
-0.205,0.075,10541.666666666666
-0.195,0.095,10544.444444444445
-0.2,0.09,10547.222222222223
-0.205,0.095,10550.0
-0.21,0.095,10552.777777777777
-0.22,0.09,10555.555555555555
-0.2,0.09,10558.333333333334
-0.195,0.095,10561.111111111111
-0.185,0.105,10563.888888888889
-0.18,0.08,10566.666666666666
-0.19,0.075,10569.444444444445
-0.21,0.07,10572.222222222223
-0.205,0.08,10575.0
-0.195,0.085,10577.777777777777
-0.185,0.05,10580.555555555555
-0.195,0.045,10583.333333333334
-0.23,0.035,10586.111111111111
-0.21,0.045,10588.888888888889
-0.21,0.045,10591.666666666666
-0.2,0.065,10594.444444444445
-0.21,0.05,10597.222222222223
-0.245,0.04,10600.0
-0.26,0.03,10602.777777777777
-0.255,0.03,10605.555555555555
-0.235,0.045,10608.333333333334
-0.21,0.05,10611.111111111111
-0.22,0.035,10613.888888888889
-0.22,0.02,10616.666666666666
-0.23,0.01,10619.444444444445
-0.225,0.01,10622.222222222223
-0.215,0.005,10625.0
-0.2,0.02,10627.777777777777
-0.205,0.005,10630.555555555555
-0.215,-0.015,10633.333333333334
-0.24,-0.015,10636.111111111111
-0.25,-0.01,10638.888888888889
-0.235,0.005,10641.666666666666
-0.22,0.01,10644.444444444445
-0.205,0.01,10647.222222222223
-0.22,0.005,10650.0
-0.225,-0.01,10652.777777777777
-0.225,0.005,10655.555555555555
-0.19,0.025,10658.333333333334
-0.155,0.04,10661.111111111111
-0.14,0.035,10663.888888888889
-0.13,0.01,10666.666666666666
-0.145,0.0,10669.444444444445
-0.125,0.01,10672.222222222223
-0.075,0.02,10675.0
0.02,0.03,10677.777777777777
0.185,0.03,10680.555555555555
0.49,0.01,10683.333333333334
0.91,-0.015,10686.111111111111
1.31,-0.02,10688.888888888889
1.455,-0.025,10691.666666666666
1.35,-0.075,10694.444444444445
1.145,-0.17,10697.222222222223
0.995,-0.395,10700.0
0.905,-0.735,10702.777777777777
0.83,-1.09,10705.555555555555
0.745,-1.245,10708.333333333334
0.645,-1.13,10711.111111111111
0.54,-0.995,10713.888888888889
0.425,-0.93,10716.666666666666
0.295,-0.915,10719.444444444445
0.2,-0.895,10722.222222222223
0.09,-0.86,10725.0
-0.03,-0.85,10727.777777777777
-0.15,-0.83,10730.555555555555
-0.3,-0.835,10733.333333333334
-0.465,-0.855,10736.111111111111
-0.59,-0.86,10738.888888888889
-0.735,-0.875,10741.666666666666
-0.875,-0.875,10744.444444444445
-1.025,-0.89,10747.222222222223
-1.185,-0.91,10750.0
-1.315,-0.925,10752.777777777777
-1.415,-0.935,10755.555555555555
-1.495,-0.92,10758.333333333334
-1.575,-0.93,10761.111111111111
-1.66,-0.95,10763.888888888889
-1.745,-0.965,10766.666666666666
-1.815,-0.985,10769.444444444445
-1.85,-0.995,10772.222222222223
-1.85,-0.98,10775.0
-1.865,-0.98,10777.777777777777
-1.855,-1.0,10780.555555555555
-1.835,-1.03,10783.333333333334
-1.81,-1.06,10786.111111111111
-1.785,-1.06,10788.888888888889
-1.715,-1.08,10791.666666666666
-1.61,-1.075,10794.444444444445
-1.49,-1.095,10797.222222222223
-1.375,-1.125,10800.0
-1.255,-1.12,10802.777777777777
-1.13,-1.1,10805.555555555555
-1.02,-1.06,10808.333333333334
-0.92,-1.02,10811.111111111111
-0.86,-0.985,10813.888888888889
-0.84,-0.955,10816.666666666666
-0.845,-0.93,10819.444444444445
-0.8,-0.88,10822.222222222223
-0.735,-0.815,10825.0
-0.65,-0.75,10827.777777777777
-0.555,-0.71,10830.555555555555
-0.495,-0.675,10833.333333333334
-0.42,-0.615,10836.111111111111
-0.36,-0.56,10838.888888888889
-0.29,-0.48,10841.666666666666
-0.195,-0.4,10844.444444444445
-0.145,-0.345,10847.222222222223
-0.095,-0.29,10850.0
-0.065,-0.235,10852.777777777777
-0.02,-0.17,10855.555555555555
0.015,-0.095,10858.333333333334
0.075,-0.04,10861.111111111111
0.1,0.005,10863.888888888889
0.105,0.03,10866.666666666666
0.1,0.055,10869.444444444445
0.1,0.09,10872.222222222223
0.125,0.115,10875.0
0.175,0.145,10877.777777777777
0.19,0.155,10880.555555555555
0.19,0.15,10883.333333333334
0.175,0.145,10886.111111111111
0.175,0.155,10888.888888888889
0.185,0.17,10891.666666666666
0.2,0.18,10894.444444444445
0.205,0.18,10897.222222222223
0.205,0.165,10900.0
0.195,0.165,10902.777777777777
0.205,0.18,10905.555555555555
0.22,0.195,10908.333333333334
0.27,0.215,10911.111111111111
0.265,0.19,10913.888888888889
0.27,0.195,10916.666666666666
0.27,0.19,10919.444444444445
0.28,0.205,10922.222222222223
0.29,0.22,10925.0
0.315,0.245,10927.777777777777
0.33,0.255,10930.555555555555
0.335,0.265,10933.333333333334
0.335,0.265,10936.111111111111
0.34,0.275,10938.888888888889
0.36,0.285,10941.666666666666
0.39,0.275,10944.444444444445
0.42,0.26,10947.222222222223
0.425,0.27,10950.0
0.435,0.28,10952.777777777777
0.45,0.3,10955.555555555555
0.48,0.32,10958.333333333334
0.49,0.335,10961.111111111111
0.515,0.345,10963.888888888889
0.515,0.33,10966.666666666666
0.505,0.325,10969.444444444445
0.535,0.36,10972.222222222223
0.57,0.375,10975.0
0.605,0.395,10977.777777777777
0.625,0.395,10980.555555555555
0.635,0.405,10983.333333333334
0.635,0.41,10986.111111111111
0.645,0.425,10988.888888888889
0.675,0.45,10991.666666666666
0.715,0.475,10994.444444444445
0.74,0.47,10997.222222222223
0.75,0.45,11000.0
0.745,0.455,11002.777777777777
0.77,0.475,11005.555555555555
0.805,0.49,11008.333333333334
0.835,0.52,11011.111111111111
0.855,0.51,11013.888888888889
0.855,0.505,11016.666666666666
0.865,0.49,11019.444444444445
0.875,0.51,11022.222222222223
0.86,0.525,11025.0
0.89,0.545,11027.777777777777
0.895,0.545,11030.555555555555
0.895,0.545,11033.333333333334
0.88,0.535,11036.111111111111
0.88,0.555,11038.888888888889
0.9,0.575,11041.666666666666
0.905,0.59,11044.444444444445
0.915,0.585,11047.222222222223
0.89,0.57,11050.0
0.865,0.575,11052.777777777777
0.85,0.57,11055.555555555555
0.84,0.59,11058.333333333334
0.85,0.6,11061.111111111111
0.825,0.6,11063.888888888889
0.785,0.57,11066.666666666666
0.75,0.56,11069.444444444445
0.715,0.57,11072.222222222223
0.695,0.565,11075.0
0.675,0.57,11077.777777777777
0.64,0.565,11080.555555555555
0.595,0.555,11083.333333333334
0.56,0.525,11086.111111111111
0.525,0.51,11088.888888888889
0.49,0.515,11091.666666666666
0.475,0.525,11094.444444444445
0.435,0.49,11097.222222222223
0.405,0.46,11100.0
0.35,0.435,11102.777777777777
0.295,0.425,11105.555555555555
0.27,0.415,11108.333333333334
0.24,0.415,11111.111111111111
0.225,0.385,11113.888888888889
0.18,0.355,11116.666666666666
0.125,0.32,11119.444444444445
0.1,0.32,11122.222222222223
0.095,0.325,11125.0
0.08,0.31,11127.777777777777
0.07,0.295,11130.555555555555
0.03,0.255,11133.333333333334
0.02,0.235,11136.111111111111
0.0,0.23,11138.888888888889
0.005,0.23,11141.666666666666
0.0,0.235,11144.444444444445
0.0,0.225,11147.222222222223
-0.005,0.195,11150.0
-0.04,0.175,11152.777777777777
-0.06,0.175,11155.555555555555
-0.065,0.17,11158.333333333334
-0.045,0.175,11161.111111111111
-0.045,0.17,11163.888888888889
-0.05,0.145,11166.666666666666
-0.06,0.13,11169.444444444445
-0.07,0.14,11172.222222222223
-0.065,0.14,11175.0
-0.055,0.15,11177.777777777777
-0.04,0.145,11180.555555555555
-0.04,0.12,11183.333333333334
-0.055,0.11,11186.111111111111
-0.07,0.115,11188.888888888889
-0.05,0.125,11191.666666666666
-0.05,0.13,11194.444444444445
-0.055,0.12,11197.222222222223
-0.06,0.12,11200.0
-0.085,0.11,11202.777777777777
-0.08,0.11,11205.555555555555
-0.065,0.125,11208.333333333334
-0.05,0.14,11211.111111111111
-0.04,0.13,11213.888888888889
-0.05,0.12,11216.666666666666
-0.06,0.12,11219.444444444445
-0.085,0.145,11222.222222222223
-0.075,0.155,11225.0
-0.065,0.17,11227.777777777777
-0.05,0.15,11230.555555555555
-0.07,0.145,11233.333333333334
-0.065,0.14,11236.111111111111
-0.08,0.15,11238.888888888889
-0.06,0.17,11241.666666666666
-0.04,0.19,11244.444444444445
-0.04,0.175,11247.222222222223
-0.045,0.16,11250.0
-0.06,0.15,11252.777777777777
-0.065,0.15,11255.555555555555
-0.055,0.165,11258.333333333334
-0.055,0.175,11261.111111111111
-0.05,0.17,11263.888888888889
-0.06,0.14,11266.666666666666
-0.075,0.13,11269.444444444445
-0.07,0.14,11272.222222222223
-0.07,0.155,11275.0
-0.06,0.155,11277.777777777777
-0.07,0.14,11280.555555555555
-0.075,0.115,11283.333333333334
-0.08,0.105,11286.111111111111
-0.075,0.115,11288.888888888889
-0.07,0.115,11291.666666666666
-0.06,0.12,11294.444444444445
-0.07,0.105,11297.222222222223
-0.095,0.09,11300.0
-0.12,0.075,11302.777777777777
-0.125,0.075,11305.555555555555
-0.115,0.09,11308.333333333334
-0.095,0.08,11311.111111111111
-0.095,0.075,11313.888888888889
-0.105,0.07,11316.666666666666
-0.125,0.055,11319.444444444445
-0.13,0.075,11322.222222222223
-0.135,0.08,11325.0
-0.125,0.095,11327.777777777777
-0.125,0.095,11330.555555555555
-0.135,0.085,11333.333333333334
-0.15,0.075,11336.111111111111
-0.16,0.06,11338.888888888889
-0.15,0.075,11341.666666666666
-0.13,0.09,11344.444444444445
-0.125,0.08,11347.222222222223
-0.13,0.07,11350.0
-0.14,0.06,11352.777777777777
-0.125,0.07,11355.555555555555
-0.12,0.09,11358.333333333334
-0.125,0.11,11361.111111111111
-0.125,0.105,11363.888888888889
-0.14,0.095,11366.666666666666
-0.135,0.085,11369.444444444445
-0.15,0.1,11372.222222222223
-0.14,0.12,11375.0
-0.11,0.12,11377.777777777777
-0.13,0.115,11380.555555555555
-0.15,0.095,11383.333333333334
-0.155,0.08,11386.111111111111
-0.15,0.095,11388.888888888889
-0.145,0.11,11391.666666666666
-0.14,0.115,11394.444444444445
-0.125,0.12,11397.222222222223
-0.14,0.085,11400.0
-0.16,0.08,11402.777777777777
-0.155,0.095,11405.555555555555
-0.15,0.1,11408.333333333334
-0.12,0.11,11411.111111111111
-0.125,0.095,11413.888888888889
-0.135,0.07,11416.666666666666
-0.15,0.06,11419.444444444445
-0.14,0.055,11422.222222222223
-0.145,0.07,11425.0
-0.13,0.075,11427.777777777777
-0.115,0.065,11430.555555555555
-0.12,0.045,11433.333333333334
-0.14,0.025,11436.111111111111
-0.145,0.03,11438.888888888889
-0.14,0.04,11441.666666666666
-0.12,0.04,11444.444444444445
-0.13,0.035,11447.222222222223
-0.12,0.015,11450.0
-0.135,0.0,11452.777777777777
-0.135,0.0,11455.555555555555
-0.13,0.015,11458.333333333334
-0.115,0.02,11461.111111111111
-0.125,0.015,11463.888888888889
-0.135,0.015,11466.666666666666
-0.155,0.005,11469.444444444445
-0.14,0.01,11472.222222222223
-0.125,0.03,11475.0
-0.105,0.03,11477.777777777777
-0.105,0.01,11480.555555555555
-0.105,-0.005,11483.333333333334
-0.105,-0.01,11486.111111111111
-0.105,-0.01,11488.888888888889
-0.065,-0.005,11491.666666666666
-0.03,-0.005,11494.444444444445
-0.005,-0.02,11497.222222222223
0.025,-0.03,11500.0
0.11,-0.03,11502.777777777777
0.285,-0.015,11505.555555555555
0.67,-0.01,11508.333333333334
1.13,-0.005,11511.111111111111
1.475,-0.04,11513.888888888889
1.505,-0.09,11516.666666666666
1.295,-0.175,11519.444444444445
1.08,-0.295,11522.222222222223
0.96,-0.535,11525.0
0.925,-0.84,11527.777777777777
0.855,-1.14,11530.555555555555
