MLII,V1,time_ms
-0.695,-0.955,0.0
-0.695,-0.955,2.7777777777777777
-0.695,-0.955,5.555555555555555
-0.695,-0.955,8.333333333333334
-0.695,-0.955,11.11111111111111
-0.695,-0.955,13.88888888888889
-0.695,-0.955,16.666666666666668
-0.695,-0.925,19.444444444444443
-0.695,-0.905,22.22222222222222
-0.695,-0.86,25.0
-0.7,-0.83,27.77777777777778
-0.71,-0.81,30.555555555555557
-0.7,-0.795,33.333333333333336
-0.7,-0.78,36.111111111111114
-0.685,-0.78,38.888888888888886
-0.68,-0.765,41.666666666666664
-0.67,-0.77,44.44444444444444
-0.67,-0.75,47.22222222222222
-0.665,-0.765,50.0
-0.665,-0.78,52.77777777777778
-0.67,-0.76,55.55555555555556
-0.675,-0.765,58.333333333333336
-0.68,-0.76,61.111111111111114
-0.695,-0.745,63.888888888888886
-0.695,-0.74,66.66666666666667
-0.695,-0.74,69.44444444444444
-0.69,-0.73,72.22222222222223
-0.695,-0.735,75.0
-0.705,-0.75,77.77777777777777
-0.705,-0.75,80.55555555555556
-0.73,-0.76,83.33333333333333
-0.745,-0.765,86.11111111111111
-0.75,-0.765,88.88888888888889
-0.77,-0.79,91.66666666666667
-0.765,-0.77,94.44444444444444
-0.79,-0.775,97.22222222222223
-0.77,-0.755,100.0
-0.78,-0.765,102.77777777777777
-0.785,-0.77,105.55555555555556
-0.79,-0.78,108.33333333333333
-0.8,-0.785,111.11111111111111
-0.815,-0.795,113.88888888888889
-0.84,-0.805,116.66666666666667
-0.86,-0.81,119.44444444444444
-0.875,-0.825,122.22222222222223
-0.895,-0.825,125.0
-0.905,-0.825,127.77777777777777
-0.885,-0.82,130.55555555555554
-0.885,-0.81,133.33333333333334
-0.87,-0.795,136.11111111111111
-0.86,-0.79,138.88888888888889
-0.855,-0.795,141.66666666666666
-0.865,-0.81,144.44444444444446
-0.875,-0.815,147.22222222222223
-0.89,-0.83,150.0
-0.91,-0.84,152.77777777777777
-0.925,-0.855,155.55555555555554
-0.94,-0.86,158.33333333333334
-0.94,-0.85,161.11111111111111
-0.95,-0.855,163.88888888888889
-0.955,-0.85,166.66666666666666
-0.965,-0.85,169.44444444444446
-0.98,-0.835,172.22222222222223
-0.975,-0.845,175.0
-0.985,-0.86,177.77777777777777
-1.005,-0.86,180.55555555555554
-1.025,-0.89,183.33333333333334
-1.04,-0.9,186.11111111111111
-1.045,-0.915,188.88888888888889
-1.065,-0.94,191.66666666666666
-1.08,-0.935,194.44444444444446
-1.1,-0.95,197.22222222222223
-1.105,-0.94,200.0
-1.12,-0.96,202.77777777777777
-1.115,-0.97,205.55555555555554
-1.115,-0.975,208.33333333333334
-1.135,-1.005,211.11111111111111
-1.145,-1.015,213.88888888888889
-1.165,-1.025,216.66666666666666
-1.165,-1.045,219.44444444444446
-1.17,-1.065,222.22222222222223
-1.175,-1.08,225.0
-1.14,-1.075,227.77777777777777
-1.125,-1.07,230.55555555555554
-1.09,-1.075,233.33333333333334
-1.075,-1.06,236.11111111111111
-1.04,-1.06,238.88888888888889
-1.01,-1.055,241.66666666666666
-1.0,-1.045,244.44444444444446
-0.96,-1.035,247.22222222222223
-0.935,-1.025,250.0
-0.92,-1.015,252.77777777777777
-0.895,-1.005,255.55555555555554
-0.865,-1.0,258.3333333333333
-0.84,-0.975,261.1111111111111
-0.83,-0.965,263.8888888888889
-0.8,-0.945,266.6666666666667
-0.765,-0.92,269.44444444444446
-0.735,-0.9,272.22222222222223
-0.695,-0.885,275.0
-0.68,-0.885,277.77777777777777
-0.66,-0.86,280.55555555555554
-0.65,-0.87,283.3333333333333
-0.655,-0.87,286.1111111111111
-0.625,-0.86,288.8888888888889
-0.62,-0.865,291.6666666666667
-0.615,-0.85,294.44444444444446
-0.62,-0.84,297.22222222222223
-0.61,-0.835,300.0
-0.605,-0.83,302.77777777777777
-0.595,-0.83,305.55555555555554
-0.595,-0.825,308.3333333333333
-0.59,-0.83,311.1111111111111
-0.59,-0.84,313.8888888888889
-0.615,-0.84,316.6666666666667
-0.62,-0.86,319.44444444444446
-0.625,-0.86,322.22222222222223
-0.625,-0.85,325.0
-0.615,-0.855,327.77777777777777
-0.625,-0.86,330.55555555555554
-0.62,-0.84,333.3333333333333
-0.61,-0.835,336.1111111111111
-0.615,-0.83,338.8888888888889
-0.595,-0.82,341.6666666666667
-0.6,-0.835,344.44444444444446
-0.6,-0.825,347.22222222222223
-0.61,-0.84,350.0
-0.6,-0.84,352.77777777777777
-0.605,-0.84,355.55555555555554
-0.6,-0.845,358.3333333333333
-0.605,-0.825,361.1111111111111
-0.585,-0.83,363.8888888888889
-0.575,-0.82,366.6666666666667
-0.56,-0.795,369.44444444444446
-0.56,-0.785,372.22222222222223
-0.545,-0.78,375.0
-0.555,-0.785,377.77777777777777
-0.565,-0.775,380.55555555555554
-0.57,-0.78,383.3333333333333
-0.565,-0.795,386.1111111111111
-0.555,-0.805,388.8888888888889
-0.56,-0.795,391.6666666666667
-0.555,-0.79,394.44444444444446
-0.545,-0.795,397.22222222222223
-0.55,-0.78,400.0
-0.545,-0.77,402.77777777777777
-0.54,-0.76,405.55555555555554
-0.525,-0.755,408.3333333333333
-0.53,-0.765,411.1111111111111
-0.52,-0.765,413.8888888888889
-0.505,-0.77,416.6666666666667
-0.52,-0.78,419.44444444444446
-0.535,-0.785,422.22222222222223
-0.535,-0.775,425.0
-0.525,-0.765,427.77777777777777
-0.52,-0.76,430.55555555555554
-0.505,-0.74,433.3333333333333
-0.49,-0.73,436.1111111111111
-0.48,-0.72,438.8888888888889
-0.47,-0.72,441.6666666666667
-0.47,-0.725,444.44444444444446
-0.475,-0.725,447.22222222222223
-0.485,-0.745,450.0
-0.495,-0.755,452.77777777777777
-0.505,-0.775,455.55555555555554
-0.51,-0.77,458.3333333333333
-0.51,-0.77,461.1111111111111
-0.515,-0.76,463.8888888888889
-0.52,-0.76,466.6666666666667
-0.515,-0.76,469.44444444444446
-0.515,-0.755,472.22222222222223
-0.52,-0.755,475.0
-0.53,-0.775,477.77777777777777
-0.53,-0.765,480.55555555555554
-0.54,-0.79,483.3333333333333
-0.545,-0.8,486.1111111111111
-0.55,-0.8,488.8888888888889
-0.565,-0.81,491.6666666666667
-0.565,-0.795,494.44444444444446
-0.575,-0.795,497.22222222222223
-0.57,-0.795,500.0
-0.56,-0.785,502.77777777777777
-0.565,-0.785,505.55555555555554
-0.55,-0.78,508.3333333333333
-0.555,-0.805,511.1111111111111
-0.56,-0.795,513.8888888888889
-0.575,-0.81,516.6666666666666
-0.59,-0.81,519.4444444444445
-0.585,-0.83,522.2222222222222
-0.595,-0.825,525.0
-0.615,-0.815,527.7777777777778
-0.615,-0.815,530.5555555555555
-0.605,-0.81,533.3333333333334
-0.595,-0.795,536.1111111111111
-0.585,-0.785,538.8888888888889
-0.57,-0.795,541.6666666666666
-0.575,-0.805,544.4444444444445
-0.57,-0.8,547.2222222222222
-0.585,-0.815,550.0
-0.59,-0.835,552.7777777777778
-0.595,-0.835,555.5555555555555
-0.595,-0.84,558.3333333333334
-0.585,-0.83,561.1111111111111
-0.575,-0.83,563.8888888888889
-0.56,-0.83,566.6666666666666
-0.56,-0.835,569.4444444444445
-0.565,-0.825,572.2222222222222
-0.555,-0.84,575.0
-0.555,-0.835,577.7777777777778
-0.56,-0.84,580.5555555555555
-0.575,-0.85,583.3333333333334
-0.585,-0.855,586.1111111111111
-0.585,-0.865,588.8888888888889
-0.6,-0.86,591.6666666666666
-0.605,-0.855,594.4444444444445
-0.59,-0.86,597.2222222222222
-0.59,-0.85,600.0
-0.585,-0.85,602.7777777777778
-0.56,-0.84,605.5555555555555
-0.56,-0.845,608.3333333333334
-0.545,-0.84,611.1111111111111
-0.545,-0.86,613.8888888888889
-0.535,-0.86,616.6666666666666
-0.53,-0.855,619.4444444444445
-0.545,-0.87,622.2222222222222
-0.55,-0.875,625.0
-0.555,-0.88,627.7777777777778
-0.555,-0.87,630.5555555555555
-0.55,-0.865,633.3333333333334
-0.555,-0.855,636.1111111111111
-0.565,-0.85,638.8888888888889
-0.55,-0.85,641.6666666666666
-0.56,-0.855,644.4444444444445
-0.56,-0.87,647.2222222222222
-0.57,-0.86,650.0
-0.575,-0.865,652.7777777777778
-0.575,-0.875,655.5555555555555
-0.585,-0.88,658.3333333333334
-0.58,-0.87,661.1111111111111
-0.6,-0.875,663.8888888888889
-0.59,-0.87,666.6666666666666
-0.595,-0.865,669.4444444444445
-0.58,-0.86,672.2222222222222
-0.585,-0.85,675.0
-0.585,-0.86,677.7777777777778
-0.585,-0.875,680.5555555555555
-0.59,-0.875,683.3333333333334
-0.595,-0.88,686.1111111111111
-0.615,-0.89,688.8888888888889
-0.605,-0.88,691.6666666666666
-0.59,-0.875,694.4444444444445
-0.595,-0.865,697.2222222222222
-0.59,-0.85,700.0
-0.575,-0.845,702.7777777777778
-0.57,-0.85,705.5555555555555
-0.56,-0.84,708.3333333333334
-0.56,-0.84,711.1111111111111
-0.56,-0.845,713.8888888888889
-0.56,-0.845,716.6666666666666
-0.565,-0.85,719.4444444444445
-0.56,-0.85,722.2222222222222
-0.555,-0.845,725.0
-0.555,-0.845,727.7777777777778
-0.54,-0.835,730.5555555555555
-0.54,-0.815,733.3333333333334
-0.52,-0.81,736.1111111111111
-0.51,-0.805,738.8888888888889
-0.51,-0.805,741.6666666666666
-0.505,-0.81,744.4444444444445
-0.51,-0.81,747.2222222222222
-0.505,-0.815,750.0
-0.505,-0.815,752.7777777777778
-0.505,-0.825,755.5555555555555
-0.505,-0.82,758.3333333333334
-0.52,-0.815,761.1111111111111
-0.525,-0.805,763.8888888888889
-0.52,-0.8,766.6666666666666
-0.525,-0.775,769.4444444444445
-0.535,-0.765,772.2222222222222
-0.525,-0.75,775.0
-0.54,-0.77,777.7777777777778
-0.54,-0.76,780.5555555555555
-0.56,-0.765,783.3333333333334
-0.585,-0.77,786.1111111111111
-0.6,-0.77,788.8888888888889
-0.625,-0.785,791.6666666666666
-0.64,-0.78,794.4444444444445
-0.645,-0.77,797.2222222222222
-0.63,-0.77,800.0
-0.575,-0.735,802.7777777777778
-0.45,-0.695,805.5555555555555
-0.275,-0.615,808.3333333333334
-0.075,-0.54,811.1111111111111
0.16,-0.45,813.8888888888889
0.41,-0.365,816.6666666666666
0.69,-0.295,819.4444444444445
0.965,-0.23,822.2222222222222
1.215,-0.15,825.0
1.435,-0.06,827.7777777777778
1.61,0.025,830.5555555555555
1.69,0.145,833.3333333333334
1.695,0.255,836.1111111111111
1.66,0.365,838.8888888888889
1.54,0.375,841.6666666666666
1.305,0.22,844.4444444444445
0.9,-0.125,847.2222222222222
0.37,-0.59,850.0
-0.175,-1.105,852.7777777777778
-0.585,-1.575,855.5555555555555
-0.8,-1.87,858.3333333333334
-0.86,-1.925,861.1111111111111
-0.82,-1.795,863.8888888888889
-0.745,-1.58,866.6666666666666
-0.675,-1.35,869.4444444444445
-0.63,-1.185,872.2222222222222
-0.62,-1.095,875.0
-0.64,-1.05,877.7777777777778
-0.68,-1.03,880.5555555555555
-0.71,-1.01,883.3333333333334
-0.73,-1.01,886.1111111111111
-0.74,-0.98,888.8888888888889
-0.73,-0.96,891.6666666666666
-0.73,-0.93,894.4444444444445
-0.725,-0.9,897.2222222222222
-0.715,-0.88,900.0
-0.71,-0.875,902.7777777777778
-0.72,-0.865,905.5555555555555
-0.705,-0.86,908.3333333333334
-0.71,-0.865,911.1111111111111
-0.705,-0.855,913.8888888888889
-0.72,-0.87,916.6666666666666
-0.72,-0.87,919.4444444444445
-0.745,-0.86,922.2222222222222
-0.74,-0.87,925.0
-0.755,-0.87,927.7777777777778
-0.76,-0.85,930.5555555555555
-0.75,-0.855,933.3333333333334
-0.76,-0.835,936.1111111111111
-0.765,-0.835,938.8888888888889
-0.76,-0.83,941.6666666666666
-0.775,-0.855,944.4444444444445
-0.78,-0.855,947.2222222222222
-0.805,-0.87,950.0
-0.805,-0.88,952.7777777777778
-0.815,-0.89,955.5555555555555
-0.82,-0.885,958.3333333333334
-0.81,-0.87,961.1111111111111
-0.82,-0.875,963.8888888888889
-0.825,-0.85,966.6666666666666
-0.81,-0.86,969.4444444444445
-0.81,-0.84,972.2222222222222
-0.8,-0.825,975.0
-0.785,-0.815,977.7777777777778
-0.79,-0.805,980.5555555555555
-0.795,-0.805,983.3333333333334
-0.8,-0.81,986.1111111111111
-0.81,-0.81,988.8888888888889
-0.82,-0.835,991.6666666666666
-0.83,-0.815,994.4444444444445
-0.84,-0.815,997.2222222222222
-0.84,-0.81,1000.0
-0.85,-0.8,1002.7777777777778
-0.85,-0.79,1005.5555555555555
-0.855,-0.795,1008.3333333333334
-0.865,-0.815,1011.1111111111111
-0.875,-0.82,1013.8888888888889
-0.88,-0.84,1016.6666666666666
-0.89,-0.835,1019.4444444444445
-0.89,-0.86,1022.2222222222222
-0.905,-0.855,1025.0
-0.91,-0.855,1027.7777777777778
-0.915,-0.855,1030.5555555555557
-0.91,-0.855,1033.3333333333333
-0.92,-0.86,1036.111111111111
-0.915,-0.855,1038.888888888889
-0.925,-0.845,1041.6666666666667
-0.94,-0.875,1044.4444444444443
-0.95,-0.875,1047.2222222222222
-0.975,-0.89,1050.0
-0.995,-0.9,1052.7777777777778
-1.02,-0.92,1055.5555555555557
-1.02,-0.93,1058.3333333333333
-1.035,-0.935,1061.111111111111
-1.03,-0.94,1063.888888888889
-1.04,-0.935,1066.6666666666667
-1.055,-0.94,1069.4444444444443
-1.065,-0.94,1072.2222222222222
-1.06,-0.96,1075.0
-1.085,-0.995,1077.7777777777778
-1.1,-1.005,1080.5555555555557
-1.1,-1.02,1083.3333333333333
-1.12,-1.04,1086.111111111111
-1.15,-1.07,1088.888888888889
-1.17,-1.075,1091.6666666666667
-1.175,-1.095,1094.4444444444443
-1.18,-1.11,1097.2222222222222
-1.195,-1.1,1100.0
-1.19,-1.11,1102.7777777777778
-1.195,-1.12,1105.5555555555557
-1.19,-1.12,1108.3333333333333
-1.195,-1.155,1111.111111111111
-1.2,-1.165,1113.888888888889
-1.205,-1.18,1116.6666666666667
-1.205,-1.195,1119.4444444444443
-1.205,-1.205,1122.2222222222222
-1.2,-1.21,1125.0
-1.165,-1.195,1127.7777777777778
-1.135,-1.19,1130.5555555555557
-1.085,-1.175,1133.3333333333333
-1.065,-1.165,1136.111111111111
-1.015,-1.135,1138.888888888889
-0.96,-1.115,1141.6666666666667
-0.93,-1.095,1144.4444444444443
-0.9,-1.095,1147.2222222222222
-0.865,-1.07,1150.0
-0.845,-1.06,1152.7777777777778
-0.815,-1.05,1155.5555555555557
-0.795,-1.03,1158.3333333333333
-0.775,-0.985,1161.111111111111
-0.74,-0.955,1163.888888888889
-0.71,-0.93,1166.6666666666667
-0.695,-0.9,1169.4444444444443
-0.68,-0.88,1172.2222222222222
-0.67,-0.85,1175.0
-0.665,-0.845,1177.7777777777778
-0.66,-0.83,1180.5555555555557
-0.675,-0.82,1183.3333333333333
-0.685,-0.825,1186.111111111111
-0.69,-0.83,1188.888888888889
-0.68,-0.835,1191.6666666666667
-0.675,-0.825,1194.4444444444443
-0.68,-0.815,1197.2222222222222
-0.66,-0.805,1200.0
-0.66,-0.805,1202.7777777777778
-0.64,-0.785,1205.5555555555557
-0.635,-0.785,1208.3333333333333
-0.625,-0.795,1211.111111111111
-0.625,-0.795,1213.888888888889
-0.62,-0.79,1216.6666666666667
-0.63,-0.805,1219.4444444444443
-0.625,-0.805,1222.2222222222222
-0.635,-0.815,1225.0
-0.64,-0.8,1227.7777777777778
-0.63,-0.8,1230.5555555555557
-0.625,-0.79,1233.3333333333333
-0.61,-0.78,1236.111111111111
-0.6,-0.77,1238.888888888889
-0.575,-0.765,1241.6666666666667
-0.58,-0.78,1244.4444444444443
-0.575,-0.775,1247.2222222222222
-0.565,-0.775,1250.0
-0.565,-0.78,1252.7777777777778
-0.575,-0.79,1255.5555555555557
-0.575,-0.79,1258.3333333333333
-0.575,-0.77,1261.111111111111
-0.575,-0.77,1263.888888888889
-0.59,-0.76,1266.6666666666667
-0.59,-0.755,1269.4444444444443
-0.605,-0.75,1272.2222222222222
-0.595,-0.745,1275.0
-0.595,-0.755,1277.7777777777778
-0.6,-0.765,1280.5555555555557
-0.61,-0.78,1283.3333333333333
-0.61,-0.785,1286.111111111111
-0.61,-0.795,1288.888888888889
-0.6,-0.79,1291.6666666666667
-0.595,-0.795,1294.4444444444443
-0.6,-0.785,1297.2222222222222
-0.59,-0.78,1300.0
-0.58,-0.765,1302.7777777777778
-0.565,-0.75,1305.5555555555557
-0.555,-0.735,1308.3333333333333
-0.545,-0.75,1311.111111111111
-0.545,-0.735,1313.888888888889
-0.55,-0.75,1316.6666666666667
-0.555,-0.755,1319.4444444444443
-0.54,-0.755,1322.2222222222222
-0.55,-0.75,1325.0
-0.545,-0.725,1327.7777777777778
-0.545,-0.735,1330.5555555555557
-0.53,-0.725,1333.3333333333333
-0.53,-0.71,1336.111111111111
-0.535,-0.7,1338.888888888889
-0.525,-0.695,1341.6666666666667
-0.525,-0.7,1344.4444444444443
-0.535,-0.7,1347.2222222222222
-0.55,-0.705,1350.0
-0.555,-0.71,1352.7777777777778
-0.575,-0.72,1355.5555555555557
-0.57,-0.72,1358.3333333333333
-0.57,-0.71,1361.111111111111
-0.575,-0.715,1363.888888888889
-0.56,-0.68,1366.6666666666667
-0.545,-0.685,1369.4444444444443
-0.54,-0.67,1372.2222222222222
-0.53,-0.67,1375.0
-0.525,-0.675,1377.7777777777778
-0.53,-0.665,1380.5555555555557
-0.53,-0.68,1383.3333333333333
-0.535,-0.695,1386.111111111111
-0.55,-0.7,1388.888888888889
-0.56,-0.69,1391.6666666666667
-0.56,-0.685,1394.4444444444443
-0.57,-0.685,1397.2222222222222
-0.56,-0.685,1400.0
-0.56,-0.68,1402.7777777777778
-0.555,-0.68,1405.5555555555557
-0.545,-0.675,1408.3333333333333
-0.545,-0.685,1411.111111111111
-0.545,-0.695,1413.888888888889
-0.545,-0.7,1416.6666666666667
-0.55,-0.71,1419.4444444444443
-0.56,-0.7,1422.2222222222222
-0.575,-0.715,1425.0
-0.58,-0.715,1427.7777777777778
-0.585,-0.72,1430.5555555555557
-0.6,-0.725,1433.3333333333333
-0.61,-0.71,1436.111111111111
-0.62,-0.715,1438.888888888889
-0.61,-0.715,1441.6666666666667
-0.63,-0.725,1444.4444444444443
-0.615,-0.725,1447.2222222222222
-0.615,-0.75,1450.0
-0.62,-0.755,1452.7777777777778
-0.62,-0.76,1455.5555555555557
-0.625,-0.78,1458.3333333333333
-0.63,-0.77,1461.111111111111
-0.61,-0.765,1463.888888888889
-0.605,-0.75,1466.6666666666667
-0.6,-0.745,1469.4444444444443
-0.59,-0.745,1472.2222222222222
-0.58,-0.74,1475.0
-0.565,-0.745,1477.7777777777778
-0.58,-0.75,1480.5555555555557
-0.575,-0.75,1483.3333333333333
-0.58,-0.745,1486.111111111111
-0.585,-0.75,1488.888888888889
-0.595,-0.745,1491.6666666666667
-0.6,-0.735,1494.4444444444443
-0.59,-0.735,1497.2222222222222
-0.585,-0.735,1500.0
-0.585,-0.74,1502.7777777777778
-0.58,-0.73,1505.5555555555557
-0.575,-0.73,1508.3333333333333
-0.57,-0.745,1511.111111111111
-0.565,-0.74,1513.888888888889
-0.57,-0.755,1516.6666666666667
-0.59,-0.76,1519.4444444444443
-0.595,-0.765,1522.2222222222222
-0.605,-0.77,1525.0
-0.595,-0.76,1527.7777777777778
-0.605,-0.755,1530.5555555555557
-0.59,-0.76,1533.3333333333333
-0.585,-0.75,1536.111111111111
-0.585,-0.73,1538.888888888889
-0.57,-0.735,1541.6666666666667
-0.565,-0.745,1544.4444444444443
-0.565,-0.74,1547.2222222222222
-0.565,-0.76,1550.0
-0.57,-0.78,1552.7777777777778
-0.575,-0.77,1555.5555555555557
-0.6,-0.765,1558.3333333333333
-0.61,-0.755,1561.111111111111
-0.595,-0.75,1563.888888888889
-0.59,-0.735,1566.6666666666667
-0.575,-0.73,1569.4444444444443
-0.57,-0.715,1572.2222222222222
-0.555,-0.705,1575.0
-0.555,-0.715,1577.7777777777778
-0.55,-0.715,1580.5555555555557
-0.545,-0.72,1583.3333333333333
-0.55,-0.715,1586.111111111111
-0.56,-0.725,1588.888888888889
-0.555,-0.73,1591.6666666666667
-0.55,-0.72,1594.4444444444443
-0.55,-0.715,1597.2222222222222
-0.545,-0.705,1600.0
-0.55,-0.7,1602.7777777777778
-0.535,-0.7,1605.5555555555557
-0.53,-0.69,1608.3333333333333
-0.55,-0.695,1611.111111111111
-0.56,-0.7,1613.888888888889
-0.56,-0.705,1616.6666666666667
-0.575,-0.705,1619.4444444444443
-0.575,-0.72,1622.2222222222222
-0.58,-0.73,1625.0
-0.585,-0.715,1627.7777777777778
-0.575,-0.715,1630.5555555555557
-0.575,-0.705,1633.3333333333333
-0.575,-0.7,1636.111111111111
-0.57,-0.68,1638.888888888889
-0.56,-0.685,1641.6666666666667
-0.56,-0.68,1644.4444444444443
-0.565,-0.68,1647.2222222222222
-0.575,-0.685,1650.0
-0.565,-0.705,1652.7777777777778
-0.575,-0.705,1655.5555555555557
-0.575,-0.7,1658.3333333333333
-0.58,-0.68,1661.111111111111
-0.595,-0.68,1663.888888888889
-0.61,-0.67,1666.6666666666667
-0.64,-0.66,1669.4444444444443
-0.62,-0.66,1672.2222222222222
-0.555,-0.635,1675.0
-0.455,-0.605,1677.7777777777778
-0.29,-0.535,1680.5555555555557
-0.085,-0.45,1683.3333333333333
0.135,-0.36,1686.111111111111
0.4,-0.275,1688.888888888889
0.705,-0.185,1691.6666666666667
1.005,-0.09,1694.4444444444443
1.285,-0.015,1697.2222222222222
1.525,0.065,1700.0
1.665,0.155,1702.7777777777778
1.735,0.265,1705.5555555555557
1.73,0.36,1708.3333333333333
1.65,0.43,1711.111111111111
1.49,0.395,1713.888888888889
1.21,0.21,1716.6666666666667
0.795,-0.13,1719.4444444444443
0.27,-0.58,1722.2222222222222
-0.225,-1.045,1725.0
-0.595,-1.465,1727.7777777777778
-0.775,-1.71,1730.5555555555557
-0.81,-1.78,1733.3333333333333
-0.77,-1.66,1736.111111111111
-0.675,-1.46,1738.888888888889
-0.62,-1.245,1741.6666666666667
-0.575,-1.095,1744.4444444444443
-0.585,-1.005,1747.2222222222222
-0.605,-0.96,1750.0
-0.62,-0.935,1752.7777777777778
-0.64,-0.91,1755.5555555555557
-0.655,-0.87,1758.3333333333333
-0.66,-0.85,1761.111111111111
-0.64,-0.81,1763.888888888889
-0.635,-0.78,1766.6666666666667
-0.635,-0.75,1769.4444444444443
-0.635,-0.715,1772.2222222222222
-0.645,-0.705,1775.0
-0.655,-0.7,1777.7777777777778
-0.67,-0.685,1780.5555555555557
-0.685,-0.705,1783.3333333333333
-0.71,-0.705,1786.111111111111
-0.715,-0.71,1788.888888888889
-0.725,-0.705,1791.6666666666667
-0.72,-0.7,1794.4444444444443
-0.725,-0.695,1797.2222222222222
-0.715,-0.68,1800.0
-0.72,-0.67,1802.7777777777778
-0.715,-0.665,1805.5555555555557
-0.72,-0.665,1808.3333333333333
-0.715,-0.665,1811.111111111111
-0.73,-0.67,1813.888888888889
-0.74,-0.675,1816.6666666666667
-0.755,-0.68,1819.4444444444443
-0.765,-0.69,1822.2222222222222
-0.785,-0.685,1825.0
-0.8,-0.67,1827.7777777777778
-0.79,-0.675,1830.5555555555557
-0.785,-0.67,1833.3333333333333
-0.795,-0.655,1836.111111111111
-0.78,-0.645,1838.888888888889
-0.775,-0.65,1841.6666666666667
-0.775,-0.65,1844.4444444444443
-0.79,-0.655,1847.2222222222222
-0.8,-0.665,1850.0
-0.8,-0.675,1852.7777777777778
-0.8,-0.69,1855.5555555555557
-0.835,-0.69,1858.3333333333333
-0.83,-0.675,1861.111111111111
-0.84,-0.685,1863.888888888889
-0.855,-0.66,1866.6666666666667
-0.85,-0.675,1869.4444444444443
-0.85,-0.66,1872.2222222222222
-0.86,-0.655,1875.0
-0.87,-0.675,1877.7777777777778
-0.89,-0.67,1880.5555555555557
-0.89,-0.69,1883.3333333333333
-0.9,-0.685,1886.111111111111
-0.9,-0.705,1888.888888888889
-0.915,-0.705,1891.6666666666667
-0.915,-0.705,1894.4444444444443
-0.925,-0.71,1897.2222222222222
-0.925,-0.7,1900.0
-0.92,-0.7,1902.7777777777778
-0.925,-0.69,1905.5555555555557
-0.92,-0.695,1908.3333333333333
-0.93,-0.7,1911.111111111111
-0.945,-0.71,1913.888888888889
-0.96,-0.715,1916.6666666666667
-0.975,-0.725,1919.4444444444443
-0.98,-0.735,1922.2222222222222
-0.995,-0.745,1925.0
-1.0,-0.75,1927.7777777777778
-1.01,-0.75,1930.5555555555557
-1.01,-0.755,1933.3333333333333
-1.03,-0.765,1936.111111111111
-1.04,-0.77,1938.888888888889
-1.06,-0.78,1941.6666666666667
-1.09,-0.81,1944.4444444444443
-1.11,-0.84,1947.2222222222222
-1.125,-0.845,1950.0
-1.125,-0.88,1952.7777777777778
-1.14,-0.905,1955.5555555555557
-1.15,-0.93,1958.3333333333333
-1.17,-0.925,1961.111111111111
-1.16,-0.94,1963.888888888889
-1.175,-0.94,1966.6666666666667
-1.17,-0.935,1969.4444444444443
-1.18,-0.945,1972.2222222222222
-1.17,-0.935,1975.0
-1.155,-0.955,1977.7777777777778
-1.145,-0.955,1980.5555555555557
-1.14,-0.955,1983.3333333333333
-1.13,-0.96,1986.111111111111
-1.1,-0.955,1988.888888888889
-1.08,-0.955,1991.6666666666667
-1.045,-0.935,1994.4444444444443
-1.02,-0.925,1997.2222222222222
-0.97,-0.9,2000.0
-0.94,-0.88,2002.7777777777778
-0.895,-0.845,2005.5555555555557
-0.865,-0.835,2008.3333333333333
-0.835,-0.82,2011.111111111111
-0.815,-0.795,2013.888888888889
-0.795,-0.8,2016.6666666666667
-0.795,-0.795,2019.4444444444443
-0.78,-0.79,2022.2222222222222
-0.775,-0.775,2025.0
-0.75,-0.755,2027.7777777777778
-0.745,-0.75,2030.5555555555557
-0.725,-0.725,2033.3333333333333
-0.72,-0.71,2036.111111111111
-0.68,-0.695,2038.888888888889
-0.655,-0.695,2041.6666666666667
-0.65,-0.695,2044.4444444444443
-0.65,-0.68,2047.2222222222222
-0.655,-0.685,2050.0
-0.665,-0.685,2052.777777777778
-0.66,-0.695,2055.5555555555557
-0.665,-0.7,2058.3333333333335
-0.665,-0.69,2061.1111111111113
-0.65,-0.69,2063.8888888888887
-0.65,-0.685,2066.6666666666665
-0.625,-0.665,2069.4444444444443
-0.61,-0.66,2072.222222222222
-0.61,-0.66,2075.0
-0.6,-0.67,2077.777777777778
-0.6,-0.665,2080.5555555555557
-0.595,-0.675,2083.3333333333335
-0.61,-0.685,2086.1111111111113
-0.6,-0.685,2088.8888888888887
-0.6,-0.67,2091.6666666666665
-0.595,-0.665,2094.4444444444443
-0.59,-0.675,2097.222222222222
-0.585,-0.665,2100.0
-0.585,-0.655,2102.777777777778
-0.57,-0.65,2105.5555555555557
-0.555,-0.635,2108.3333333333335
-0.545,-0.65,2111.1111111111113
-0.535,-0.655,2113.8888888888887
-0.53,-0.645,2116.6666666666665
-0.535,-0.64,2119.4444444444443
-0.53,-0.64,2122.222222222222
-0.535,-0.63,2125.0
-0.53,-0.61,2127.777777777778
-0.535,-0.59,2130.5555555555557
-0.515,-0.58,2133.3333333333335
-0.515,-0.58,2136.1111111111113
-0.505,-0.56,2138.8888888888887
-0.5,-0.56,2141.6666666666665
-0.5,-0.56,2144.4444444444443
-0.505,-0.56,2147.222222222222
-0.51,-0.555,2150.0
-0.52,-0.56,2152.777777777778
-0.54,-0.58,2155.5555555555557
-0.54,-0.575,2158.3333333333335
-0.545,-0.56,2161.1111111111113
-0.55,-0.555,2163.8888888888887
-0.55,-0.545,2166.6666666666665
-0.55,-0.55,2169.4444444444443
-0.55,-0.535,2172.222222222222
-0.535,-0.54,2175.0
-0.54,-0.545,2177.777777777778
-0.55,-0.545,2180.5555555555557
-0.555,-0.56,2183.3333333333335
-0.565,-0.56,2186.1111111111113
-0.59,-0.57,2188.8888888888887
-0.6,-0.58,2191.6666666666665
-0.595,-0.575,2194.4444444444443
-0.595,-0.57,2197.222222222222
-0.6,-0.57,2200.0
-0.6,-0.555,2202.777777777778
-0.6,-0.55,2205.5555555555557
-0.585,-0.54,2208.3333333333335
-0.59,-0.555,2211.1111111111113
-0.595,-0.55,2213.8888888888887
-0.615,-0.57,2216.6666666666665
-0.62,-0.585,2219.4444444444443
-0.64,-0.585,2222.222222222222
-0.645,-0.6,2225.0
-0.655,-0.6,2227.777777777778
-0.66,-0.605,2230.5555555555557
-0.65,-0.595,2233.3333333333335
-0.64,-0.605,2236.1111111111113
-0.625,-0.605,2238.8888888888887
-0.615,-0.605,2241.6666666666665
-0.595,-0.615,2244.4444444444443
-0.585,-0.62,2247.222222222222
-0.59,-0.63,2250.0
-0.58,-0.635,2252.777777777778
-0.59,-0.635,2255.5555555555557
-0.575,-0.645,2258.3333333333335
-0.575,-0.64,2261.1111111111113
-0.57,-0.63,2263.8888888888887
-0.565,-0.625,2266.6666666666665
-0.57,-0.62,2269.4444444444443
-0.565,-0.615,2272.222222222222
-0.555,-0.6,2275.0
-0.55,-0.62,2277.777777777778
-0.555,-0.62,2280.5555555555557
-0.55,-0.625,2283.3333333333335
-0.555,-0.64,2286.1111111111113
-0.57,-0.64,2288.8888888888887
-0.56,-0.635,2291.6666666666665
-0.56,-0.62,2294.4444444444443
-0.555,-0.605,2297.222222222222
-0.535,-0.605,2300.0
-0.535,-0.585,2302.777777777778
-0.52,-0.57,2305.5555555555557
-0.515,-0.56,2308.3333333333335
-0.52,-0.565,2311.1111111111113
-0.525,-0.56,2313.8888888888887
-0.535,-0.57,2316.6666666666665
-0.53,-0.57,2319.4444444444443
-0.54,-0.585,2322.222222222222
-0.55,-0.58,2325.0
-0.555,-0.585,2327.777777777778
-0.555,-0.575,2330.5555555555557
-0.545,-0.57,2333.3333333333335
-0.545,-0.545,2336.1111111111113
-0.535,-0.54,2338.8888888888887
-0.53,-0.54,2341.6666666666665
-0.53,-0.54,2344.4444444444443
-0.53,-0.545,2347.222222222222
-0.545,-0.54,2350.0
-0.55,-0.54,2352.777777777778
-0.555,-0.545,2355.5555555555557
-0.56,-0.55,2358.3333333333335
-0.575,-0.53,2361.1111111111113
-0.57,-0.54,2363.8888888888887
-0.55,-0.525,2366.6666666666665
-0.565,-0.525,2369.4444444444443
-0.565,-0.54,2372.222222222222
-0.58,-0.535,2375.0
-0.58,-0.545,2377.777777777778
-0.585,-0.535,2380.5555555555557
-0.595,-0.555,2383.3333333333335
-0.625,-0.555,2386.1111111111113
-0.635,-0.565,2388.8888888888887
-0.655,-0.575,2391.6666666666665
-0.645,-0.575,2394.4444444444443
-0.645,-0.575,2397.222222222222
-0.63,-0.57,2400.0
-0.615,-0.56,2402.777777777778
-0.595,-0.56,2405.5555555555557
-0.585,-0.555,2408.3333333333335
-0.575,-0.555,2411.1111111111113
-0.565,-0.555,2413.8888888888887
-0.56,-0.56,2416.6666666666665
-0.565,-0.57,2419.4444444444443
-0.565,-0.565,2422.222222222222
-0.59,-0.565,2425.0
-0.605,-0.57,2427.777777777778
-0.61,-0.55,2430.5555555555557
-0.57,-0.53,2433.3333333333335
-0.49,-0.49,2436.1111111111113
-0.34,-0.415,2438.8888888888887
-0.155,-0.335,2441.6666666666665
0.05,-0.245,2444.4444444444443
0.31,-0.15,2447.222222222222
0.6,-0.055,2450.0
0.89,0.025,2452.777777777778
1.15,0.1,2455.5555555555557
1.365,0.17,2458.3333333333335
1.535,0.255,2461.1111111111113
1.61,0.34,2463.8888888888887
1.625,0.455,2466.6666666666665
1.59,0.535,2469.4444444444443
1.5,0.565,2472.222222222222
1.33,0.47,2475.0
1.045,0.22,2477.777777777778
0.615,-0.15,2480.5555555555557
0.1,-0.58,2483.3333333333335
-0.345,-1.025,2486.1111111111113
-0.635,-1.37,2488.8888888888887
-0.77,-1.55,2491.6666666666665
-0.765,-1.545,2494.4444444444443
-0.705,-1.4,2497.222222222222
-0.62,-1.195,2500.0
-0.565,-1.02,2502.777777777778
-0.535,-0.865,2505.5555555555557
-0.53,-0.785,2508.3333333333335
-0.555,-0.73,2511.1111111111113
-0.58,-0.695,2513.8888888888887
-0.615,-0.685,2516.6666666666665
-0.625,-0.66,2519.4444444444443
-0.645,-0.635,2522.222222222222
-0.66,-0.595,2525.0
-0.665,-0.575,2527.777777777778
-0.67,-0.565,2530.5555555555557
-0.675,-0.545,2533.3333333333335
-0.68,-0.535,2536.1111111111113
-0.68,-0.52,2538.8888888888887
-0.695,-0.515,2541.6666666666665
-0.7,-0.515,2544.4444444444443
-0.705,-0.51,2547.222222222222
-0.735,-0.52,2550.0
-0.76,-0.51,2552.777777777778
-0.765,-0.52,2555.5555555555557
-0.785,-0.525,2558.3333333333335
-0.805,-0.505,2561.1111111111113
-0.815,-0.505,2563.8888888888887
-0.82,-0.5,2566.6666666666665
-0.805,-0.49,2569.4444444444443
-0.8,-0.485,2572.222222222222
-0.8,-0.485,2575.0
-0.8,-0.5,2577.777777777778
-0.8,-0.5,2580.5555555555557
-0.805,-0.515,2583.3333333333335
-0.81,-0.515,2586.1111111111113
-0.81,-0.525,2588.8888888888887
-0.815,-0.515,2591.6666666666665
-0.805,-0.52,2594.4444444444443
-0.785,-0.53,2597.222222222222
-0.79,-0.515,2600.0
-0.78,-0.52,2602.777777777778
-0.765,-0.52,2605.5555555555557
-0.77,-0.525,2608.3333333333335
-0.76,-0.52,2611.1111111111113
-0.745,-0.525,2613.8888888888887
-0.76,-0.53,2616.6666666666665
-0.76,-0.535,2619.4444444444443
-0.775,-0.54,2622.222222222222
-0.77,-0.54,2625.0
-0.775,-0.53,2627.777777777778
-0.78,-0.53,2630.5555555555557
-0.78,-0.52,2633.3333333333335
-0.77,-0.515,2636.1111111111113
-0.765,-0.51,2638.8888888888887
-0.755,-0.505,2641.6666666666665
-0.775,-0.52,2644.4444444444443
-0.785,-0.51,2647.222222222222
-0.795,-0.52,2650.0
-0.8,-0.525,2652.777777777778
-0.815,-0.53,2655.5555555555557
-0.835,-0.54,2658.3333333333335
-0.835,-0.54,2661.1111111111113
-0.85,-0.53,2663.8888888888887
-0.855,-0.54,2666.6666666666665
-0.86,-0.535,2669.4444444444443
-0.87,-0.525,2672.222222222222
-0.865,-0.53,2675.0
-0.88,-0.545,2677.777777777778
-0.895,-0.555,2680.5555555555557
-0.905,-0.58,2683.3333333333335
-0.92,-0.585,2686.1111111111113
-0.955,-0.59,2688.8888888888887
-0.96,-0.61,2691.6666666666665
-0.98,-0.61,2694.4444444444443
-0.99,-0.615,2697.222222222222
-1.0,-0.615,2700.0
-1.0,-0.62,2702.777777777778
-1.01,-0.635,2705.5555555555557
-1.02,-0.64,2708.3333333333335
-1.03,-0.665,2711.1111111111113
-1.035,-0.68,2713.8888888888887
-1.065,-0.695,2716.6666666666665
-1.085,-0.72,2719.4444444444443
-1.115,-0.745,2722.222222222222
-1.13,-0.76,2725.0
-1.135,-0.765,2727.777777777778
-1.145,-0.775,2730.5555555555557
-1.145,-0.785,2733.3333333333335
-1.14,-0.8,2736.1111111111113
-1.12,-0.785,2738.8888888888887
-1.105,-0.785,2741.6666666666665
-1.1,-0.78,2744.4444444444443
-1.09,-0.78,2747.222222222222
-1.065,-0.78,2750.0
-1.065,-0.775,2752.777777777778
-1.05,-0.775,2755.5555555555557
-1.0,-0.775,2758.3333333333335
-0.97,-0.75,2761.1111111111113
-0.94,-0.73,2763.8888888888887
-0.905,-0.715,2766.6666666666665
-0.88,-0.685,2769.4444444444443
-0.835,-0.66,2772.222222222222
-0.77,-0.625,2775.0
-0.75,-0.605,2777.777777777778
-0.72,-0.59,2780.5555555555557
-0.695,-0.585,2783.3333333333335
-0.685,-0.585,2786.1111111111113
-0.67,-0.575,2788.8888888888887
-0.65,-0.56,2791.6666666666665
-0.645,-0.545,2794.4444444444443
-0.615,-0.53,2797.222222222222
-0.595,-0.525,2800.0
-0.57,-0.51,2802.777777777778
-0.555,-0.5,2805.5555555555557
-0.54,-0.495,2808.3333333333335
-0.535,-0.505,2811.1111111111113
-0.525,-0.51,2813.8888888888887
-0.535,-0.505,2816.6666666666665
-0.54,-0.52,2819.4444444444443
-0.545,-0.51,2822.222222222222
-0.55,-0.515,2825.0
-0.555,-0.505,2827.777777777778
-0.55,-0.49,2830.5555555555557
-0.545,-0.49,2833.3333333333335
-0.535,-0.485,2836.1111111111113
-0.52,-0.47,2838.8888888888887
-0.535,-0.47,2841.6666666666665
-0.53,-0.47,2844.4444444444443
-0.53,-0.48,2847.222222222222
-0.54,-0.49,2850.0
-0.545,-0.49,2852.777777777778
-0.565,-0.495,2855.5555555555557
-0.56,-0.475,2858.3333333333335
-0.56,-0.48,2861.1111111111113
-0.56,-0.47,2863.8888888888887
-0.56,-0.465,2866.6666666666665
-0.555,-0.465,2869.4444444444443
-0.55,-0.455,2872.222222222222
-0.565,-0.45,2875.0
-0.565,-0.45,2877.777777777778
-0.57,-0.46,2880.5555555555557
-0.58,-0.465,2883.3333333333335
-0.585,-0.48,2886.1111111111113
-0.595,-0.47,2888.8888888888887
-0.59,-0.47,2891.6666666666665
-0.595,-0.455,2894.4444444444443
-0.585,-0.45,2897.222222222222
-0.57,-0.43,2900.0
-0.56,-0.425,2902.777777777778
-0.545,-0.42,2905.5555555555557
-0.565,-0.42,2908.3333333333335
-0.565,-0.42,2911.1111111111113
-0.57,-0.43,2913.8888888888887
-0.58,-0.44,2916.6666666666665
-0.58,-0.43,2919.4444444444443
-0.585,-0.43,2922.222222222222
-0.58,-0.425,2925.0
-0.58,-0.42,2927.777777777778
-0.57,-0.405,2930.5555555555557
-0.565,-0.415,2933.3333333333335
-0.56,-0.405,2936.1111111111113
-0.555,-0.41,2938.8888888888887
-0.555,-0.425,2941.6666666666665
-0.555,-0.44,2944.4444444444443
-0.565,-0.435,2947.222222222222
-0.565,-0.44,2950.0
-0.575,-0.46,2952.777777777778
-0.58,-0.455,2955.5555555555557
-0.585,-0.46,2958.3333333333335
-0.605,-0.46,2961.1111111111113
-0.605,-0.45,2963.8888888888887
-0.595,-0.45,2966.6666666666665
-0.59,-0.445,2969.4444444444443
-0.57,-0.445,2972.222222222222
-0.555,-0.46,2975.0
-0.55,-0.45,2977.777777777778
-0.535,-0.455,2980.5555555555557
-0.54,-0.465,2983.3333333333335
-0.545,-0.48,2986.1111111111113
-0.535,-0.465,2988.8888888888887
-0.53,-0.455,2991.6666666666665
-0.53,-0.445,2994.4444444444443
-0.52,-0.425,2997.222222222222
-0.51,-0.42,3000.0
-0.495,-0.405,3002.777777777778
-0.495,-0.4,3005.5555555555557
-0.48,-0.4,3008.3333333333335
-0.49,-0.395,3011.1111111111113
-0.49,-0.405,3013.8888888888887
-0.5,-0.405,3016.6666666666665
-0.505,-0.415,3019.4444444444443
-0.51,-0.41,3022.222222222222
-0.515,-0.41,3025.0
-0.515,-0.4,3027.777777777778
-0.52,-0.385,3030.5555555555557
-0.52,-0.37,3033.3333333333335
-0.51,-0.35,3036.1111111111113
-0.495,-0.34,3038.8888888888887
-0.495,-0.35,3041.6666666666665
-0.505,-0.35,3044.4444444444443
-0.515,-0.35,3047.222222222222
-0.51,-0.36,3050.0
-0.515,-0.355,3052.777777777778
-0.525,-0.365,3055.5555555555557
-0.525,-0.36,3058.3333333333335
-0.525,-0.35,3061.1111111111113
-0.525,-0.34,3063.8888888888887
-0.525,-0.335,3066.6666666666665
-0.52,-0.325,3069.4444444444443
-0.5,-0.31,3072.222222222222
-0.505,-0.315,3075.0
-0.5,-0.315,3077.777777777778
-0.505,-0.335,3080.5555555555557
-0.515,-0.34,3083.3333333333335
-0.525,-0.345,3086.1111111111113
-0.535,-0.35,3088.8888888888887
-0.53,-0.35,3091.6666666666665
-0.525,-0.355,3094.4444444444443
-0.525,-0.35,3097.222222222222
-0.515,-0.35,3100.0
-0.5,-0.34,3102.777777777778
-0.505,-0.33,3105.5555555555557
-0.505,-0.345,3108.3333333333335
-0.51,-0.345,3111.1111111111113
-0.515,-0.355,3113.8888888888887
-0.525,-0.37,3116.6666666666665
-0.54,-0.395,3119.4444444444443
-0.565,-0.4,3122.222222222222
-0.57,-0.39,3125.0
-0.58,-0.395,3127.777777777778
-0.585,-0.395,3130.5555555555557
-0.575,-0.39,3133.3333333333335
-0.585,-0.385,3136.1111111111113
-0.575,-0.38,3138.8888888888887
-0.575,-0.4,3141.6666666666665
-0.59,-0.405,3144.4444444444443
-0.58,-0.42,3147.222222222222
-0.58,-0.43,3150.0
-0.58,-0.44,3152.777777777778
-0.585,-0.445,3155.5555555555557
-0.56,-0.43,3158.3333333333335
-0.57,-0.425,3161.1111111111113
-0.555,-0.41,3163.8888888888887
-0.515,-0.4,3166.6666666666665
-0.505,-0.385,3169.4444444444443
-0.5,-0.395,3172.222222222222
-0.49,-0.385,3175.0
-0.475,-0.39,3177.777777777778
-0.485,-0.39,3180.5555555555557
-0.485,-0.4,3183.3333333333335
-0.49,-0.395,3186.1111111111113
-0.485,-0.4,3188.8888888888887
-0.5,-0.395,3191.6666666666665
-0.505,-0.38,3194.4444444444443
-0.515,-0.38,3197.222222222222
-0.505,-0.38,3200.0
-0.495,-0.375,3202.777777777778
-0.485,-0.365,3205.5555555555557
-0.49,-0.38,3208.3333333333335
-0.475,-0.37,3211.1111111111113
-0.49,-0.37,3213.8888888888887
-0.495,-0.375,3216.6666666666665
-0.5,-0.385,3219.4444444444443
-0.505,-0.38,3222.222222222222
-0.505,-0.37,3225.0
-0.51,-0.365,3227.777777777778
-0.495,-0.36,3230.5555555555557
-0.49,-0.36,3233.3333333333335
-0.485,-0.335,3236.1111111111113
-0.465,-0.34,3238.8888888888887
-0.465,-0.345,3241.6666666666665
-0.46,-0.335,3244.4444444444443
-0.465,-0.34,3247.222222222222
-0.48,-0.365,3250.0
-0.495,-0.36,3252.777777777778
-0.495,-0.365,3255.5555555555557
-0.51,-0.37,3258.3333333333335
-0.515,-0.365,3261.1111111111113
-0.51,-0.355,3263.8888888888887
-0.505,-0.35,3266.6666666666665
-0.495,-0.335,3269.4444444444443
-0.49,-0.34,3272.222222222222
-0.485,-0.35,3275.0
-0.49,-0.355,3277.777777777778
-0.49,-0.36,3280.5555555555557
-0.49,-0.365,3283.3333333333335
-0.505,-0.38,3286.1111111111113
-0.5,-0.375,3288.8888888888887
-0.51,-0.37,3291.6666666666665
-0.515,-0.365,3294.4444444444443
-0.505,-0.35,3297.222222222222
-0.495,-0.345,3300.0
-0.5,-0.34,3302.777777777778
-0.5,-0.34,3305.5555555555557
-0.52,-0.345,3308.3333333333335
-0.555,-0.345,3311.1111111111113
-0.59,-0.36,3313.8888888888887
-0.6,-0.37,3316.6666666666665
-0.55,-0.35,3319.4444444444443
-0.46,-0.32,3322.222222222222
-0.305,-0.245,3325.0
-0.1,-0.145,3327.777777777778
0.155,-0.03,3330.5555555555557
0.44,0.06,3333.3333333333335
0.745,0.17,3336.1111111111113
1.055,0.26,3338.8888888888887
1.33,0.345,3341.6666666666665
1.545,0.43,3344.4444444444443
1.67,0.52,3347.222222222222
1.705,0.63,3350.0
1.69,0.725,3352.777777777778
1.65,0.81,3355.5555555555557
1.55,0.825,3358.3333333333335
1.36,0.705,3361.1111111111113
1.055,0.43,3363.8888888888887
0.605,0.02,3366.6666666666665
0.1,-0.47,3369.4444444444443
-0.325,-0.945,3372.222222222222
-0.605,-1.305,3375.0
-0.7,-1.495,3377.777777777778
-0.7,-1.46,3380.5555555555557
-0.66,-1.305,3383.3333333333335
-0.6,-1.095,3386.1111111111113
-0.56,-0.915,3388.8888888888887
-0.545,-0.775,3391.6666666666665
-0.54,-0.665,3394.4444444444443
-0.555,-0.61,3397.222222222222
-0.575,-0.565,3400.0
-0.585,-0.525,3402.777777777778
-0.585,-0.49,3405.5555555555557
-0.595,-0.46,3408.3333333333335
-0.595,-0.435,3411.1111111111113
-0.595,-0.415,3413.8888888888887
-0.62,-0.405,3416.6666666666665
-0.63,-0.4,3419.4444444444443
-0.64,-0.4,3422.222222222222
-0.655,-0.375,3425.0
-0.66,-0.365,3427.777777777778
-0.68,-0.36,3430.5555555555557
-0.675,-0.35,3433.3333333333335
-0.675,-0.355,3436.1111111111113
-0.68,-0.335,3438.8888888888887
-0.675,-0.34,3441.6666666666665
-0.685,-0.345,3444.4444444444443
-0.68,-0.355,3447.222222222222
-0.7,-0.365,3450.0
-0.715,-0.365,3452.777777777778
-0.725,-0.365,3455.5555555555557
-0.74,-0.365,3458.3333333333335
-0.725,-0.37,3461.1111111111113
-0.74,-0.365,3463.8888888888887
-0.73,-0.365,3466.6666666666665
-0.73,-0.35,3469.4444444444443
-0.73,-0.345,3472.222222222222
-0.735,-0.36,3475.0
-0.735,-0.365,3477.777777777778
-0.745,-0.37,3480.5555555555557
-0.75,-0.38,3483.3333333333335
-0.77,-0.4,3486.1111111111113
-0.77,-0.405,3488.8888888888887
-0.775,-0.395,3491.6666666666665
-0.785,-0.41,3494.4444444444443
-0.815,-0.405,3497.222222222222
-0.82,-0.41,3500.0
-0.825,-0.41,3502.777777777778
-0.82,-0.405,3505.5555555555557
-0.82,-0.425,3508.3333333333335
-0.825,-0.435,3511.1111111111113
-0.825,-0.445,3513.8888888888887
-0.825,-0.45,3516.6666666666665
-0.835,-0.465,3519.4444444444443
-0.835,-0.47,3522.222222222222
-0.84,-0.45,3525.0
-0.835,-0.465,3527.777777777778
-0.84,-0.45,3530.5555555555557
-0.845,-0.43,3533.3333333333335
-0.86,-0.43,3536.1111111111113
-0.875,-0.415,3538.8888888888887
-0.86,-0.415,3541.6666666666665
-0.88,-0.43,3544.4444444444443
-0.875,-0.435,3547.222222222222
-0.89,-0.44,3550.0
-0.915,-0.445,3552.777777777778
-0.92,-0.445,3555.5555555555557
-0.935,-0.44,3558.3333333333335
-0.945,-0.435,3561.1111111111113
-0.955,-0.425,3563.8888888888887
-0.955,-0.43,3566.6666666666665
-0.975,-0.425,3569.4444444444443
-0.985,-0.435,3572.222222222222
-1.005,-0.44,3575.0
-1.03,-0.46,3577.777777777778
-1.045,-0.465,3580.5555555555557
-1.06,-0.5,3583.3333333333335
-1.075,-0.525,3586.1111111111113
-1.09,-0.53,3588.8888888888887
-1.1,-0.555,3591.6666666666665
-1.105,-0.555,3594.4444444444443
-1.125,-0.56,3597.222222222222
-1.125,-0.57,3600.0
-1.13,-0.575,3602.777777777778
-1.13,-0.585,3605.5555555555557
-1.135,-0.6,3608.3333333333335
-1.15,-0.62,3611.1111111111113
-1.16,-0.655,3613.8888888888887
-1.175,-0.66,3616.6666666666665
-1.175,-0.68,3619.4444444444443
-1.17,-0.685,3622.222222222222
-1.165,-0.69,3625.0
-1.16,-0.68,3627.777777777778
-1.125,-0.69,3630.5555555555557
-1.1,-0.67,3633.3333333333335
-1.07,-0.67,3636.1111111111113
-1.045,-0.655,3638.8888888888887
-1.015,-0.65,3641.6666666666665
-0.98,-0.64,3644.4444444444443
-0.93,-0.63,3647.222222222222
-0.915,-0.63,3650.0
-0.895,-0.61,3652.777777777778
-0.88,-0.6,3655.5555555555557
-0.86,-0.585,3658.3333333333335
-0.83,-0.56,3661.1111111111113
-0.8,-0.545,3663.8888888888887
-0.76,-0.525,3666.6666666666665
-0.74,-0.505,3669.4444444444443
-0.7,-0.485,3672.222222222222
-0.675,-0.485,3675.0
-0.65,-0.475,3677.777777777778
-0.64,-0.47,3680.5555555555557
-0.63,-0.47,3683.3333333333335
-0.625,-0.475,3686.1111111111113
-0.605,-0.46,3688.8888888888887
-0.595,-0.45,3691.6666666666665
-0.6,-0.435,3694.4444444444443
-0.565,-0.43,3697.222222222222
-0.55,-0.415,3700.0
-0.545,-0.41,3702.777777777778
-0.525,-0.4,3705.5555555555557
-0.525,-0.4,3708.3333333333335
-0.525,-0.4,3711.1111111111113
-0.525,-0.395,3713.8888888888887
-0.535,-0.385,3716.6666666666665
-0.55,-0.395,3719.4444444444443
-0.555,-0.395,3722.222222222222
-0.555,-0.39,3725.0
-0.555,-0.4,3727.777777777778
-0.555,-0.375,3730.5555555555557
-0.55,-0.375,3733.3333333333335
-0.56,-0.355,3736.1111111111113
-0.55,-0.345,3738.8888888888887
-0.55,-0.34,3741.6666666666665
-0.565,-0.34,3744.4444444444443
-0.565,-0.335,3747.222222222222
-0.57,-0.33,3750.0
-0.575,-0.325,3752.777777777778
-0.58,-0.33,3755.5555555555557
-0.58,-0.32,3758.3333333333335
-0.585,-0.305,3761.1111111111113
-0.575,-0.285,3763.8888888888887
-0.555,-0.28,3766.6666666666665
-0.55,-0.285,3769.4444444444443
-0.535,-0.265,3772.222222222222
-0.545,-0.295,3775.0
-0.535,-0.285,3777.777777777778
-0.54,-0.285,3780.5555555555557
-0.535,-0.29,3783.3333333333335
-0.54,-0.305,3786.1111111111113
-0.535,-0.295,3788.8888888888887
-0.525,-0.3,3791.6666666666665
-0.525,-0.295,3794.4444444444443
-0.52,-0.28,3797.222222222222
-0.51,-0.27,3800.0
-0.51,-0.265,3802.777777777778
-0.505,-0.265,3805.5555555555557
-0.5,-0.275,3808.3333333333335
-0.51,-0.28,3811.1111111111113
-0.52,-0.29,3813.8888888888887
-0.525,-0.305,3816.6666666666665
-0.545,-0.31,3819.4444444444443
-0.54,-0.32,3822.222222222222
-0.54,-0.315,3825.0
-0.525,-0.31,3827.777777777778
-0.505,-0.305,3830.5555555555557
-0.48,-0.3,3833.3333333333335
-0.475,-0.295,3836.1111111111113
-0.465,-0.29,3838.8888888888887
-0.45,-0.295,3841.6666666666665
-0.445,-0.3,3844.4444444444443
-0.445,-0.315,3847.222222222222
-0.43,-0.31,3850.0
-0.435,-0.32,3852.777777777778
-0.455,-0.32,3855.5555555555557
-0.435,-0.31,3858.3333333333335
-0.435,-0.315,3861.1111111111113
-0.43,-0.29,3863.8888888888887
-0.42,-0.295,3866.6666666666665
-0.415,-0.285,3869.4444444444443
-0.415,-0.285,3872.222222222222
-0.41,-0.28,3875.0
-0.405,-0.29,3877.777777777778
-0.405,-0.29,3880.5555555555557
-0.415,-0.29,3883.3333333333335
-0.42,-0.305,3886.1111111111113
-0.43,-0.31,3888.8888888888887
-0.445,-0.295,3891.6666666666665
-0.465,-0.3,3894.4444444444443
-0.485,-0.3,3897.222222222222
-0.505,-0.28,3900.0
-0.53,-0.275,3902.777777777778
-0.485,-0.24,3905.5555555555557
-0.375,-0.21,3908.3333333333335
-0.215,-0.115,3911.1111111111113
-0.01,-0.025,3913.8888888888887
0.245,0.1,3916.6666666666665
0.52,0.205,3919.4444444444443
0.82,0.285,3922.222222222222
1.12,0.355,3925.0
1.4,0.425,3927.777777777778
1.6,0.505,3930.5555555555557
1.73,0.6,3933.3333333333335
1.795,0.73,3936.1111111111113
1.785,0.845,3938.8888888888887
1.69,0.905,3941.6666666666665
1.535,0.855,3944.4444444444443
1.265,0.64,3947.222222222222
0.825,0.27,3950.0
0.305,-0.195,3952.777777777778
-0.2,-0.675,3955.5555555555557
-0.57,-1.07,3958.3333333333335
-0.755,-1.285,3961.1111111111113
-0.82,-1.305,3963.8888888888887
-0.8,-1.165,3966.6666666666665
-0.75,-0.975,3969.4444444444443
-0.69,-0.79,3972.222222222222
-0.665,-0.68,3975.0
-0.655,-0.615,3977.777777777778
-0.655,-0.58,3980.5555555555557
-0.665,-0.56,3983.3333333333335
-0.7,-0.54,3986.1111111111113
-0.715,-0.515,3988.8888888888887
-0.715,-0.48,3991.6666666666665
-0.715,-0.465,3994.4444444444443
-0.705,-0.415,3997.222222222222
-0.705,-0.41,4000.0
-0.68,-0.395,4002.777777777778
-0.67,-0.375,4005.5555555555557
-0.665,-0.375,4008.3333333333335
-0.67,-0.38,4011.1111111111113
-0.675,-0.37,4013.8888888888887
-0.67,-0.37,4016.6666666666665
-0.67,-0.375,4019.4444444444443
-0.685,-0.36,4022.222222222222
-0.69,-0.355,4025.0
-0.68,-0.355,4027.777777777778
-0.68,-0.335,4030.5555555555557
-0.66,-0.33,4033.3333333333335
-0.66,-0.315,4036.1111111111113
-0.645,-0.305,4038.8888888888887
-0.655,-0.315,4041.6666666666665
-0.665,-0.315,4044.4444444444443
-0.68,-0.32,4047.222222222222
-0.69,-0.33,4050.0
-0.685,-0.33,4052.777777777778
-0.685,-0.325,4055.5555555555557
-0.685,-0.32,4058.3333333333335
-0.69,-0.32,4061.1111111111113
-0.69,-0.31,4063.8888888888887
-0.685,-0.305,4066.6666666666665
-0.69,-0.3,4069.4444444444443
-0.695,-0.295,4072.222222222222
-0.7,-0.295,4075.0
-0.71,-0.3,4077.777777777778
-0.715,-0.305,4080.5555555555557
-0.72,-0.31,4083.3333333333335
-0.735,-0.31,4086.1111111111113
-0.75,-0.33,4088.8888888888887
-0.755,-0.32,4091.6666666666665
-0.765,-0.315,4094.4444444444443
-0.765,-0.305,4097.222222222223
-0.765,-0.295,4100.0
-0.77,-0.305,4102.777777777777
-0.77,-0.285,4105.555555555556
-0.78,-0.295,4108.333333333333
-0.795,-0.295,4111.111111111111
-0.815,-0.29,4113.888888888889
-0.83,-0.305,4116.666666666667
-0.84,-0.315,4119.444444444444
-0.87,-0.325,4122.222222222223
-0.885,-0.32,4125.0
-0.905,-0.34,4127.777777777777
-0.92,-0.325,4130.555555555556
-0.925,-0.35,4133.333333333333
-0.925,-0.335,4136.111111111111
-0.94,-0.34,4138.888888888889
-0.94,-0.355,4141.666666666667
-0.975,-0.375,4144.444444444444
-0.97,-0.38,4147.222222222223
-0.98,-0.405,4150.0
-0.985,-0.425,4152.777777777777
-0.995,-0.445,4155.555555555556
-1.01,-0.44,4158.333333333333
-1.02,-0.445,4161.111111111111
-1.025,-0.445,4163.888888888889
-1.02,-0.455,4166.666666666667
-1.035,-0.455,4169.444444444444
-1.03,-0.46,4172.222222222223
-1.025,-0.47,4175.0
-1.03,-0.49,4177.777777777777
-1.035,-0.5,4180.555555555556
-1.035,-0.525,4183.333333333333
-1.035,-0.54,4186.111111111111
-1.04,-0.545,4188.888888888889
-1.06,-0.55,4191.666666666667
-1.055,-0.555,4194.444444444444
-1.065,-0.555,4197.222222222223
-1.045,-0.555,4200.0
-1.045,-0.55,4202.777777777777
-1.025,-0.555,4205.555555555556
-1.0,-0.545,4208.333333333333
-0.99,-0.565,4211.111111111111
-0.97,-0.555,4213.888888888889
-0.955,-0.56,4216.666666666667
-0.94,-0.55,4219.444444444444
-0.915,-0.55,4222.222222222223
-0.88,-0.54,4225.0
-0.845,-0.52,4227.777777777777
-0.81,-0.5,4230.555555555556
-0.77,-0.47,4233.333333333333
-0.74,-0.46,4236.111111111111
-0.73,-0.435,4238.888888888889
-0.7,-0.43,4241.666666666667
-0.68,-0.42,4244.444444444444
-0.68,-0.415,4247.222222222223
-0.67,-0.425,4250.0
-0.66,-0.42,4252.777777777777
-0.655,-0.415,4255.555555555556
-0.64,-0.4,4258.333333333333
-0.625,-0.38,4261.111111111111
-0.615,-0.36,4263.888888888889
-0.605,-0.35,4266.666666666667
-0.595,-0.35,4269.444444444444
-0.595,-0.345,4272.222222222223
-0.575,-0.34,4275.0
-0.575,-0.33,4277.777777777777
-0.585,-0.335,4280.555555555556
-0.58,-0.335,4283.333333333333
-0.59,-0.345,4286.111111111111
-0.595,-0.345,4288.888888888889
-0.595,-0.33,4291.666666666667
-0.61,-0.33,4294.444444444444
-0.605,-0.335,4297.222222222223
-0.6,-0.32,4300.0
-0.605,-0.32,4302.777777777777
-0.585,-0.315,4305.555555555556
-0.58,-0.315,4308.333333333333
-0.585,-0.32,4311.111111111111
-0.595,-0.32,4313.888888888889
-0.595,-0.325,4316.666666666667
-0.585,-0.33,4319.444444444444
-0.59,-0.34,4322.222222222223
-0.615,-0.33,4325.0
-0.61,-0.32,4327.777777777777
-0.615,-0.315,4330.555555555556
-0.61,-0.305,4333.333333333333
-0.605,-0.305,4336.111111111111
-0.595,-0.305,4338.888888888889
-0.59,-0.3,4341.666666666667
-0.58,-0.305,4344.444444444444
-0.58,-0.315,4347.222222222223
-0.565,-0.32,4350.0
-0.56,-0.33,4352.777777777777
-0.56,-0.34,4355.555555555556
-0.555,-0.325,4358.333333333333
-0.535,-0.315,4361.111111111111
-0.53,-0.3,4363.888888888889
-0.505,-0.28,4366.666666666667
-0.495,-0.27,4369.444444444444
-0.505,-0.26,4372.222222222223
-0.495,-0.27,4375.0
-0.53,-0.285,4377.777777777777
-0.525,-0.29,4380.555555555556
-0.54,-0.3,4383.333333333333
-0.55,-0.32,4386.111111111111
-0.555,-0.325,4388.888888888889
-0.565,-0.325,4391.666666666667
-0.575,-0.31,4394.444444444444
-0.565,-0.315,4397.222222222223
-0.565,-0.31,4400.0
-0.565,-0.3,4402.777777777777
-0.555,-0.305,4405.555555555556
-0.54,-0.31,4408.333333333333
-0.545,-0.31,4411.111111111111
-0.54,-0.315,4413.888888888889
-0.55,-0.335,4416.666666666667
-0.56,-0.315,4419.444444444444
-0.565,-0.32,4422.222222222223
-0.565,-0.315,4425.0
-0.565,-0.315,4427.777777777777
-0.565,-0.31,4430.555555555556
-0.56,-0.3,4433.333333333333
-0.57,-0.3,4436.111111111111
-0.565,-0.29,4438.888888888889
-0.565,-0.285,4441.666666666667
-0.575,-0.29,4444.444444444444
-0.57,-0.305,4447.222222222223
-0.58,-0.315,4450.0
-0.58,-0.325,4452.777777777777
-0.605,-0.33,4455.555555555556
-0.605,-0.335,4458.333333333333
-0.6,-0.325,4461.111111111111
-0.6,-0.32,4463.888888888889
-0.6,-0.325,4466.666666666667
-0.59,-0.315,4469.444444444444
-0.585,-0.31,4472.222222222223
-0.575,-0.32,4475.0
-0.59,-0.315,4477.777777777777
-0.585,-0.335,4480.555555555556
-0.61,-0.34,4483.333333333333
-0.62,-0.345,4486.111111111111
-0.62,-0.36,4488.888888888889
-0.625,-0.355,4491.666666666667
-0.63,-0.345,4494.444444444444
-0.63,-0.345,4497.222222222223
-0.63,-0.34,4500.0
-0.635,-0.33,4502.777777777777
-0.645,-0.33,4505.555555555556
-0.645,-0.335,4508.333333333333
-0.65,-0.355,4511.111111111111
-0.66,-0.375,4513.888888888889
-0.67,-0.385,4516.666666666667
-0.67,-0.395,4519.444444444444
-0.665,-0.41,4522.222222222223
-0.655,-0.39,4525.0
-0.64,-0.39,4527.777777777777
-0.625,-0.365,4530.555555555556
-0.59,-0.365,4533.333333333333
-0.57,-0.355,4536.111111111111
-0.56,-0.35,4538.888888888889
-0.545,-0.34,4541.666666666667
-0.54,-0.33,4544.444444444444
-0.545,-0.33,4547.222222222223
-0.535,-0.325,4550.0
-0.545,-0.33,4552.777777777777
-0.535,-0.335,4555.555555555556
-0.54,-0.33,4558.333333333333
-0.545,-0.325,4561.111111111111
-0.54,-0.315,4563.888888888889
-0.535,-0.305,4566.666666666667
-0.53,-0.305,4569.444444444444
-0.52,-0.285,4572.222222222223
-0.525,-0.285,4575.0
-0.52,-0.285,4577.777777777777
-0.525,-0.29,4580.555555555556
-0.54,-0.3,4583.333333333333
-0.54,-0.31,4586.111111111111
-0.55,-0.315,4588.888888888889
-0.55,-0.31,4591.666666666667
-0.565,-0.31,4594.444444444444
-0.56,-0.295,4597.222222222223
-0.565,-0.3,4600.0
-0.565,-0.29,4602.777777777777
-0.58,-0.27,4605.555555555556
-0.595,-0.295,4608.333333333333
-0.6,-0.295,4611.111111111111
-0.61,-0.31,4613.888888888889
-0.625,-0.325,4616.666666666667
-0.625,-0.34,4619.444444444444
-0.63,-0.34,4622.222222222223
-0.64,-0.33,4625.0
-0.635,-0.32,4627.777777777777
-0.625,-0.325,4630.555555555556
-0.61,-0.315,4633.333333333333
-0.6,-0.32,4636.111111111111
-0.595,-0.31,4638.888888888889
-0.6,-0.325,4641.666666666667
-0.6,-0.31,4644.444444444444
-0.605,-0.33,4647.222222222223
-0.615,-0.335,4650.0
-0.615,-0.34,4652.777777777777
-0.635,-0.34,4655.555555555556
-0.645,-0.355,4658.333333333333
-0.64,-0.35,4661.111111111111
-0.64,-0.34,4663.888888888889
-0.64,-0.34,4666.666666666667
-0.645,-0.335,4669.444444444444
-0.635,-0.33,4672.222222222223
-0.635,-0.345,4675.0
-0.65,-0.345,4677.777777777777
-0.66,-0.355,4680.555555555556
-0.655,-0.35,4683.333333333333
-0.655,-0.365,4686.111111111111
-0.635,-0.365,4688.888888888889
-0.625,-0.36,4691.666666666667
-0.605,-0.355,4694.444444444444
-0.59,-0.34,4697.222222222223
-0.58,-0.335,4700.0
-0.585,-0.31,4702.777777777777
-0.58,-0.305,4705.555555555556
-0.605,-0.31,4708.333333333333
-0.62,-0.31,4711.111111111111
-0.61,-0.3,4713.888888888889
-0.555,-0.27,4716.666666666667
-0.42,-0.235,4719.444444444444
-0.24,-0.16,4722.222222222223
-0.02,-0.045,4725.0
0.255,0.065,4727.777777777777
0.55,0.17,4730.555555555556
0.875,0.25,4733.333333333333
1.19,0.335,4736.111111111111
1.45,0.415,4738.888888888889
1.64,0.49,4741.666666666667
1.735,0.6,4744.444444444444
1.76,0.7,4747.222222222223
1.705,0.79,4750.0
1.6,0.815,4752.777777777777
1.42,0.715,4755.555555555556
1.1,0.465,4758.333333333333
0.64,0.08,4761.111111111111
0.105,-0.365,4763.888888888889
-0.36,-0.81,4766.666666666667
-0.66,-1.17,4769.444444444444
-0.77,-1.34,4772.222222222223
-0.77,-1.35,4775.0
-0.71,-1.19,4777.777777777777
-0.66,-1.0,4780.555555555556
-0.605,-0.835,4783.333333333333
-0.595,-0.705,4786.111111111111
-0.61,-0.625,4788.888888888889
-0.645,-0.585,4791.666666666667
-0.675,-0.55,4794.444444444444
-0.695,-0.51,4797.222222222223
-0.7,-0.475,4800.0
-0.715,-0.43,4802.777777777777
-0.71,-0.4,4805.555555555556
-0.71,-0.38,4808.333333333333
-0.72,-0.35,4811.111111111111
-0.74,-0.36,4813.888888888889
-0.77,-0.355,4816.666666666667
-0.795,-0.365,4819.444444444444
-0.81,-0.37,4822.222222222223
-0.82,-0.365,4825.0
-0.83,-0.365,4827.777777777777
-0.825,-0.355,4830.555555555556
-0.82,-0.345,4833.333333333333
-0.815,-0.315,4836.111111111111
-0.805,-0.315,4838.888888888889
-0.805,-0.325,4841.666666666667
-0.815,-0.31,4844.444444444444
-0.795,-0.335,4847.222222222223
-0.81,-0.33,4850.0
-0.815,-0.335,4852.777777777777
-0.82,-0.34,4855.555555555556
-0.825,-0.34,4858.333333333333
-0.835,-0.335,4861.111111111111
-0.83,-0.32,4863.888888888889
-0.835,-0.315,4866.666666666667
-0.835,-0.3,4869.444444444444
-0.83,-0.3,4872.222222222223
-0.82,-0.305,4875.0
-0.82,-0.305,4877.777777777777
-0.82,-0.31,4880.555555555556
-0.81,-0.32,4883.333333333333
-0.82,-0.33,4886.111111111111
-0.815,-0.325,4888.888888888889
-0.84,-0.325,4891.666666666667
-0.83,-0.315,4894.444444444444
-0.845,-0.305,4897.222222222223
-0.835,-0.305,4900.0
-0.835,-0.295,4902.777777777777
-0.835,-0.285,4905.555555555556
-0.83,-0.29,4908.333333333333
-0.835,-0.295,4911.111111111111
-0.845,-0.31,4913.888888888889
-0.86,-0.32,4916.666666666667
-0.865,-0.32,4919.444444444444
-0.88,-0.33,4922.222222222223
-0.885,-0.325,4925.0
-0.885,-0.335,4927.777777777777
-0.9,-0.33,4930.555555555556
-0.895,-0.325,4933.333333333333
-0.905,-0.32,4936.111111111111
-0.91,-0.325,4938.888888888889
-0.915,-0.32,4941.666666666667
-0.925,-0.335,4944.444444444444
-0.95,-0.35,4947.222222222223
-0.965,-0.355,4950.0
-0.975,-0.36,4952.777777777777
-0.995,-0.385,4955.555555555556
-1.0,-0.385,4958.333333333333
-1.01,-0.395,4961.111111111111
-1.03,-0.395,4963.888888888889
-1.04,-0.4,4966.666666666667
-1.055,-0.41,4969.444444444444
-1.065,-0.42,4972.222222222223
-1.085,-0.44,4975.0
-1.11,-0.465,4977.777777777777
-1.13,-0.475,4980.555555555556
-1.145,-0.505,4983.333333333333
-1.165,-0.54,4986.111111111111
-1.185,-0.565,4988.888888888889
-1.21,-0.565,4991.666666666667
-1.205,-0.585,4994.444444444444
-1.21,-0.585,4997.222222222223
-1.225,-0.595,5000.0
-1.225,-0.595,5002.777777777777
-1.21,-0.605,5005.555555555556
-1.21,-0.61,5008.333333333333
-1.215,-0.615,5011.111111111111
-1.215,-0.64,5013.888888888889
-1.225,-0.66,5016.666666666667
-1.235,-0.675,5019.444444444444
-1.23,-0.685,5022.222222222223
-1.24,-0.68,5025.0
-1.24,-0.68,5027.777777777777
-1.225,-0.67,5030.555555555556
-1.205,-0.66,5033.333333333333
-1.195,-0.66,5036.111111111111
-1.165,-0.655,5038.888888888889
-1.135,-0.65,5041.666666666667
-1.125,-0.64,5044.444444444444
-1.095,-0.645,5047.222222222223
-1.06,-0.64,5050.0
-1.02,-0.64,5052.777777777777
-1.0,-0.625,5055.555555555556
-0.975,-0.595,5058.333333333333
-0.935,-0.57,5061.111111111111
-0.895,-0.545,5063.888888888889
-0.855,-0.515,5066.666666666667
-0.825,-0.49,5069.444444444444
-0.78,-0.465,5072.222222222223
-0.755,-0.45,5075.0
-0.735,-0.425,5077.777777777777
-0.72,-0.43,5080.555555555556
-0.71,-0.415,5083.333333333333
-0.7,-0.41,5086.111111111111
-0.69,-0.4,5088.888888888889
-0.675,-0.38,5091.666666666667
-0.665,-0.38,5094.444444444444
-0.65,-0.355,5097.222222222223
-0.63,-0.34,5100.0
-0.62,-0.335,5102.777777777777
-0.595,-0.31,5105.555555555556
-0.59,-0.31,5108.333333333333
-0.58,-0.31,5111.111111111111
-0.59,-0.31,5113.888888888889
-0.595,-0.335,5116.666666666667
-0.61,-0.345,5119.444444444444
-0.61,-0.345,5122.222222222223
-0.615,-0.33,5125.0
-0.615,-0.335,5127.777777777777
-0.615,-0.32,5130.555555555556
-0.615,-0.32,5133.333333333333
-0.62,-0.32,5136.111111111111
-0.6,-0.31,5138.888888888889
-0.585,-0.315,5141.666666666667
-0.585,-0.32,5144.444444444444
-0.58,-0.335,5147.222222222223
-0.595,-0.345,5150.0
-0.595,-0.34,5152.777777777777
-0.6,-0.345,5155.555555555556
-0.61,-0.335,5158.333333333333
-0.6,-0.33,5161.111111111111
-0.59,-0.325,5163.888888888889
-0.58,-0.305,5166.666666666667
-0.575,-0.305,5169.444444444444
-0.56,-0.3,5172.222222222223
-0.54,-0.305,5175.0
-0.535,-0.295,5177.777777777777
-0.535,-0.295,5180.555555555556
-0.535,-0.295,5183.333333333333
-0.54,-0.305,5186.111111111111
-0.54,-0.3,5188.888888888889
-0.55,-0.28,5191.666666666667
-0.55,-0.265,5194.444444444444
-0.545,-0.25,5197.222222222223
-0.535,-0.24,5200.0
-0.54,-0.22,5202.777777777777
-0.52,-0.205,5205.555555555556
-0.51,-0.2,5208.333333333333
-0.52,-0.195,5211.111111111111
-0.52,-0.2,5213.888888888889
-0.535,-0.205,5216.666666666667
-0.525,-0.2,5219.444444444444
-0.54,-0.2,5222.222222222223
-0.53,-0.195,5225.0
-0.525,-0.19,5227.777777777777
-0.53,-0.17,5230.555555555556
-0.52,-0.16,5233.333333333333
-0.525,-0.145,5236.111111111111
-0.52,-0.14,5238.888888888889
-0.505,-0.14,5241.666666666667
-0.51,-0.13,5244.444444444444
-0.52,-0.15,5247.222222222223
-0.51,-0.155,5250.0
-0.525,-0.16,5252.777777777777
-0.545,-0.17,5255.555555555556
-0.555,-0.17,5258.333333333333
-0.565,-0.175,5261.111111111111
-0.56,-0.165,5263.888888888889
-0.55,-0.155,5266.666666666667
-0.545,-0.165,5269.444444444444
-0.55,-0.165,5272.222222222223
-0.545,-0.17,5275.0
-0.56,-0.185,5277.777777777777
-0.57,-0.205,5280.555555555556
-0.595,-0.21,5283.333333333333
-0.6,-0.215,5286.111111111111
-0.625,-0.235,5288.888888888889
-0.63,-0.235,5291.666666666667
-0.615,-0.235,5294.444444444444
-0.625,-0.23,5297.222222222223
-0.605,-0.235,5300.0
-0.605,-0.23,5302.777777777777
-0.62,-0.215,5305.555555555556
-0.615,-0.225,5308.333333333333
-0.625,-0.24,5311.111111111111
-0.6,-0.225,5313.888888888889
-0.51,-0.2,5316.666666666667
-0.36,-0.14,5319.444444444444
-0.16,-0.04,5322.222222222223
0.08,0.075,5325.0
0.37,0.185,5327.777777777777
0.675,0.275,5330.555555555556
0.995,0.355,5333.333333333333
1.3,0.425,5336.111111111111
1.55,0.485,5338.888888888889
1.7,0.56,5341.666666666667
1.745,0.655,5344.444444444444
1.725,0.73,5347.222222222223
1.64,0.765,5350.0
1.455,0.67,5352.777777777777
1.13,0.41,5355.555555555556
0.65,0.005,5358.333333333333
0.095,-0.48,5361.111111111111
-0.385,-0.93,5363.888888888889
-0.685,-1.255,5366.666666666667
-0.81,-1.365,5369.444444444444
-0.795,-1.29,5372.222222222223
-0.71,-1.1,5375.0
-0.635,-0.875,5377.777777777777
-0.58,-0.695,5380.555555555556
-0.58,-0.57,5383.333333333333
-0.595,-0.51,5386.111111111111
-0.635,-0.47,5388.888888888889
-0.675,-0.435,5391.666666666667
-0.695,-0.405,5394.444444444444
-0.695,-0.365,5397.222222222223
-0.68,-0.315,5400.0
-0.675,-0.29,5402.777777777777
-0.67,-0.265,5405.555555555556
-0.665,-0.255,5408.333333333333
-0.675,-0.245,5411.111111111111
-0.7,-0.25,5413.888888888889
-0.695,-0.265,5416.666666666667
-0.715,-0.255,5419.444444444444
-0.73,-0.25,5422.222222222223
-0.73,-0.255,5425.0
-0.745,-0.245,5427.777777777777
-0.75,-0.245,5430.555555555556
-0.745,-0.23,5433.333333333333
-0.765,-0.22,5436.111111111111
-0.765,-0.22,5438.888888888889
-0.77,-0.225,5441.666666666667
-0.775,-0.225,5444.444444444444
-0.79,-0.23,5447.222222222223
-0.81,-0.25,5450.0
-0.825,-0.235,5452.777777777777
-0.845,-0.255,5455.555555555556
-0.85,-0.265,5458.333333333333
-0.855,-0.26,5461.111111111111
-0.865,-0.265,5463.888888888889
-0.865,-0.26,5466.666666666667
-0.855,-0.255,5469.444444444444
-0.85,-0.24,5472.222222222223
-0.845,-0.26,5475.0
-0.85,-0.26,5477.777777777777
-0.85,-0.26,5480.555555555556
-0.855,-0.26,5483.333333333333
-0.86,-0.265,5486.111111111111
-0.86,-0.28,5488.888888888889
-0.86,-0.265,5491.666666666667
-0.85,-0.265,5494.444444444444
-0.845,-0.26,5497.222222222223
-0.84,-0.26,5500.0
-0.825,-0.255,5502.777777777777
-0.83,-0.245,5505.555555555556
-0.825,-0.24,5508.333333333333
-0.83,-0.24,5511.111111111111
-0.82,-0.24,5513.888888888889
-0.825,-0.255,5516.666666666667
-0.84,-0.25,5519.444444444444
-0.845,-0.255,5522.222222222223
-0.86,-0.26,5525.0
-0.88,-0.26,5527.777777777777
-0.88,-0.25,5530.555555555556
-0.87,-0.25,5533.333333333333
-0.87,-0.235,5536.111111111111
-0.875,-0.245,5538.888888888889
-0.88,-0.245,5541.666666666667
-0.88,-0.26,5544.444444444444
-0.89,-0.28,5547.222222222223
-0.9,-0.28,5550.0
-0.915,-0.3,5552.777777777777
-0.935,-0.31,5555.555555555556
-0.95,-0.31,5558.333333333333
-0.965,-0.31,5561.111111111111
-0.98,-0.315,5563.888888888889
-0.985,-0.32,5566.666666666667
-0.995,-0.32,5569.444444444444
-1.0,-0.315,5572.222222222223
-1.0,-0.33,5575.0
-1.015,-0.335,5577.777777777777
-1.02,-0.355,5580.555555555556
-1.045,-0.365,5583.333333333333
-1.065,-0.375,5586.111111111111
-1.09,-0.4,5588.888888888889
-1.1,-0.41,5591.666666666667
-1.125,-0.415,5594.444444444444
-1.135,-0.415,5597.222222222223
-1.15,-0.42,5600.0
-1.14,-0.43,5602.777777777777
-1.14,-0.42,5605.555555555556
-1.14,-0.44,5608.333333333333
-1.135,-0.455,5611.111111111111
-1.125,-0.46,5613.888888888889
-1.125,-0.485,5616.666666666667
-1.12,-0.49,5619.444444444444
-1.105,-0.5,5622.222222222223
-1.1,-0.485,5625.0
-1.07,-0.49,5627.777777777777
-1.025,-0.465,5630.555555555556
-0.975,-0.45,5633.333333333333
-0.955,-0.435,5636.111111111111
-0.91,-0.415,5638.888888888889
-0.865,-0.405,5641.666666666667
-0.84,-0.4,5644.444444444444
-0.82,-0.405,5647.222222222223
-0.815,-0.4,5650.0
-0.8,-0.395,5652.777777777777
-0.785,-0.405,5655.555555555556
-0.785,-0.38,5658.333333333333
-0.745,-0.365,5661.111111111111
-0.72,-0.36,5663.888888888889
-0.7,-0.335,5666.666666666667
-0.675,-0.325,5669.444444444444
-0.635,-0.31,5672.222222222223
-0.62,-0.3,5675.0
-0.615,-0.3,5677.777777777777
-0.6,-0.3,5680.555555555556
-0.595,-0.29,5683.333333333333
-0.61,-0.3,5686.111111111111
-0.605,-0.31,5688.888888888889
-0.605,-0.315,5691.666666666667
-0.605,-0.295,5694.444444444444
-0.605,-0.3,5697.222222222223
-0.605,-0.29,5700.0
-0.6,-0.265,5702.777777777777
-0.595,-0.265,5705.555555555556
-0.58,-0.265,5708.333333333333
-0.585,-0.26,5711.111111111111
-0.59,-0.26,5713.888888888889
-0.575,-0.27,5716.666666666667
-0.595,-0.275,5719.444444444444
-0.61,-0.28,5722.222222222223
-0.61,-0.275,5725.0
-0.62,-0.275,5727.777777777777
-0.615,-0.27,5730.555555555556
-0.605,-0.26,5733.333333333333
-0.605,-0.24,5736.111111111111
-0.595,-0.23,5738.888888888889
-0.59,-0.235,5741.666666666667
-0.585,-0.235,5744.444444444444
-0.58,-0.23,5747.222222222223
-0.595,-0.24,5750.0
-0.615,-0.25,5752.777777777777
-0.62,-0.25,5755.555555555556
-0.625,-0.245,5758.333333333333
-0.62,-0.245,5761.111111111111
-0.615,-0.235,5763.888888888889
-0.62,-0.24,5766.666666666667
-0.605,-0.23,5769.444444444444
-0.605,-0.205,5772.222222222223
-0.595,-0.225,5775.0
-0.605,-0.225,5777.777777777777
-0.6,-0.225,5780.555555555556
-0.605,-0.235,5783.333333333333
-0.61,-0.25,5786.111111111111
-0.61,-0.245,5788.888888888889
-0.61,-0.235,5791.666666666667
-0.605,-0.22,5794.444444444444
-0.61,-0.23,5797.222222222223
-0.6,-0.21,5800.0
-0.605,-0.2,5802.777777777777
-0.59,-0.195,5805.555555555556
-0.565,-0.19,5808.333333333333
-0.57,-0.195,5811.111111111111
-0.58,-0.22,5813.888888888889
-0.585,-0.22,5816.666666666667
-0.6,-0.225,5819.444444444444
-0.6,-0.225,5822.222222222223
-0.6,-0.22,5825.0
-0.605,-0.22,5827.777777777777
-0.6,-0.215,5830.555555555556
-0.585,-0.195,5833.333333333333
-0.58,-0.2,5836.111111111111
-0.57,-0.185,5838.888888888889
-0.535,-0.19,5841.666666666667
-0.535,-0.2,5844.444444444444
-0.535,-0.205,5847.222222222223
-0.545,-0.205,5850.0
-0.55,-0.205,5852.777777777777
-0.565,-0.215,5855.555555555556
-0.57,-0.215,5858.333333333333
-0.585,-0.205,5861.111111111111
-0.59,-0.2,5863.888888888889
-0.575,-0.205,5866.666666666667
-0.565,-0.2,5869.444444444444
-0.55,-0.195,5872.222222222223
-0.55,-0.22,5875.0
-0.555,-0.225,5877.777777777777
-0.555,-0.235,5880.555555555556
-0.575,-0.24,5883.333333333333
-0.58,-0.24,5886.111111111111
-0.585,-0.25,5888.888888888889
-0.585,-0.25,5891.666666666667
-0.585,-0.245,5894.444444444444
-0.575,-0.23,5897.222222222223
-0.575,-0.23,5900.0
-0.575,-0.23,5902.777777777777
-0.56,-0.235,5905.555555555556
-0.56,-0.225,5908.333333333333
-0.57,-0.23,5911.111111111111
-0.57,-0.23,5913.888888888889
-0.565,-0.23,5916.666666666667
-0.58,-0.23,5919.444444444444
-0.585,-0.225,5922.222222222223
-0.58,-0.23,5925.0
-0.575,-0.225,5927.777777777777
-0.565,-0.225,5930.555555555556
-0.56,-0.225,5933.333333333333
-0.55,-0.215,5936.111111111111
-0.54,-0.21,5938.888888888889
-0.55,-0.215,5941.666666666667
-0.545,-0.225,5944.444444444444
-0.55,-0.24,5947.222222222223
-0.575,-0.24,5950.0
-0.58,-0.245,5952.777777777777
-0.59,-0.27,5955.555555555556
-0.585,-0.26,5958.333333333333
-0.56,-0.25,5961.111111111111
-0.555,-0.25,5963.888888888889
-0.55,-0.245,5966.666666666667
-0.55,-0.24,5969.444444444444
-0.545,-0.235,5972.222222222223
-0.545,-0.235,5975.0
-0.55,-0.245,5977.777777777777
-0.55,-0.25,5980.555555555556
-0.545,-0.26,5983.333333333333
-0.545,-0.26,5986.111111111111
-0.555,-0.26,5988.888888888889
-0.555,-0.255,5991.666666666667
-0.56,-0.245,5994.444444444444
-0.565,-0.24,5997.222222222223
-0.56,-0.245,6000.0
-0.555,-0.24,6002.777777777777
-0.555,-0.23,6005.555555555556
-0.545,-0.235,6008.333333333333
-0.54,-0.23,6011.111111111111
-0.55,-0.23,6013.888888888889
-0.54,-0.22,6016.666666666667
-0.54,-0.23,6019.444444444444
-0.545,-0.225,6022.222222222223
-0.555,-0.22,6025.0
-0.565,-0.22,6027.777777777777
-0.565,-0.225,6030.555555555556
-0.545,-0.22,6033.333333333333
-0.565,-0.215,6036.111111111111
-0.565,-0.21,6038.888888888889
-0.58,-0.215,6041.666666666667
-0.565,-0.215,6044.444444444444
-0.575,-0.23,6047.222222222223
-0.585,-0.24,6050.0
-0.595,-0.255,6052.777777777777
-0.6,-0.26,6055.555555555556
-0.605,-0.27,6058.333333333333
-0.595,-0.265,6061.111111111111
-0.585,-0.25,6063.888888888889
-0.575,-0.24,6066.666666666667
-0.565,-0.225,6069.444444444444
-0.55,-0.22,6072.222222222223
-0.55,-0.215,6075.0
-0.55,-0.22,6077.777777777777
-0.555,-0.21,6080.555555555556
-0.55,-0.215,6083.333333333333
-0.565,-0.21,6086.111111111111
-0.585,-0.21,6088.888888888889
-0.605,-0.21,6091.666666666667
-0.63,-0.185,6094.444444444444
-0.655,-0.185,6097.222222222223
-0.645,-0.18,6100.0
-0.585,-0.155,6102.777777777777
-0.465,-0.08,6105.555555555556
-0.27,0.0,6108.333333333333
-0.035,0.1,6111.111111111111
0.26,0.225,6113.888888888889
0.59,0.325,6116.666666666667
0.935,0.415,6119.444444444444
1.255,0.515,6122.222222222223
1.525,0.605,6125.0
1.71,0.71,6127.777777777777
1.775,0.845,6130.555555555556
1.77,0.945,6133.333333333333
1.695,1.005,6136.111111111111
1.525,0.935,6138.888888888889
1.2,0.665,6141.666666666667
0.71,0.215,6144.444444444444
0.12,-0.345,6147.222222222223
-0.39,-0.895,6150.0
-0.71,-1.27,6152.777777777777
-0.84,-1.42,6155.555555555556
-0.84,-1.345,6158.333333333333
-0.755,-1.13,6161.111111111111
-0.665,-0.875,6163.888888888889
-0.62,-0.67,6166.666666666667
-0.59,-0.555,6169.444444444444
-0.59,-0.475,6172.222222222223
-0.605,-0.45,6175.0
-0.635,-0.42,6177.777777777777
-0.65,-0.39,6180.555555555556
-0.65,-0.375,6183.333333333333
-0.67,-0.355,6186.111111111111
-0.665,-0.31,6188.888888888889
-0.67,-0.29,6191.666666666667
-0.675,-0.28,6194.444444444444
-0.685,-0.26,6197.222222222223
-0.685,-0.25,6200.0
-0.685,-0.255,6202.777777777777
-0.68,-0.23,6205.555555555556
-0.685,-0.245,6208.333333333333
-0.715,-0.245,6211.111111111111
-0.72,-0.26,6213.888888888889
-0.725,-0.265,6216.666666666667
-0.735,-0.265,6219.444444444444
-0.77,-0.265,6222.222222222223
-0.755,-0.27,6225.0
-0.77,-0.245,6227.777777777777
-0.77,-0.24,6230.555555555556
-0.765,-0.235,6233.333333333333
-0.77,-0.215,6236.111111111111
-0.77,-0.215,6238.888888888889
-0.785,-0.22,6241.666666666667
-0.78,-0.22,6244.444444444444
-0.8,-0.225,6247.222222222223
-0.805,-0.24,6250.0
-0.815,-0.24,6252.777777777777
-0.83,-0.25,6255.555555555556
-0.84,-0.255,6258.333333333333
-0.845,-0.255,6261.111111111111
-0.84,-0.245,6263.888888888889
-0.84,-0.235,6266.666666666667
-0.84,-0.23,6269.444444444444
-0.84,-0.235,6272.222222222223
-0.835,-0.23,6275.0
-0.845,-0.245,6277.777777777777
-0.855,-0.25,6280.555555555556
-0.865,-0.255,6283.333333333333
-0.875,-0.26,6286.111111111111
-0.88,-0.275,6288.888888888889
-0.885,-0.28,6291.666666666667
-0.885,-0.28,6294.444444444444
-0.89,-0.265,6297.222222222223
-0.895,-0.265,6300.0
-0.905,-0.275,6302.777777777777
-0.91,-0.265,6305.555555555556
-0.915,-0.28,6308.333333333333
-0.93,-0.295,6311.111111111111
-0.95,-0.315,6313.888888888889
-0.985,-0.33,6316.666666666667
-0.995,-0.355,6319.444444444444
-1.005,-0.375,6322.222222222223
-1.025,-0.375,6325.0
-1.02,-0.37,6327.777777777777
-1.015,-0.38,6330.555555555556
-1.025,-0.375,6333.333333333333
-1.03,-0.38,6336.111111111111
-1.03,-0.38,6338.888888888889
-1.035,-0.395,6341.666666666667
-1.055,-0.42,6344.444444444444
-1.075,-0.44,6347.222222222223
-1.09,-0.46,6350.0
-1.11,-0.48,6352.777777777777
-1.125,-0.5,6355.555555555556
-1.15,-0.515,6358.333333333333
-1.165,-0.525,6361.111111111111
-1.185,-0.535,6363.888888888889
-1.19,-0.555,6366.666666666667
-1.19,-0.545,6369.444444444444
-1.19,-0.54,6372.222222222223
-1.19,-0.56,6375.0
-1.2,-0.57,6377.777777777777
-1.21,-0.585,6380.555555555556
-1.215,-0.6,6383.333333333333
-1.215,-0.62,6386.111111111111
-1.22,-0.64,6388.888888888889
-1.21,-0.64,6391.666666666667
-1.195,-0.625,6394.444444444444
-1.175,-0.625,6397.222222222223
-1.16,-0.61,6400.0
-1.125,-0.6,6402.777777777777
-1.095,-0.59,6405.555555555556
-1.065,-0.575,6408.333333333333
-1.035,-0.575,6411.111111111111
-0.985,-0.56,6413.888888888889
-0.955,-0.555,6416.666666666667
-0.93,-0.535,6419.444444444444
-0.9,-0.515,6422.222222222223
-0.865,-0.495,6425.0
-0.83,-0.465,6427.777777777777
-0.81,-0.44,6430.555555555556
-0.78,-0.43,6433.333333333333
-0.745,-0.405,6436.111111111111
-0.7,-0.375,6438.888888888889
-0.685,-0.36,6441.666666666667
-0.655,-0.345,6444.444444444444
-0.645,-0.335,6447.222222222223
-0.63,-0.34,6450.0
-0.63,-0.33,6452.777777777777
-0.63,-0.33,6455.555555555556
-0.62,-0.32,6458.333333333333
-0.62,-0.3,6461.111111111111
-0.615,-0.315,6463.888888888889
-0.605,-0.29,6466.666666666667
-0.59,-0.295,6469.444444444444
-0.585,-0.29,6472.222222222223
-0.58,-0.275,6475.0
-0.58,-0.29,6477.777777777777
-0.58,-0.3,6480.555555555556
-0.585,-0.31,6483.333333333333
-0.585,-0.305,6486.111111111111
-0.595,-0.315,6488.888888888889
-0.615,-0.315,6491.666666666667
-0.61,-0.32,6494.444444444444
-0.61,-0.32,6497.222222222223
-0.595,-0.305,6500.0
-0.58,-0.295,6502.777777777777
-0.565,-0.285,6505.555555555556
-0.545,-0.285,6508.333333333333
-0.545,-0.29,6511.111111111111
-0.545,-0.285,6513.888888888889
-0.55,-0.28,6516.666666666667
-0.555,-0.295,6519.444444444444
-0.555,-0.29,6522.222222222223
-0.555,-0.29,6525.0
-0.55,-0.28,6527.777777777777
-0.55,-0.265,6530.555555555556
-0.545,-0.25,6533.333333333333
-0.535,-0.235,6536.111111111111
-0.53,-0.235,6538.888888888889
-0.515,-0.225,6541.666666666667
-0.51,-0.225,6544.444444444444
-0.51,-0.21,6547.222222222223
-0.515,-0.215,6550.0
-0.52,-0.215,6552.777777777777
-0.53,-0.215,6555.555555555556
-0.53,-0.22,6558.333333333333
-0.525,-0.19,6561.111111111111
-0.525,-0.175,6563.888888888889
-0.515,-0.165,6566.666666666667
-0.505,-0.155,6569.444444444444
-0.505,-0.145,6572.222222222223
-0.49,-0.14,6575.0
-0.49,-0.15,6577.777777777777
-0.485,-0.145,6580.555555555556
-0.5,-0.155,6583.333333333333
-0.51,-0.155,6586.111111111111
-0.51,-0.15,6588.888888888889
-0.5,-0.16,6591.666666666667
-0.495,-0.155,6594.444444444444
-0.495,-0.16,6597.222222222223
-0.48,-0.135,6600.0
-0.485,-0.135,6602.777777777777
-0.465,-0.13,6605.555555555556
-0.465,-0.135,6608.333333333333
-0.475,-0.135,6611.111111111111
-0.475,-0.135,6613.888888888889
-0.48,-0.155,6616.666666666667
-0.495,-0.165,6619.444444444444
-0.505,-0.175,6622.222222222223
-0.5,-0.17,6625.0
-0.51,-0.16,6627.777777777777
-0.49,-0.16,6630.555555555556
-0.5,-0.165,6633.333333333333
-0.51,-0.165,6636.111111111111
-0.51,-0.17,6638.888888888889
-0.51,-0.165,6641.666666666667
-0.51,-0.185,6644.444444444444
-0.515,-0.18,6647.222222222223
-0.52,-0.2,6650.0
-0.535,-0.205,6652.777777777777
-0.54,-0.22,6655.555555555556
-0.55,-0.205,6658.333333333333
-0.545,-0.195,6661.111111111111
-0.555,-0.2,6663.888888888889
-0.55,-0.195,6666.666666666667
-0.545,-0.185,6669.444444444444
-0.55,-0.18,6672.222222222223
-0.545,-0.195,6675.0
-0.55,-0.19,6677.777777777777
-0.555,-0.2,6680.555555555556
-0.565,-0.21,6683.333333333333
-0.58,-0.215,6686.111111111111
-0.57,-0.23,6688.888888888889
-0.58,-0.205,6691.666666666667
-0.575,-0.21,6694.444444444444
-0.565,-0.205,6697.222222222223
-0.57,-0.19,6700.0
-0.57,-0.19,6702.777777777777
-0.55,-0.185,6705.555555555556
-0.545,-0.195,6708.333333333333
-0.545,-0.205,6711.111111111111
-0.545,-0.21,6713.888888888889
-0.55,-0.215,6716.666666666667
-0.565,-0.24,6719.444444444444
-0.56,-0.25,6722.222222222223
-0.565,-0.25,6725.0
-0.56,-0.255,6727.777777777777
-0.565,-0.245,6730.555555555556
-0.55,-0.24,6733.333333333333
-0.555,-0.23,6736.111111111111
-0.555,-0.225,6738.888888888889
-0.56,-0.24,6741.666666666667
-0.555,-0.235,6744.444444444444
-0.545,-0.245,6747.222222222223
-0.54,-0.26,6750.0
-0.55,-0.27,6752.777777777777
-0.555,-0.26,6755.555555555556
-0.555,-0.265,6758.333333333333
-0.55,-0.26,6761.111111111111
-0.545,-0.265,6763.888888888889
-0.55,-0.255,6766.666666666667
-0.53,-0.255,6769.444444444444
-0.52,-0.25,6772.222222222223
-0.505,-0.245,6775.0
-0.51,-0.255,6777.777777777777
-0.515,-0.26,6780.555555555556
-0.52,-0.27,6783.333333333333
-0.515,-0.27,6786.111111111111
-0.51,-0.28,6788.888888888889
-0.52,-0.28,6791.666666666667
-0.525,-0.28,6794.444444444444
-0.525,-0.28,6797.222222222223
-0.53,-0.26,6800.0
-0.52,-0.265,6802.777777777777
-0.515,-0.265,6805.555555555556
-0.505,-0.275,6808.333333333333
-0.51,-0.28,6811.111111111111
-0.53,-0.28,6813.888888888889
-0.545,-0.28,6816.666666666667
-0.55,-0.29,6819.444444444444
-0.54,-0.28,6822.222222222223
-0.535,-0.28,6825.0
-0.535,-0.26,6827.777777777777
-0.535,-0.25,6830.555555555556
-0.53,-0.245,6833.333333333333
-0.535,-0.245,6836.111111111111
-0.545,-0.25,6838.888888888889
-0.545,-0.25,6841.666666666667
-0.59,-0.255,6844.444444444444
-0.615,-0.265,6847.222222222223
-0.64,-0.27,6850.0
-0.635,-0.25,6852.777777777777
-0.57,-0.225,6855.555555555556
-0.435,-0.15,6858.333333333333
-0.245,-0.06,6861.111111111111
0.005,0.04,6863.888888888889
0.325,0.155,6866.666666666667
0.655,0.255,6869.444444444444
0.985,0.34,6872.222222222223
1.3,0.415,6875.0
1.555,0.485,6877.777777777777
1.71,0.595,6880.555555555556
1.775,0.7,6883.333333333333
1.75,0.805,6886.111111111111
1.655,0.835,6888.888888888889
1.44,0.725,6891.666666666667
1.1,0.45,6894.444444444444
0.595,0.015,6897.222222222223
0.025,-0.495,6900.0
-0.455,-0.98,6902.777777777777
-0.745,-1.315,6905.555555555556
-0.875,-1.41,6908.333333333333
-0.83,-1.335,6911.111111111111
-0.76,-1.12,6913.888888888889
-0.68,-0.915,6916.666666666667
-0.625,-0.74,6919.444444444444
-0.615,-0.63,6922.222222222223
-0.63,-0.57,6925.0
-0.645,-0.535,6927.777777777777
-0.675,-0.495,6930.555555555556
-0.675,-0.465,6933.333333333333
-0.69,-0.44,6936.111111111111
-0.675,-0.39,6938.888888888889
-0.67,-0.365,6941.666666666667
-0.675,-0.36,6944.444444444444
-0.69,-0.34,6947.222222222223
-0.705,-0.35,6950.0
-0.705,-0.345,6952.777777777777
-0.73,-0.355,6955.555555555556
-0.73,-0.355,6958.333333333333
-0.72,-0.355,6961.111111111111
-0.72,-0.34,6963.888888888889
-0.71,-0.325,6966.666666666667
-0.72,-0.32,6969.444444444444
-0.725,-0.3,6972.222222222223
-0.715,-0.305,6975.0
-0.73,-0.3,6977.777777777777
-0.73,-0.305,6980.555555555556
-0.74,-0.305,6983.333333333333
-0.75,-0.31,6986.111111111111
-0.765,-0.31,6988.888888888889
-0.765,-0.305,6991.666666666667
-0.755,-0.31,6994.444444444444
-0.76,-0.3,6997.222222222223
-0.76,-0.29,7000.0
-0.77,-0.29,7002.777777777777
-0.77,-0.27,7005.555555555556
-0.79,-0.275,7008.333333333333
-0.8,-0.285,7011.111111111111
-0.82,-0.295,7013.888888888889
-0.83,-0.31,7016.666666666667
-0.86,-0.325,7019.444444444444
-0.865,-0.34,7022.222222222223
-0.88,-0.335,7025.0
-0.895,-0.335,7027.777777777777
-0.89,-0.345,7030.555555555556
-0.88,-0.345,7033.333333333333
-0.895,-0.33,7036.111111111111
-0.885,-0.32,7038.888888888889
-0.87,-0.33,7041.666666666667
-0.875,-0.34,7044.444444444444
-0.89,-0.335,7047.222222222223
-0.895,-0.35,7050.0
-0.91,-0.375,7052.777777777777
-0.925,-0.375,7055.555555555556
-0.945,-0.38,7058.333333333333
-0.95,-0.375,7061.111111111111
-0.955,-0.385,7063.888888888889
-0.965,-0.38,7066.666666666667
-0.97,-0.37,7069.444444444444
-0.96,-0.365,7072.222222222223
-0.96,-0.385,7075.0
-0.96,-0.385,7077.777777777777
-0.955,-0.405,7080.555555555556
-0.985,-0.415,7083.333333333333
-1.005,-0.425,7086.111111111111
-1.025,-0.44,7088.888888888889
-1.035,-0.445,7091.666666666667
-1.055,-0.45,7094.444444444444
-1.07,-0.455,7097.222222222223
-1.08,-0.47,7100.0
-1.07,-0.47,7102.777777777777
-1.08,-0.47,7105.555555555556
-1.095,-0.475,7108.333333333333
-1.105,-0.5,7111.111111111111
-1.115,-0.52,7113.888888888889
-1.125,-0.53,7116.666666666667
-1.135,-0.555,7119.444444444444
-1.16,-0.575,7122.222222222223
-1.18,-0.58,7125.0
-1.195,-0.585,7127.777777777777
-1.205,-0.595,7130.555555555556
-1.215,-0.6,7133.333333333333
-1.23,-0.615,7136.111111111111
-1.245,-0.61,7138.888888888889
-1.22,-0.63,7141.666666666667
-1.23,-0.64,7144.444444444444
-1.225,-0.645,7147.222222222223
-1.22,-0.66,7150.0
-1.215,-0.665,7152.777777777777
-1.19,-0.665,7155.555555555556
-1.16,-0.67,7158.333333333333
-1.135,-0.64,7161.111111111111
-1.095,-0.625,7163.888888888889
-1.06,-0.605,7166.666666666667
-1.03,-0.585,7169.444444444444
-1.0,-0.565,7172.222222222223
-0.96,-0.54,7175.0
-0.925,-0.55,7177.777777777777
-0.91,-0.53,7180.555555555556
-0.87,-0.52,7183.333333333333
-0.86,-0.505,7186.111111111111
-0.835,-0.505,7188.888888888889
-0.82,-0.49,7191.666666666667
-0.79,-0.465,7194.444444444444
-0.78,-0.45,7197.222222222223
-0.755,-0.43,7200.0
-0.73,-0.415,7202.777777777777
-0.71,-0.39,7205.555555555556
-0.7,-0.38,7208.333333333333
-0.69,-0.385,7211.111111111111
-0.68,-0.375,7213.888888888889
-0.67,-0.375,7216.666666666667
-0.665,-0.375,7219.444444444444
-0.665,-0.375,7222.222222222223
-0.66,-0.375,7225.0
-0.65,-0.37,7227.777777777777
-0.64,-0.36,7230.555555555556
-0.625,-0.35,7233.333333333333
-0.625,-0.34,7236.111111111111
-0.61,-0.335,7238.888888888889
-0.61,-0.315,7241.666666666667
-0.605,-0.33,7244.444444444444
-0.61,-0.335,7247.222222222223
-0.615,-0.325,7250.0
-0.62,-0.325,7252.777777777777
-0.615,-0.33,7255.555555555556
-0.615,-0.33,7258.333333333333
-0.61,-0.305,7261.111111111111
-0.62,-0.305,7263.888888888889
-0.615,-0.305,7266.666666666667
-0.6,-0.295,7269.444444444444
-0.585,-0.3,7272.222222222223
-0.59,-0.3,7275.0
-0.58,-0.305,7277.777777777777
-0.575,-0.305,7280.555555555556
-0.59,-0.31,7283.333333333333
-0.575,-0.32,7286.111111111111
-0.585,-0.325,7288.888888888889
-0.59,-0.32,7291.666666666667
-0.585,-0.315,7294.444444444444
-0.585,-0.315,7297.222222222223
-0.575,-0.28,7300.0
-0.575,-0.26,7302.777777777777
-0.565,-0.25,7305.555555555556
-0.555,-0.25,7308.333333333333
-0.56,-0.26,7311.111111111111
-0.545,-0.25,7313.888888888889
-0.555,-0.265,7316.666666666667
-0.565,-0.265,7319.444444444444
-0.57,-0.265,7322.222222222223
-0.575,-0.26,7325.0
-0.59,-0.26,7327.777777777777
-0.6,-0.255,7330.555555555556
-0.585,-0.26,7333.333333333333
-0.595,-0.255,7336.111111111111
-0.59,-0.245,7338.888888888889
-0.575,-0.245,7341.666666666667
-0.57,-0.26,7344.444444444444
-0.56,-0.26,7347.222222222223
-0.575,-0.275,7350.0
-0.57,-0.28,7352.777777777777
-0.58,-0.3,7355.555555555556
-0.595,-0.3,7358.333333333333
-0.585,-0.295,7361.111111111111
-0.595,-0.29,7363.888888888889
-0.58,-0.285,7366.666666666667
-0.585,-0.27,7369.444444444444
-0.58,-0.27,7372.222222222223
-0.575,-0.275,7375.0
-0.59,-0.28,7377.777777777777
-0.59,-0.29,7380.555555555556
-0.6,-0.285,7383.333333333333
-0.615,-0.31,7386.111111111111
-0.625,-0.32,7388.888888888889
-0.61,-0.325,7391.666666666667
-0.63,-0.31,7394.444444444444
-0.625,-0.32,7397.222222222223
-0.62,-0.31,7400.0
-0.605,-0.3,7402.777777777777
-0.605,-0.295,7405.555555555556
-0.61,-0.295,7408.333333333333
-0.605,-0.305,7411.111111111111
-0.605,-0.315,7413.888888888889
-0.625,-0.325,7416.666666666667
-0.625,-0.335,7419.444444444444
-0.625,-0.34,7422.222222222223
-0.62,-0.345,7425.0
-0.61,-0.355,7427.777777777777
-0.6,-0.335,7430.555555555556
-0.585,-0.33,7433.333333333333
-0.595,-0.32,7436.111111111111
-0.57,-0.315,7438.888888888889
-0.575,-0.3,7441.666666666667
-0.585,-0.32,7444.444444444444
-0.57,-0.32,7447.222222222223
-0.58,-0.34,7450.0
-0.585,-0.355,7452.777777777777
-0.6,-0.35,7455.555555555556
-0.6,-0.36,7458.333333333333
-0.6,-0.35,7461.111111111111
-0.6,-0.345,7463.888888888889
-0.6,-0.335,7466.666666666667
-0.595,-0.335,7469.444444444444
-0.59,-0.33,7472.222222222223
-0.575,-0.32,7475.0
-0.57,-0.335,7477.777777777777
-0.57,-0.33,7480.555555555556
-0.56,-0.335,7483.333333333333
-0.565,-0.355,7486.111111111111
-0.57,-0.355,7488.888888888889
-0.58,-0.365,7491.666666666667
-0.585,-0.345,7494.444444444444
-0.585,-0.35,7497.222222222223
-0.575,-0.345,7500.0
-0.555,-0.335,7502.777777777777
-0.565,-0.335,7505.555555555556
-0.55,-0.335,7508.333333333333
-0.56,-0.33,7511.111111111111
-0.55,-0.34,7513.888888888889
-0.56,-0.34,7516.666666666667
-0.56,-0.35,7519.444444444444
-0.585,-0.36,7522.222222222223
-0.6,-0.36,7525.0
-0.63,-0.345,7527.777777777777
-0.63,-0.34,7530.555555555556
-0.625,-0.32,7533.333333333333
-0.585,-0.29,7536.111111111111
-0.485,-0.235,7538.888888888889
-0.325,-0.15,7541.666666666667
-0.11,-0.055,7544.444444444444
0.125,0.03,7547.222222222223
0.42,0.115,7550.0
0.73,0.2,7552.777777777777
1.025,0.265,7555.555555555556
1.305,0.34,7558.333333333333
1.52,0.42,7561.111111111111
1.67,0.53,7563.888888888889
1.71,0.64,7566.666666666667
1.705,0.745,7569.444444444444
1.64,0.795,7572.222222222223
1.48,0.71,7575.0
1.205,0.47,7577.777777777777
0.785,0.11,7580.555555555556
0.265,-0.325,7583.333333333333
-0.285,-0.79,7586.111111111111
-0.675,-1.18,7588.888888888889
-0.875,-1.4,7591.666666666667
-0.9,-1.425,7594.444444444444
-0.87,-1.3,7597.222222222223
-0.775,-1.105,7600.0
-0.72,-0.895,7602.777777777777
-0.69,-0.75,7605.555555555556
-0.675,-0.655,7608.333333333333
-0.7,-0.62,7611.111111111111
-0.73,-0.58,7613.888888888889
-0.76,-0.555,7616.666666666667
-0.78,-0.535,7619.444444444444
-0.785,-0.52,7622.222222222223
-0.79,-0.48,7625.0
-0.78,-0.455,7627.777777777777
-0.775,-0.425,7630.555555555556
-0.77,-0.4,7633.333333333333
-0.76,-0.39,7636.111111111111
-0.755,-0.38,7638.888888888889
-0.76,-0.375,7641.666666666667
-0.76,-0.375,7644.444444444444
-0.755,-0.385,7647.222222222223
-0.76,-0.385,7650.0
-0.77,-0.385,7652.777777777777
-0.77,-0.4,7655.555555555556
-0.79,-0.395,7658.333333333333
-0.775,-0.385,7661.111111111111
-0.79,-0.38,7663.888888888889
-0.775,-0.365,7666.666666666667
-0.785,-0.365,7669.444444444444
-0.78,-0.345,7672.222222222223
-0.775,-0.35,7675.0
-0.78,-0.355,7677.777777777777
-0.795,-0.35,7680.555555555556
-0.795,-0.36,7683.333333333333
-0.815,-0.365,7686.111111111111
-0.82,-0.375,7688.888888888889
-0.83,-0.385,7691.666666666667
-0.825,-0.375,7694.444444444444
-0.84,-0.375,7697.222222222223
-0.825,-0.365,7700.0
-0.835,-0.355,7702.777777777777
-0.845,-0.355,7705.555555555556
-0.845,-0.345,7708.333333333333
-0.855,-0.355,7711.111111111111
-0.86,-0.355,7713.888888888889
-0.87,-0.37,7716.666666666667
-0.875,-0.375,7719.444444444444
-0.89,-0.38,7722.222222222223
-0.89,-0.395,7725.0
-0.895,-0.38,7727.777777777777
-0.91,-0.375,7730.555555555556
-0.9,-0.36,7733.333333333333
-0.91,-0.35,7736.111111111111
-0.9,-0.33,7738.888888888889
-0.905,-0.345,7741.666666666667
-0.91,-0.35,7744.444444444444
-0.92,-0.35,7747.222222222223
-0.94,-0.365,7750.0
-0.965,-0.375,7752.777777777777
-0.975,-0.38,7755.555555555556
-0.99,-0.385,7758.333333333333
-0.995,-0.39,7761.111111111111
-1.01,-0.38,7763.888888888889
-1.005,-0.38,7766.666666666667
-1.005,-0.38,7769.444444444444
-1.005,-0.37,7772.222222222223
-1.01,-0.375,7775.0
-1.01,-0.385,7777.777777777777
-1.035,-0.395,7780.555555555556
-1.055,-0.41,7783.333333333333
-1.07,-0.42,7786.111111111111
-1.1,-0.445,7788.888888888889
-1.11,-0.455,7791.666666666667
-1.12,-0.465,7794.444444444444
-1.125,-0.48,7797.222222222223
-1.14,-0.485,7800.0
-1.15,-0.49,7802.777777777777
-1.15,-0.495,7805.555555555556
-1.155,-0.505,7808.333333333333
-1.15,-0.535,7811.111111111111
-1.155,-0.56,7813.888888888889
-1.18,-0.565,7816.666666666667
-1.205,-0.605,7819.444444444444
-1.215,-0.61,7822.222222222223
-1.235,-0.63,7825.0
-1.245,-0.635,7827.777777777777
-1.235,-0.635,7830.555555555556
-1.225,-0.635,7833.333333333333
-1.205,-0.65,7836.111111111111
-1.19,-0.645,7838.888888888889
-1.165,-0.635,7841.666666666667
-1.145,-0.65,7844.444444444444
-1.135,-0.64,7847.222222222223
-1.115,-0.645,7850.0
-1.1,-0.64,7852.777777777777
-1.07,-0.635,7855.555555555556
-1.055,-0.63,7858.333333333333
-1.02,-0.61,7861.111111111111
-1.015,-0.595,7863.888888888889
-0.97,-0.565,7866.666666666667
-0.925,-0.555,7869.444444444444
-0.905,-0.53,7872.222222222223
-0.875,-0.505,7875.0
-0.865,-0.5,7877.777777777777
-0.855,-0.485,7880.555555555556
-0.84,-0.485,7883.333333333333
-0.84,-0.48,7886.111111111111
-0.835,-0.48,7888.888888888889
-0.84,-0.47,7891.666666666667
-0.81,-0.465,7894.444444444444
-0.8,-0.45,7897.222222222223
-0.765,-0.415,7900.0
-0.765,-0.415,7902.777777777777
-0.745,-0.4,7905.555555555556
-0.74,-0.395,7908.333333333333
-0.74,-0.39,7911.111111111111
-0.725,-0.405,7913.888888888889
-0.725,-0.395,7916.666666666667
-0.735,-0.405,7919.444444444444
-0.735,-0.39,7922.222222222223
-0.725,-0.405,7925.0
-0.72,-0.39,7927.777777777777
-0.7,-0.375,7930.555555555556
-0.685,-0.36,7933.333333333333
-0.68,-0.345,7936.111111111111
-0.66,-0.34,7938.888888888889
-0.65,-0.33,7941.666666666667
-0.65,-0.335,7944.444444444444
-0.635,-0.325,7947.222222222223
-0.63,-0.325,7950.0
-0.63,-0.335,7952.777777777777
-0.635,-0.335,7955.555555555556
-0.63,-0.34,7958.333333333333
-0.62,-0.335,7961.111111111111
-0.635,-0.33,7963.888888888889
-0.635,-0.33,7966.666666666667
-0.61,-0.32,7969.444444444444
-0.59,-0.315,7972.222222222223
-0.575,-0.31,7975.0
-0.56,-0.315,7977.777777777777
-0.555,-0.31,7980.555555555556
-0.55,-0.32,7983.333333333333
-0.555,-0.335,7986.111111111111
-0.55,-0.335,7988.888888888889
-0.55,-0.33,7991.666666666667
-0.56,-0.325,7994.444444444444
-0.545,-0.31,7997.222222222223
-0.545,-0.295,8000.0
-0.535,-0.295,8002.777777777777
-0.525,-0.275,8005.555555555556
-0.525,-0.275,8008.333333333333
-0.51,-0.29,8011.111111111111
-0.525,-0.285,8013.888888888889
-0.54,-0.3,8016.666666666667
-0.55,-0.3,8019.444444444444
-0.57,-0.31,8022.222222222223
-0.575,-0.3,8025.0
-0.57,-0.3,8027.777777777777
-0.575,-0.3,8030.555555555556
-0.58,-0.29,8033.333333333333
-0.595,-0.285,8036.111111111111
-0.59,-0.28,8038.888888888889
-0.595,-0.285,8041.666666666667
-0.595,-0.29,8044.444444444444
-0.61,-0.275,8047.222222222223
-0.615,-0.295,8050.0
-0.635,-0.305,8052.777777777777
-0.645,-0.32,8055.555555555556
-0.665,-0.325,8058.333333333333
-0.68,-0.315,8061.111111111111
-0.665,-0.315,8063.888888888889
-0.68,-0.31,8066.666666666667
-0.67,-0.305,8069.444444444444
-0.685,-0.305,8072.222222222223
-0.665,-0.3,8075.0
-0.675,-0.315,8077.777777777777
-0.685,-0.31,8080.555555555556
-0.685,-0.335,8083.333333333333
-0.71,-0.34,8086.111111111111
-0.705,-0.345,8088.888888888889
-0.72,-0.355,8091.666666666667
-0.72,-0.34,8094.444444444444
-0.705,-0.335,8097.222222222223
-0.695,-0.335,8100.0
-0.675,-0.33,8102.777777777777
-0.66,-0.32,8105.555555555556
-0.66,-0.32,8108.333333333333
-0.665,-0.32,8111.111111111111
-0.665,-0.325,8113.888888888889
-0.675,-0.335,8116.666666666667
-0.675,-0.335,8119.444444444444
-0.68,-0.345,8122.222222222223
-0.685,-0.335,8125.0
-0.67,-0.32,8127.777777777777
-0.65,-0.33,8130.555555555556
-0.64,-0.325,8133.333333333333
-0.62,-0.31,8136.111111111111
-0.61,-0.315,8138.888888888889
-0.59,-0.305,8141.666666666667
-0.59,-0.305,8144.444444444444
-0.585,-0.32,8147.222222222223
-0.585,-0.34,8150.0
-0.59,-0.345,8152.777777777777
-0.585,-0.355,8155.555555555556
-0.595,-0.355,8158.333333333333
-0.585,-0.34,8161.111111111111
-0.58,-0.335,8163.888888888889
-0.575,-0.335,8166.666666666667
-0.565,-0.325,8169.444444444444
-0.545,-0.32,8172.222222222223
-0.545,-0.315,8175.0
-0.545,-0.33,8177.777777777777
-0.555,-0.315,8180.555555555556
-0.555,-0.335,8183.333333333333
-0.575,-0.335,8186.111111111111
-0.585,-0.35,8188.888888888889
-0.59,-0.355,8191.666666666667
-0.6,-0.345,8194.444444444445
-0.6,-0.355,8197.222222222223
-0.605,-0.34,8200.0
-0.6,-0.34,8202.777777777777
-0.605,-0.335,8205.555555555555
-0.625,-0.34,8208.333333333334
-0.635,-0.35,8211.111111111111
-0.655,-0.35,8213.888888888889
-0.665,-0.37,8216.666666666666
-0.685,-0.375,8219.444444444445
-0.7,-0.385,8222.222222222223
-0.705,-0.39,8225.0
-0.715,-0.395,8227.777777777777
-0.725,-0.39,8230.555555555555
-0.72,-0.395,8233.333333333334
-0.735,-0.4,8236.111111111111
-0.735,-0.4,8238.888888888889
-0.72,-0.38,8241.666666666666
-0.715,-0.4,8244.444444444445
-0.705,-0.385,8247.222222222223
-0.705,-0.38,8250.0
-0.715,-0.38,8252.777777777777
-0.71,-0.39,8255.555555555555
-0.71,-0.4,8258.333333333334
-0.72,-0.385,8261.111111111111
-0.715,-0.38,8263.888888888889
-0.71,-0.365,8266.666666666666
-0.685,-0.35,8269.444444444445
-0.67,-0.35,8272.222222222223
-0.635,-0.34,8275.0
-0.635,-0.34,8277.777777777777
-0.63,-0.35,8280.555555555555
-0.645,-0.34,8283.333333333334
-0.64,-0.355,8286.111111111111
-0.64,-0.355,8288.888888888889
-0.645,-0.375,8291.666666666666
-0.63,-0.35,8294.444444444445
-0.635,-0.35,8297.222222222223
-0.61,-0.335,8300.0
-0.595,-0.325,8302.777777777777
-0.58,-0.315,8305.555555555555
-0.57,-0.305,8308.333333333334
-0.565,-0.315,8311.111111111111
-0.565,-0.315,8313.888888888889
-0.57,-0.325,8316.666666666666
-0.58,-0.335,8319.444444444445
-0.615,-0.33,8322.222222222223
-0.645,-0.32,8325.0
-0.66,-0.32,8327.777777777777
-0.625,-0.295,8330.555555555555
-0.52,-0.245,8333.333333333334
-0.37,-0.17,8336.111111111111
-0.165,-0.075,8338.888888888889
0.085,0.015,8341.666666666666
0.35,0.09,8344.444444444445
0.65,0.195,8347.222222222223
0.955,0.255,8350.0
1.235,0.325,8352.777777777777
1.47,0.39,8355.555555555555
1.635,0.465,8358.333333333334
1.73,0.565,8361.111111111111
1.75,0.67,8363.888888888889
1.705,0.78,8366.666666666666
1.62,0.8,8369.444444444445
1.505,0.715,8372.222222222223
1.27,0.495,8375.0
0.885,0.13,8377.777777777777
0.36,-0.295,8380.555555555555
-0.175,-0.74,8383.333333333334
-0.605,-1.14,8386.111111111111
-0.85,-1.4,8388.888888888889
-0.925,-1.485,8391.666666666666
-0.895,-1.39,8394.444444444445
-0.84,-1.215,8397.222222222223
-0.775,-1.01,8400.0
-0.73,-0.85,8402.777777777777
-0.715,-0.725,8405.555555555555
-0.735,-0.665,8408.333333333334
-0.765,-0.61,8411.111111111111
-0.79,-0.58,8413.888888888889
-0.82,-0.555,8416.666666666666
-0.83,-0.525,8419.444444444445
-0.85,-0.505,8422.222222222223
-0.85,-0.48,8425.0
-0.84,-0.46,8427.777777777777
-0.835,-0.43,8430.555555555555
-0.83,-0.405,8433.333333333334
-0.825,-0.375,8436.111111111111
-0.815,-0.36,8438.888888888889
-0.81,-0.355,8441.666666666666
-0.82,-0.36,8444.444444444445
-0.835,-0.35,8447.222222222223
-0.835,-0.355,8450.0
-0.855,-0.36,8452.777777777777
-0.86,-0.37,8455.555555555555
-0.87,-0.37,8458.333333333334
-0.885,-0.365,8461.111111111111
-0.87,-0.365,8463.888888888889
-0.875,-0.365,8466.666666666666
-0.86,-0.35,8469.444444444445
-0.85,-0.345,8472.222222222223
-0.855,-0.345,8475.0
-0.84,-0.345,8477.777777777777
-0.85,-0.345,8480.555555555555
-0.86,-0.365,8483.333333333334
-0.87,-0.365,8486.111111111111
-0.875,-0.37,8488.888888888889
-0.87,-0.38,8491.666666666666
-0.88,-0.385,8494.444444444445
-0.875,-0.37,8497.222222222223
-0.885,-0.35,8500.0
-0.88,-0.35,8502.777777777777
-0.875,-0.355,8505.555555555555
-0.88,-0.365,8508.333333333334
-0.89,-0.37,8511.111111111111
-0.9,-0.375,8513.888888888889
-0.905,-0.385,8516.666666666666
-0.905,-0.395,8519.444444444445
-0.91,-0.39,8522.222222222223
-0.91,-0.4,8525.0
-0.93,-0.39,8527.777777777777
-0.935,-0.38,8530.555555555555
-0.935,-0.37,8533.333333333334
-0.94,-0.375,8536.111111111111
-0.945,-0.385,8538.888888888889
-0.945,-0.38,8541.666666666666
-0.955,-0.395,8544.444444444445
-0.965,-0.405,8547.222222222223
-0.98,-0.415,8550.0
-0.985,-0.43,8552.777777777777
-1.0,-0.42,8555.555555555555
-1.005,-0.435,8558.333333333334
-1.02,-0.43,8561.111111111111
-1.025,-0.42,8563.888888888889
-1.035,-0.425,8566.666666666666
-1.04,-0.415,8569.444444444445
-1.025,-0.42,8572.222222222223
-1.05,-0.415,8575.0
-1.06,-0.43,8577.777777777777
-1.08,-0.435,8580.555555555555
-1.11,-0.46,8583.333333333334
-1.125,-0.47,8586.111111111111
-1.165,-0.48,8588.888888888889
-1.175,-0.495,8591.666666666666
-1.175,-0.505,8594.444444444445
-1.19,-0.505,8597.222222222223
-1.195,-0.51,8600.0
-1.205,-0.53,8602.777777777777
-1.215,-0.535,8605.555555555555
-1.215,-0.54,8608.333333333334
-1.225,-0.57,8611.111111111111
-1.245,-0.585,8613.888888888889
-1.265,-0.6,8616.666666666666
-1.285,-0.63,8619.444444444445
-1.315,-0.64,8622.222222222223
-1.325,-0.665,8625.0
-1.34,-0.67,8627.777777777777
-1.34,-0.675,8630.555555555555
-1.33,-0.68,8633.333333333334
-1.325,-0.685,8636.111111111111
-1.32,-0.695,8638.888888888889
-1.3,-0.69,8641.666666666666
-1.285,-0.715,8644.444444444445
-1.275,-0.72,8647.222222222223
-1.25,-0.715,8650.0
-1.215,-0.73,8652.777777777777
-1.205,-0.725,8655.555555555555
-1.175,-0.715,8658.333333333334
-1.155,-0.695,8661.111111111111
-1.13,-0.67,8663.888888888889
-1.085,-0.66,8666.666666666666
-1.04,-0.625,8669.444444444445
-1.0,-0.62,8672.222222222223
-0.955,-0.585,8675.0
-0.905,-0.585,8677.777777777777
-0.885,-0.55,8680.555555555555
-0.875,-0.555,8683.333333333334
-0.85,-0.54,8686.111111111111
-0.84,-0.545,8688.888888888889
-0.825,-0.525,8691.666666666666
-0.81,-0.515,8694.444444444445
-0.79,-0.495,8697.222222222223
-0.77,-0.475,8700.0
-0.755,-0.465,8702.777777777777
-0.735,-0.445,8705.555555555555
-0.735,-0.425,8708.333333333334
-0.72,-0.43,8711.111111111111
-0.715,-0.43,8713.888888888889
-0.715,-0.43,8716.666666666666
-0.71,-0.425,8719.444444444445
-0.705,-0.415,8722.222222222223
-0.705,-0.415,8725.0
-0.7,-0.415,8727.777777777777
-0.695,-0.405,8730.555555555555
-0.69,-0.4,8733.333333333334
-0.68,-0.385,8736.111111111111
-0.675,-0.37,8738.888888888889
-0.66,-0.37,8741.666666666666
-0.655,-0.38,8744.444444444445
-0.655,-0.38,8747.222222222223
-0.675,-0.39,8750.0
-0.665,-0.405,8752.777777777777
-0.665,-0.4,8755.555555555555
-0.665,-0.405,8758.333333333334
-0.67,-0.395,8761.111111111111
-0.665,-0.395,8763.888888888889
-0.655,-0.375,8766.666666666666
-0.64,-0.37,8769.444444444445
-0.625,-0.35,8772.222222222223
-0.625,-0.34,8775.0
-0.62,-0.35,8777.777777777777
-0.61,-0.345,8780.555555555555
-0.61,-0.335,8783.333333333334
-0.6,-0.345,8786.111111111111
-0.61,-0.34,8788.888888888889
-0.605,-0.34,8791.666666666666
-0.615,-0.325,8794.444444444445
-0.6,-0.315,8797.222222222223
-0.605,-0.305,8800.0
-0.6,-0.29,8802.777777777777
-0.6,-0.29,8805.555555555555
-0.595,-0.285,8808.333333333334
-0.6,-0.29,8811.111111111111
-0.595,-0.275,8813.888888888889
-0.59,-0.285,8816.666666666666
-0.595,-0.285,8819.444444444445
-0.6,-0.275,8822.222222222223
-0.6,-0.285,8825.0
-0.605,-0.28,8827.777777777777
-0.6,-0.265,8830.555555555555
-0.6,-0.26,8833.333333333334
-0.6,-0.25,8836.111111111111
-0.595,-0.245,8838.888888888889
-0.59,-0.24,8841.666666666666
-0.6,-0.25,8844.444444444445
-0.6,-0.255,8847.222222222223
-0.605,-0.26,8850.0
-0.615,-0.27,8852.777777777777
-0.615,-0.27,8855.555555555555
-0.625,-0.265,8858.333333333334
-0.625,-0.285,8861.111111111111
-0.615,-0.27,8863.888888888889
-0.615,-0.265,8866.666666666666
-0.61,-0.265,8869.444444444445
-0.595,-0.265,8872.222222222223
-0.6,-0.27,8875.0
-0.59,-0.285,8877.777777777777
-0.605,-0.285,8880.555555555555
-0.605,-0.285,8883.333333333334
-0.6,-0.285,8886.111111111111
-0.62,-0.295,8888.888888888889
-0.61,-0.295,8891.666666666666
-0.61,-0.28,8894.444444444445
-0.605,-0.28,8897.222222222223
-0.595,-0.285,8900.0
-0.59,-0.275,8902.777777777777
-0.56,-0.275,8905.555555555555
-0.55,-0.265,8908.333333333334
-0.55,-0.27,8911.111111111111
-0.545,-0.28,8913.888888888889
-0.555,-0.285,8916.666666666666
-0.555,-0.285,8919.444444444445
-0.57,-0.29,8922.222222222223
-0.565,-0.3,8925.0
-0.58,-0.295,8927.777777777777
-0.595,-0.285,8930.555555555555
-0.625,-0.275,8933.333333333334
-0.65,-0.27,8936.111111111111
-0.67,-0.26,8938.888888888889
-0.64,-0.24,8941.666666666666
-0.57,-0.22,8944.444444444445
-0.43,-0.155,8947.222222222223
-0.255,-0.08,8950.0
-0.02,0.02,8952.777777777777
0.27,0.12,8955.555555555555
0.595,0.21,8958.333333333334
0.955,0.31,8961.111111111111
1.275,0.41,8963.888888888889
1.52,0.515,8966.666666666666
1.68,0.615,8969.444444444445
1.735,0.725,8972.222222222223
1.715,0.83,8975.0
1.605,0.83,8977.777777777777
1.395,0.705,8980.555555555555
1.03,0.4,8983.333333333334
0.505,-0.06,8986.111111111111
-0.065,-0.595,8988.888888888889
-0.545,-1.065,8991.666666666666
-0.81,-1.375,8994.444444444445
-0.9,-1.48,8997.222222222223
-0.86,-1.375,9000.0
-0.745,-1.155,9002.777777777777
-0.655,-0.915,9005.555555555555
-0.6,-0.725,9008.333333333334
-0.6,-0.605,9011.111111111111
-0.625,-0.535,9013.888888888889
-0.66,-0.505,9016.666666666666
-0.715,-0.505,9019.444444444445
-0.735,-0.475,9022.222222222223
-0.75,-0.46,9025.0
-0.755,-0.43,9027.777777777777
-0.735,-0.405,9030.555555555555
-0.725,-0.365,9033.333333333334
-0.72,-0.35,9036.111111111111
-0.725,-0.34,9038.888888888889
-0.72,-0.33,9041.666666666666
-0.73,-0.33,9044.444444444445
-0.725,-0.33,9047.222222222223
-0.74,-0.335,9050.0
-0.73,-0.34,9052.777777777777
-0.75,-0.325,9055.555555555555
-0.755,-0.325,9058.333333333334
-0.765,-0.315,9061.111111111111
-0.775,-0.305,9063.888888888889
-0.76,-0.29,9066.666666666666
-0.76,-0.285,9069.444444444445
-0.765,-0.27,9072.222222222223
-0.76,-0.28,9075.0
-0.795,-0.285,9077.777777777777
-0.795,-0.29,9080.555555555555
-0.81,-0.3,9083.333333333334
-0.82,-0.3,9086.111111111111
-0.83,-0.315,9088.888888888889
-0.84,-0.315,9091.666666666666
-0.84,-0.305,9094.444444444445
-0.855,-0.295,9097.222222222223
-0.85,-0.3,9100.0
-0.84,-0.3,9102.777777777777
-0.845,-0.3,9105.555555555555
-0.835,-0.295,9108.333333333334
-0.84,-0.32,9111.111111111111
-0.85,-0.32,9113.888888888889
-0.865,-0.335,9116.666666666666
-0.87,-0.345,9119.444444444445
-0.875,-0.36,9122.222222222223
-0.885,-0.365,9125.0
-0.905,-0.365,9127.777777777777
-0.915,-0.36,9130.555555555555
-0.92,-0.365,9133.333333333334
-0.925,-0.34,9136.111111111111
-0.93,-0.345,9138.888888888889
-0.925,-0.34,9141.666666666666
-0.93,-0.36,9144.444444444445
-0.935,-0.36,9147.222222222223
-0.925,-0.37,9150.0
-0.95,-0.38,9152.777777777777
-0.96,-0.385,9155.555555555555
-0.97,-0.395,9158.333333333334
-0.99,-0.385,9161.111111111111
-0.985,-0.38,9163.888888888889
-0.99,-0.38,9166.666666666666
-0.99,-0.38,9169.444444444445
-0.995,-0.365,9172.222222222223
-0.995,-0.365,9175.0
-0.995,-0.38,9177.777777777777
-1.01,-0.395,9180.555555555555
-1.02,-0.405,9183.333333333334
-1.04,-0.42,9186.111111111111
-1.055,-0.435,9188.888888888889
-1.065,-0.435,9191.666666666666
-1.07,-0.455,9194.444444444445
-1.075,-0.47,9197.222222222223
-1.075,-0.46,9200.0
-1.07,-0.465,9202.777777777777
-1.075,-0.46,9205.555555555555
-1.07,-0.475,9208.333333333334
-1.08,-0.485,9211.111111111111
-1.08,-0.49,9213.888888888889
-1.09,-0.505,9216.666666666666
-1.1,-0.535,9219.444444444445
-1.105,-0.545,9222.222222222223
-1.11,-0.555,9225.0
-1.115,-0.55,9227.777777777777
-1.11,-0.56,9230.555555555555
-1.095,-0.57,9233.333333333334
-1.08,-0.555,9236.111111111111
-1.05,-0.56,9238.888888888889
-1.035,-0.55,9241.666666666666
-1.015,-0.555,9244.444444444445
-0.985,-0.55,9247.222222222223
-0.96,-0.56,9250.0
-0.935,-0.545,9252.777777777777
-0.915,-0.545,9255.555555555555
-0.885,-0.53,9258.333333333334
-0.855,-0.515,9261.111111111111
-0.84,-0.495,9263.888888888889
-0.815,-0.48,9266.666666666666
-0.79,-0.45,9269.444444444445
-0.765,-0.445,9272.222222222223
-0.735,-0.415,9275.0
-0.7,-0.42,9277.777777777777
-0.71,-0.41,9280.555555555555
-0.715,-0.43,9283.333333333334
-0.705,-0.425,9286.111111111111
-0.71,-0.43,9288.888888888889
-0.725,-0.44,9291.666666666666
-0.725,-0.44,9294.444444444445
-0.725,-0.435,9297.222222222223
-0.705,-0.435,9300.0
-0.68,-0.425,9302.777777777777
-0.68,-0.425,9305.555555555555
-0.67,-0.42,9308.333333333334
-0.675,-0.415,9311.111111111111
-0.67,-0.425,9313.888888888889
-0.675,-0.435,9316.666666666666
-0.675,-0.43,9319.444444444445
-0.68,-0.44,9322.222222222223
-0.685,-0.455,9325.0
-0.695,-0.44,9327.777777777777
-0.685,-0.435,9330.555555555555
-0.69,-0.425,9333.333333333334
-0.685,-0.425,9336.111111111111
-0.69,-0.42,9338.888888888889
-0.675,-0.41,9341.666666666666
-0.67,-0.425,9344.444444444445
-0.66,-0.425,9347.222222222223
-0.68,-0.425,9350.0
-0.68,-0.42,9352.777777777777
-0.67,-0.415,9355.555555555555
-0.665,-0.415,9358.333333333334
-0.66,-0.41,9361.111111111111
-0.65,-0.4,9363.888888888889
-0.645,-0.38,9366.666666666666
-0.625,-0.37,9369.444444444445
-0.615,-0.365,9372.222222222223
-0.605,-0.36,9375.0
-0.615,-0.36,9377.777777777777
-0.61,-0.36,9380.555555555555
-0.61,-0.36,9383.333333333334
-0.62,-0.37,9386.111111111111
-0.605,-0.365,9388.888888888889
-0.615,-0.375,9391.666666666666
-0.615,-0.365,9394.444444444445
-0.605,-0.37,9397.222222222223
-0.6,-0.355,9400.0
-0.595,-0.345,9402.777777777777
-0.585,-0.335,9405.555555555555
-0.58,-0.34,9408.333333333334
-0.565,-0.325,9411.111111111111
-0.57,-0.335,9413.888888888889
-0.575,-0.34,9416.666666666666
-0.58,-0.35,9419.444444444445
-0.585,-0.355,9422.222222222223
-0.585,-0.355,9425.0
-0.585,-0.355,9427.777777777777
-0.565,-0.365,9430.555555555555
-0.55,-0.345,9433.333333333334
-0.55,-0.335,9436.111111111111
-0.55,-0.33,9438.888888888889
-0.525,-0.315,9441.666666666666
-0.535,-0.335,9444.444444444445
-0.54,-0.33,9447.222222222223
-0.545,-0.355,9450.0
-0.56,-0.365,9452.777777777777
-0.56,-0.36,9455.555555555555
-0.585,-0.365,9458.333333333334
-0.59,-0.365,9461.111111111111
-0.6,-0.35,9463.888888888889
-0.595,-0.365,9466.666666666666
-0.59,-0.35,9469.444444444445
-0.595,-0.345,9472.222222222223
-0.595,-0.345,9475.0
-0.595,-0.36,9477.777777777777
-0.595,-0.36,9480.555555555555
-0.605,-0.385,9483.333333333334
-0.605,-0.395,9486.111111111111
-0.62,-0.395,9488.888888888889
-0.64,-0.415,9491.666666666666
-0.645,-0.405,9494.444444444445
-0.645,-0.41,9497.222222222223
-0.635,-0.4,9500.0
-0.635,-0.4,9502.777777777777
-0.63,-0.395,9505.555555555555
-0.625,-0.385,9508.333333333334
-0.625,-0.385,9511.111111111111
-0.63,-0.39,9513.888888888889
-0.62,-0.395,9516.666666666666
-0.635,-0.42,9519.444444444445
-0.63,-0.42,9522.222222222223
-0.635,-0.425,9525.0
-0.635,-0.415,9527.777777777777
-0.63,-0.425,9530.555555555555
-0.62,-0.41,9533.333333333334
-0.615,-0.4,9536.111111111111
-0.62,-0.39,9538.888888888889
-0.62,-0.365,9541.666666666666
-0.595,-0.365,9544.444444444445
-0.585,-0.355,9547.222222222223
-0.59,-0.36,9550.0
-0.605,-0.355,9552.777777777777
-0.595,-0.36,9555.555555555555
-0.6,-0.36,9558.333333333334
-0.625,-0.345,9561.111111111111
-0.66,-0.335,9563.888888888889
-0.68,-0.335,9566.666666666666
-0.675,-0.325,9569.444444444445
-0.66,-0.305,9572.222222222223
-0.58,-0.25,9575.0
-0.445,-0.2,9577.777777777777
-0.245,-0.115,9580.555555555555
-0.005,-0.02,9583.333333333334
0.27,0.075,9586.111111111111
0.59,0.15,9588.888888888889
0.9,0.225,9591.666666666666
1.21,0.32,9594.444444444445
1.46,0.41,9597.222222222223
1.625,0.51,9600.0
1.695,0.62,9602.777777777777
1.685,0.735,9605.555555555555
1.63,0.78,9608.333333333334
1.5,0.71,9611.111111111111
1.235,0.485,9613.888888888889
0.815,0.105,9616.666666666666
0.27,-0.365,9619.444444444445
-0.24,-0.84,9622.222222222223
-0.6,-1.21,9625.0
-0.78,-1.395,9627.777777777777
-0.82,-1.375,9630.555555555555
-0.76,-1.23,9633.333333333334
-0.685,-1.035,9636.111111111111
-0.64,-0.855,9638.888888888889
-0.6,-0.73,9641.666666666666
-0.595,-0.66,9644.444444444445
-0.615,-0.62,9647.222222222223
-0.66,-0.585,9650.0
-0.69,-0.575,9652.777777777777
-0.715,-0.56,9655.555555555555
-0.71,-0.54,9658.333333333334
-0.71,-0.495,9661.111111111111
-0.715,-0.475,9663.888888888889
-0.725,-0.45,9666.666666666666
-0.745,-0.435,9669.444444444445
-0.755,-0.43,9672.222222222223
-0.77,-0.425,9675.0
-0.775,-0.43,9677.777777777777
-0.79,-0.445,9680.555555555555
-0.8,-0.44,9683.333333333334
-0.81,-0.45,9686.111111111111
-0.82,-0.465,9688.888888888889
-0.84,-0.46,9691.666666666666
-0.845,-0.45,9694.444444444445
-0.84,-0.445,9697.222222222223
-0.85,-0.425,9700.0
-0.845,-0.425,9702.777777777777
-0.835,-0.42,9705.555555555555
-0.835,-0.405,9708.333333333334
-0.855,-0.43,9711.111111111111
-0.87,-0.43,9713.888888888889
-0.885,-0.43,9716.666666666666
-0.895,-0.445,9719.444444444445
-0.91,-0.46,9722.222222222223
-0.92,-0.47,9725.0
-0.935,-0.465,9727.777777777777
-0.935,-0.455,9730.555555555555
-0.935,-0.455,9733.333333333334
-0.955,-0.45,9736.111111111111
-0.94,-0.435,9738.888888888889
-0.94,-0.425,9741.666666666666
-0.945,-0.44,9744.444444444445
-0.955,-0.435,9747.222222222223
-0.965,-0.44,9750.0
-0.965,-0.45,9752.777777777777
-0.945,-0.44,9755.555555555555
-0.95,-0.44,9758.333333333334
-0.95,-0.425,9761.111111111111
-0.95,-0.41,9763.888888888889
-0.945,-0.41,9766.666666666666
-0.93,-0.39,9769.444444444445
-0.925,-0.395,9772.222222222223
-0.925,-0.39,9775.0
-0.92,-0.405,9777.777777777777
-0.915,-0.405,9780.555555555555
-0.93,-0.415,9783.333333333334
-0.93,-0.43,9786.111111111111
-0.955,-0.44,9788.888888888889
-0.96,-0.45,9791.666666666666
-0.975,-0.45,9794.444444444445
-0.975,-0.465,9797.222222222223
-0.97,-0.47,9800.0
-0.98,-0.48,9802.777777777777
-0.995,-0.48,9805.555555555555
-0.995,-0.49,9808.333333333334
-1.015,-0.52,9811.111111111111
-1.035,-0.525,9813.888888888889
-1.06,-0.55,9816.666666666666
-1.095,-0.575,9819.444444444445
-1.115,-0.6,9822.222222222223
-1.13,-0.62,9825.0
-1.16,-0.635,9827.777777777777
-1.17,-0.645,9830.555555555555
-1.185,-0.655,9833.333333333334
-1.2,-0.675,9836.111111111111
-1.19,-0.68,9838.888888888889
-1.21,-0.685,9841.666666666666
-1.23,-0.715,9844.444444444445
-1.25,-0.735,9847.222222222223
-1.265,-0.755,9850.0
-1.29,-0.775,9852.777777777777
-1.31,-0.785,9855.555555555555
-1.31,-0.795,9858.333333333334
-1.31,-0.79,9861.111111111111
-1.29,-0.8,9863.888888888889
-1.27,-0.785,9866.666666666666
-1.225,-0.775,9869.444444444445
-1.2,-0.775,9872.222222222223
-1.165,-0.75,9875.0
-1.14,-0.75,9877.777777777777
-1.105,-0.735,9880.555555555555
-1.075,-0.735,9883.333333333334
-1.05,-0.72,9886.111111111111
-1.025,-0.71,9888.888888888889
-0.99,-0.695,9891.666666666666
-0.97,-0.67,9894.444444444445
-0.935,-0.64,9897.222222222223
-0.91,-0.615,9900.0
-0.855,-0.585,9902.777777777777
-0.83,-0.56,9905.555555555555
-0.805,-0.55,9908.333333333334
-0.785,-0.54,9911.111111111111
-0.77,-0.53,9913.888888888889
-0.775,-0.525,9916.666666666666
-0.765,-0.52,9919.444444444445
-0.76,-0.52,9922.222222222223
-0.75,-0.51,9925.0
-0.74,-0.495,9927.777777777777
-0.72,-0.505,9930.555555555555
-0.705,-0.485,9933.333333333334
-0.68,-0.485,9936.111111111111
-0.675,-0.47,9938.888888888889
-0.665,-0.46,9941.666666666666
-0.66,-0.455,9944.444444444445
-0.65,-0.45,9947.222222222223
-0.645,-0.46,9950.0
-0.63,-0.46,9952.777777777777
-0.635,-0.455,9955.555555555555
-0.635,-0.47,9958.333333333334
-0.645,-0.455,9961.111111111111
-0.62,-0.465,9963.888888888889
-0.62,-0.45,9966.666666666666
-0.61,-0.445,9969.444444444445
-0.605,-0.44,9972.222222222223
-0.595,-0.435,9975.0
-0.595,-0.44,9977.777777777777
-0.6,-0.445,9980.555555555555
-0.615,-0.44,9983.333333333334
-0.635,-0.46,9986.111111111111
-0.625,-0.47,9988.888888888889
-0.635,-0.46,9991.666666666666
-0.645,-0.465,9994.444444444445
-0.635,-0.455,9997.222222222223
-0.635,-0.455,10000.0
-0.625,-0.445,10002.777777777777
-0.62,-0.435,10005.555555555555
-0.6,-0.43,10008.333333333334
-0.595,-0.435,10011.111111111111
-0.595,-0.435,10013.888888888889
-0.605,-0.455,10016.666666666666
-0.62,-0.455,10019.444444444445
-0.625,-0.465,10022.222222222223
-0.645,-0.47,10025.0
-0.655,-0.465,10027.777777777777
-0.655,-0.465,10030.555555555555
-0.645,-0.445,10033.333333333334
-0.64,-0.44,10036.111111111111
-0.63,-0.445,10038.888888888889
-0.615,-0.43,10041.666666666666
-0.62,-0.435,10044.444444444445
-0.61,-0.44,10047.222222222223
-0.625,-0.44,10050.0
-0.63,-0.445,10052.777777777777
-0.63,-0.45,10055.555555555555
-0.625,-0.44,10058.333333333334
-0.63,-0.435,10061.111111111111
-0.625,-0.435,10063.888888888889
-0.62,-0.42,10066.666666666666
-0.615,-0.4,10069.444444444445
-0.605,-0.395,10072.222222222223
-0.6,-0.395,10075.0
-0.595,-0.405,10077.777777777777
-0.59,-0.41,10080.555555555555
-0.6,-0.4,10083.333333333334
-0.605,-0.425,10086.111111111111
-0.615,-0.445,10088.888888888889
-0.61,-0.435,10091.666666666666
-0.61,-0.435,10094.444444444445
-0.615,-0.44,10097.222222222223
-0.625,-0.425,10100.0
-0.6,-0.42,10102.777777777777
-0.595,-0.41,10105.555555555555
-0.615,-0.39,10108.333333333334
-0.615,-0.415,10111.111111111111
-0.61,-0.415,10113.888888888889
-0.605,-0.435,10116.666666666666
-0.61,-0.435,10119.444444444445
-0.615,-0.44,10122.222222222223
-0.625,-0.465,10125.0
-0.62,-0.45,10127.777777777777
-0.635,-0.445,10130.555555555555
-0.635,-0.44,10133.333333333334
-0.62,-0.435,10136.111111111111
-0.625,-0.435,10138.888888888889
-0.605,-0.435,10141.666666666666
-0.61,-0.45,10144.444444444445
-0.64,-0.44,10147.222222222223
-0.63,-0.455,10150.0
-0.645,-0.465,10152.777777777777
-0.65,-0.47,10155.555555555555
-0.665,-0.49,10158.333333333334
-0.66,-0.48,10161.111111111111
-0.665,-0.475,10163.888888888889
-0.67,-0.47,10166.666666666666
-0.66,-0.46,10169.444444444445
-0.655,-0.465,10172.222222222223
-0.64,-0.46,10175.0
-0.635,-0.47,10177.777777777777
-0.64,-0.47,10180.555555555555
-0.645,-0.485,10183.333333333334
-0.655,-0.5,10186.111111111111
-0.655,-0.5,10188.888888888889
-0.66,-0.51,10191.666666666666
-0.67,-0.505,10194.444444444445
-0.66,-0.495,10197.222222222223
-0.67,-0.49,10200.0
-0.67,-0.495,10202.777777777777
-0.66,-0.485,10205.555555555555
-0.655,-0.49,10208.333333333334
-0.655,-0.485,10211.111111111111
-0.655,-0.495,10213.888888888889
-0.64,-0.51,10216.666666666666
-0.665,-0.515,10219.444444444445
-0.665,-0.51,10222.222222222223
-0.66,-0.515,10225.0
-0.66,-0.515,10227.777777777777
-0.655,-0.505,10230.555555555555
-0.645,-0.505,10233.333333333334
-0.65,-0.495,10236.111111111111
-0.64,-0.475,10238.888888888889
-0.63,-0.47,10241.666666666666
-0.61,-0.47,10244.444444444445
-0.615,-0.475,10247.222222222223
-0.615,-0.47,10250.0
-0.645,-0.465,10252.777777777777
-0.645,-0.48,10255.555555555555
-0.635,-0.48,10258.333333333334
-0.65,-0.48,10261.111111111111
-0.645,-0.47,10263.888888888889
-0.63,-0.455,10266.666666666666
-0.635,-0.45,10269.444444444445
-0.63,-0.45,10272.222222222223
-0.615,-0.44,10275.0
-0.625,-0.455,10277.777777777777
-0.63,-0.46,10280.555555555555
-0.64,-0.47,10283.333333333334
-0.645,-0.48,10286.111111111111
-0.645,-0.485,10288.888888888889
-0.655,-0.495,10291.666666666666
-0.65,-0.485,10294.444444444445
-0.65,-0.48,10297.222222222223
-0.65,-0.48,10300.0
-0.645,-0.475,10302.777777777777
-0.64,-0.475,10305.555555555555
-0.635,-0.475,10308.333333333334
-0.63,-0.48,10311.111111111111
-0.64,-0.49,10313.888888888889
-0.64,-0.495,10316.666666666666
-0.655,-0.5,10319.444444444445
-0.655,-0.5,10322.222222222223
-0.655,-0.51,10325.0
-0.67,-0.51,10327.777777777777
-0.67,-0.495,10330.555555555555
-0.66,-0.495,10333.333333333334
-0.645,-0.48,10336.111111111111
-0.645,-0.475,10338.888888888889
-0.64,-0.475,10341.666666666666
-0.635,-0.48,10344.444444444445
-0.645,-0.485,10347.222222222223
-0.655,-0.515,10350.0
-0.655,-0.51,10352.777777777777
-0.675,-0.515,10355.555555555555
-0.675,-0.52,10358.333333333334
-0.685,-0.525,10361.111111111111
-0.695,-0.52,10363.888888888889
-0.695,-0.51,10366.666666666666
-0.685,-0.505,10369.444444444445
-0.685,-0.485,10372.222222222223
-0.675,-0.485,10375.0
-0.67,-0.485,10377.777777777777
-0.685,-0.495,10380.555555555555
-0.68,-0.505,10383.333333333334
-0.685,-0.51,10386.111111111111
-0.72,-0.51,10388.888888888889
-0.72,-0.525,10391.666666666666
-0.71,-0.525,10394.444444444445
-0.705,-0.515,10397.222222222223
-0.715,-0.51,10400.0
-0.705,-0.51,10402.777777777777
-0.7,-0.5,10405.555555555555
-0.69,-0.49,10408.333333333334
-0.675,-0.495,10411.111111111111
-0.68,-0.5,10413.888888888889
-0.68,-0.5,10416.666666666666
-0.68,-0.5,10419.444444444445
-0.69,-0.515,10422.222222222223
-0.685,-0.525,10425.0
-0.68,-0.51,10427.777777777777
-0.67,-0.52,10430.555555555555
-0.67,-0.51,10433.333333333334
-0.66,-0.505,10436.111111111111
-0.665,-0.5,10438.888888888889
-0.655,-0.495,10441.666666666666
-0.68,-0.5,10444.444444444445
-0.665,-0.51,10447.222222222223
-0.675,-0.52,10450.0
-0.685,-0.525,10452.777777777777
-0.675,-0.535,10455.555555555555
-0.68,-0.54,10458.333333333334
-0.67,-0.54,10461.111111111111
-0.66,-0.535,10463.888888888889
-0.65,-0.52,10466.666666666666
-0.635,-0.525,10469.444444444445
-0.63,-0.525,10472.222222222223
-0.64,-0.515,10475.0
-0.63,-0.525,10477.777777777777
-0.645,-0.53,10480.555555555555
-0.665,-0.535,10483.333333333334
-0.675,-0.545,10486.111111111111
-0.68,-0.555,10488.888888888889
-0.68,-0.565,10491.666666666666
-0.665,-0.545,10494.444444444445
-0.655,-0.535,10497.222222222223
-0.65,-0.53,10500.0
-0.65,-0.525,10502.777777777777
-0.64,-0.5,10505.555555555555
-0.635,-0.49,10508.333333333334
-0.63,-0.51,10511.111111111111
-0.635,-0.515,10513.888888888889
-0.64,-0.515,10516.666666666666
-0.66,-0.525,10519.444444444445
-0.66,-0.535,10522.222222222223
-0.69,-0.54,10525.0
-0.68,-0.55,10527.777777777777
-0.685,-0.545,10530.555555555555
-0.685,-0.535,10533.333333333334
-0.68,-0.525,10536.111111111111
-0.67,-0.525,10538.888888888889
-0.655,-0.51,10541.666666666666
-0.65,-0.52,10544.444444444445
-0.655,-0.525,10547.222222222223
-0.665,-0.54,10550.0
-0.675,-0.54,10552.777777777777
-0.69,-0.55,10555.555555555555
-0.705,-0.55,10558.333333333334
-0.72,-0.55,10561.111111111111
-0.71,-0.555,10563.888888888889
-0.71,-0.555,10566.666666666666
-0.715,-0.545,10569.444444444445
-0.71,-0.555,10572.222222222223
-0.715,-0.54,10575.0
-0.705,-0.56,10577.777777777777
-0.705,-0.55,10580.555555555555
-0.7,-0.545,10583.333333333334
-0.7,-0.555,10586.111111111111
-0.705,-0.56,10588.888888888889
-0.715,-0.57,10591.666666666666
-0.705,-0.575,10594.444444444445
-0.695,-0.56,10597.222222222223
-0.7,-0.56,10600.0
-0.685,-0.55,10602.777777777777
-0.675,-0.55,10605.555555555555
-0.665,-0.535,10608.333333333334
-0.66,-0.55,10611.111111111111
-0.665,-0.54,10613.888888888889
-0.665,-0.56,10616.666666666666
-0.665,-0.56,10619.444444444445
-0.665,-0.56,10622.222222222223
-0.65,-0.57,10625.0
-0.645,-0.56,10627.777777777777
-0.63,-0.555,10630.555555555555
-0.625,-0.545,10633.333333333334
-0.62,-0.545,10636.111111111111
-0.62,-0.53,10638.888888888889
-0.62,-0.525,10641.666666666666
-0.615,-0.535,10644.444444444445
-0.615,-0.535,10647.222222222223
-0.625,-0.545,10650.0
-0.625,-0.555,10652.777777777777
-0.64,-0.56,10655.555555555555
-0.645,-0.56,10658.333333333334
-0.63,-0.55,10661.111111111111
-0.625,-0.55,10663.888888888889
-0.62,-0.525,10666.666666666666
-0.62,-0.53,10669.444444444445
-0.62,-0.51,10672.222222222223
-0.61,-0.495,10675.0
-0.62,-0.505,10677.777777777777
-0.62,-0.52,10680.555555555555
-0.605,-0.515,10683.333333333334
-0.62,-0.54,10686.111111111111
-0.655,-0.54,10688.888888888889
-0.675,-0.54,10691.666666666666
-0.7,-0.55,10694.444444444445
-0.725,-0.535,10697.222222222223
-0.72,-0.515,10700.0
-0.65,-0.48,10702.777777777777
-0.525,-0.41,10705.555555555555
-0.35,-0.33,10708.333333333334
-0.135,-0.24,10711.111111111111
0.115,-0.15,10713.888888888889
0.38,-0.06,10716.666666666666
0.695,0.015,10719.444444444445
0.985,0.07,10722.222222222223
1.25,0.14,10725.0
1.465,0.23,10727.777777777777
1.615,0.32,10730.555555555555
1.675,0.425,10733.333333333334
1.67,0.53,10736.111111111111
1.62,0.58,10738.888888888889
1.52,0.555,10741.666666666666
1.32,0.38,10744.444444444445
0.955,0.075,10747.222222222223
0.48,-0.335,10750.0
-0.075,-0.79,10752.777777777777
-0.54,-1.195,10755.555555555555
-0.835,-1.47,10758.333333333334
-0.945,-1.57,10761.111111111111
-0.935,-1.51,10763.888888888889
-0.865,-1.33,10766.666666666666
-0.8,-1.15,10769.444444444445
-0.74,-0.995,10772.222222222223
-0.735,-0.89,10775.0
-0.73,-0.83,10777.777777777777
-0.745,-0.785,10780.555555555555
-0.755,-0.76,10783.333333333334
-0.79,-0.725,10786.111111111111
-0.795,-0.71,10788.888888888889
-0.79,-0.69,10791.666666666666
-0.78,-0.65,10794.444444444445
-0.77,-0.605,10797.222222222223
-0.76,-0.58,10800.0
-0.75,-0.565,10802.777777777777
-0.75,-0.54,10805.555555555555
-0.77,-0.535,10808.333333333334
-0.78,-0.53,10811.111111111111
-0.8,-0.54,10813.888888888889
-0.805,-0.54,10816.666666666666
-0.825,-0.545,10819.444444444445
-0.84,-0.56,10822.222222222223
-0.86,-0.565,10825.0
-0.87,-0.565,10827.777777777777
-0.87,-0.565,10830.555555555555
-0.87,-0.555,10833.333333333334
-0.86,-0.535,10836.111111111111
-0.87,-0.535,10838.888888888889
-0.865,-0.535,10841.666666666666
-0.875,-0.53,10844.444444444445
-0.875,-0.53,10847.222222222223
-0.885,-0.535,10850.0
-0.9,-0.54,10852.777777777777
-0.915,-0.56,10855.555555555555
-0.925,-0.575,10858.333333333334
-0.94,-0.57,10861.111111111111
-0.94,-0.575,10863.888888888889
-0.94,-0.575,10866.666666666666
-0.935,-0.565,10869.444444444445
-0.93,-0.575,10872.222222222223
-0.935,-0.57,10875.0
-0.945,-0.585,10877.777777777777
-0.95,-0.6,10880.555555555555
-0.955,-0.605,10883.333333333334
-0.98,-0.63,10886.111111111111
-1.0,-0.63,10888.888888888889
-1.015,-0.64,10891.666666666666
-1.025,-0.63,10894.444444444445
-1.02,-0.635,10897.222222222223
-1.02,-0.635,10900.0
-1.015,-0.615,10902.777777777777
-1.02,-0.615,10905.555555555555
-1.01,-0.61,10908.333333333334
-1.015,-0.625,10911.111111111111
-1.01,-0.63,10913.888888888889
-1.005,-0.64,10916.666666666666
-1.02,-0.655,10919.444444444445
-1.03,-0.665,10922.222222222223
-1.035,-0.67,10925.0
-1.04,-0.675,10927.777777777777
-1.05,-0.675,10930.555555555555
-1.055,-0.675,10933.333333333334
-1.05,-0.665,10936.111111111111
-1.065,-0.65,10938.888888888889
-1.05,-0.65,10941.666666666666
-1.065,-0.66,10944.444444444445
-1.075,-0.665,10947.222222222223
-1.085,-0.68,10950.0
-1.095,-0.685,10952.777777777777
-1.12,-0.705,10955.555555555555
-1.135,-0.715,10958.333333333334
-1.15,-0.725,10961.111111111111
-1.155,-0.735,10963.888888888889
-1.155,-0.74,10966.666666666666
-1.17,-0.75,10969.444444444445
-1.18,-0.75,10972.222222222223
-1.185,-0.77,10975.0
-1.21,-0.775,10977.777777777777
-1.225,-0.8,10980.555555555555
-1.235,-0.82,10983.333333333334
-1.265,-0.845,10986.111111111111
-1.27,-0.87,10988.888888888889
-1.305,-0.88,10991.666666666666
-1.325,-0.9,10994.444444444445
-1.345,-0.915,10997.222222222223
-1.34,-0.93,11000.0
-1.345,-0.935,11002.777777777777
-1.34,-0.935,11005.555555555555
-1.355,-0.945,11008.333333333334
-1.345,-0.975,11011.111111111111
-1.355,-0.985,11013.888888888889
-1.355,-0.995,11016.666666666666
-1.355,-1.0,11019.444444444445
-1.345,-1.01,11022.222222222223
-1.335,-1.035,11025.0
-1.33,-1.03,11027.777777777777
-1.305,-1.02,11030.555555555555
-1.285,-1.0,11033.333333333334
-1.245,-1.0,11036.111111111111
-1.215,-0.97,11038.888888888889
-1.165,-0.945,11041.666666666666
-1.13,-0.93,11044.444444444445
-1.105,-0.92,11047.222222222223
-1.06,-0.895,11050.0
-1.035,-0.89,11052.777777777777
-1.015,-0.87,11055.555555555555
-0.995,-0.835,11058.333333333334
-0.965,-0.82,11061.111111111111
-0.94,-0.795,11063.888888888889
-0.905,-0.765,11066.666666666666
-0.87,-0.74,11069.444444444445
-0.835,-0.715,11072.222222222223
-0.825,-0.69,11075.0
-0.79,-0.68,11077.777777777777
-0.765,-0.665,11080.555555555555
-0.75,-0.655,11083.333333333334
-0.735,-0.635,11086.111111111111
-0.71,-0.63,11088.888888888889
-0.715,-0.62,11091.666666666666
-0.675,-0.615,11094.444444444445
-0.66,-0.585,11097.222222222223
-0.645,-0.575,11100.0
-0.625,-0.565,11102.777777777777
-0.615,-0.555,11105.555555555555
-0.61,-0.54,11108.333333333334
-0.6,-0.53,11111.111111111111
-0.615,-0.535,11113.888888888889
-0.62,-0.53,11116.666666666666
-0.615,-0.535,11119.444444444445
-0.62,-0.555,11122.222222222223
-0.625,-0.55,11125.0
-0.64,-0.55,11127.777777777777
-0.64,-0.545,11130.555555555555
-0.655,-0.535,11133.333333333334
-0.645,-0.53,11136.111111111111
-0.645,-0.52,11138.888888888889
-0.655,-0.505,11141.666666666666
