MLII,V1,time_ms
-0.69,-0.38,0.0
-0.69,-0.38,2.7777777777777777
-0.69,-0.38,5.555555555555555
-0.69,-0.38,8.333333333333334
-0.69,-0.38,11.11111111111111
-0.69,-0.38,13.88888888888889
-0.69,-0.38,16.666666666666668
-0.67,-0.38,19.444444444444443
-0.635,-0.38,22.22222222222222
-0.6,-0.385,25.0
-0.535,-0.385,27.77777777777778
-0.42,-0.35,30.555555555555557
-0.24,-0.32,33.333333333333336
0.02,-0.28,36.111111111111114
0.375,-0.23,38.888888888888886
0.77,-0.22,41.666666666666664
1.13,-0.24,44.44444444444444
1.375,-0.33,47.22222222222222
1.435,-0.475,50.0
1.225,-0.645,52.77777777777778
0.72,-0.865,55.55555555555556
0.08,-1.04,58.333333333333336
-0.56,-1.16,61.111111111111114
-1.2,-1.155,63.888888888888886
-1.685,-1.07,66.66666666666667
-1.61,-0.94,69.44444444444444
-1.355,-0.8,72.22222222222223
-1.1,-0.675,75.0
-0.91,-0.58,77.77777777777777
-0.815,-0.515,80.55555555555556
-0.79,-0.49,83.33333333333333
-0.82,-0.465,86.11111111111111
-0.845,-0.45,88.88888888888889
-0.865,-0.44,91.66666666666667
-0.865,-0.43,94.44444444444444
-0.87,-0.42,97.22222222222223
-0.87,-0.415,100.0
-0.87,-0.4,102.77777777777777
-0.865,-0.385,105.55555555555556
-0.865,-0.37,108.33333333333333
-0.87,-0.36,111.11111111111111
-0.855,-0.345,113.88888888888889
-0.86,-0.35,116.66666666666667
-0.86,-0.355,119.44444444444444
-0.86,-0.355,122.22222222222223
-0.865,-0.365,125.0
-0.865,-0.36,127.77777777777777
-0.87,-0.355,130.55555555555554
-0.86,-0.345,133.33333333333334
-0.85,-0.36,136.11111111111111
-0.855,-0.345,138.88888888888889
-0.82,-0.34,141.66666666666666
-0.815,-0.345,144.44444444444446
-0.815,-0.32,147.22222222222223
-0.815,-0.33,150.0
-0.815,-0.325,152.77777777777777
-0.805,-0.335,155.55555555555554
-0.795,-0.325,158.33333333333334
-0.79,-0.34,161.11111111111111
-0.8,-0.35,163.88888888888889
-0.8,-0.345,166.66666666666666
-0.79,-0.345,169.44444444444446
-0.775,-0.335,172.22222222222223
-0.775,-0.325,175.0
-0.765,-0.315,177.77777777777777
-0.755,-0.31,180.55555555555554
-0.75,-0.305,183.33333333333334
-0.745,-0.315,186.11111111111111
-0.74,-0.335,188.88888888888889
-0.735,-0.34,191.66666666666666
-0.735,-0.335,194.44444444444446
-0.74,-0.335,197.22222222222223
-0.755,-0.32,200.0
-0.74,-0.325,202.77777777777777
-0.73,-0.31,205.55555555555554
-0.72,-0.305,208.33333333333334
-0.71,-0.32,211.11111111111111
-0.695,-0.315,213.88888888888889
-0.69,-0.32,216.66666666666666
-0.675,-0.315,219.44444444444446
-0.675,-0.33,222.22222222222223
-0.68,-0.32,225.0
-0.675,-0.32,227.77777777777777
-0.67,-0.32,230.55555555555554
-0.67,-0.325,233.33333333333334
-0.67,-0.325,236.11111111111111
-0.655,-0.315,238.88888888888889
-0.65,-0.315,241.66666666666666
-0.635,-0.305,244.44444444444446
-0.63,-0.3,247.22222222222223
-0.62,-0.3,250.0
-0.615,-0.305,252.77777777777777
-0.605,-0.305,255.55555555555554
-0.595,-0.32,258.3333333333333
-0.6,-0.315,261.1111111111111
-0.595,-0.32,263.8888888888889
-0.595,-0.32,266.6666666666667
-0.59,-0.3,269.44444444444446
-0.58,-0.29,272.22222222222223
-0.575,-0.285,275.0
-0.565,-0.275,277.77777777777777
-0.55,-0.28,280.55555555555554
-0.55,-0.295,283.3333333333333
-0.55,-0.305,286.1111111111111
-0.55,-0.31,288.8888888888889
-0.56,-0.31,291.6666666666667
-0.55,-0.32,294.44444444444446
-0.555,-0.315,297.22222222222223
-0.555,-0.315,300.0
-0.545,-0.31,302.77777777777777
-0.52,-0.315,305.55555555555554
-0.49,-0.31,308.3333333333333
-0.465,-0.3,311.1111111111111
-0.47,-0.305,313.8888888888889
-0.46,-0.315,316.6666666666667
-0.46,-0.32,319.44444444444446
-0.445,-0.325,322.22222222222223
-0.44,-0.33,325.0
-0.44,-0.355,327.77777777777777
-0.42,-0.35,330.55555555555554
-0.41,-0.36,333.3333333333333
-0.42,-0.37,336.1111111111111
-0.415,-0.36,338.8888888888889
-0.42,-0.35,341.6666666666667
-0.425,-0.36,344.44444444444446
-0.43,-0.355,347.22222222222223
-0.445,-0.375,350.0
-0.46,-0.365,352.77777777777777
-0.48,-0.385,355.55555555555554
-0.495,-0.405,358.3333333333333
-0.515,-0.405,361.1111111111111
-0.545,-0.41,363.8888888888889
-0.55,-0.395,366.6666666666667
-0.58,-0.4,369.44444444444446
-0.59,-0.38,372.22222222222223
-0.595,-0.385,375.0
-0.6,-0.38,377.77777777777777
-0.61,-0.38,380.55555555555554
-0.625,-0.39,383.3333333333333
-0.645,-0.395,386.1111111111111
-0.66,-0.405,388.8888888888889
-0.67,-0.395,391.6666666666667
-0.685,-0.395,394.44444444444446
-0.685,-0.4,397.22222222222223
-0.695,-0.4,400.0
-0.695,-0.395,402.77777777777777
-0.695,-0.39,405.55555555555554
-0.69,-0.385,408.3333333333333
-0.695,-0.375,411.1111111111111
-0.685,-0.37,413.8888888888889
-0.7,-0.375,416.6666666666667
-0.7,-0.385,419.44444444444446
-0.7,-0.39,422.22222222222223
-0.705,-0.4,425.0
-0.705,-0.405,427.77777777777777
-0.715,-0.42,430.55555555555554
-0.715,-0.415,433.3333333333333
-0.715,-0.405,436.1111111111111
-0.715,-0.38,438.8888888888889
-0.71,-0.365,441.6666666666667
-0.7,-0.36,444.44444444444446
-0.685,-0.365,447.22222222222223
-0.68,-0.37,450.0
-0.685,-0.375,452.77777777777777
-0.685,-0.405,455.55555555555554
-0.685,-0.4,458.3333333333333
-0.69,-0.4,461.1111111111111
-0.695,-0.41,463.8888888888889
-0.68,-0.39,466.6666666666667
-0.67,-0.385,469.44444444444446
-0.65,-0.385,472.22222222222223
-0.65,-0.38,475.0
-0.645,-0.365,477.77777777777777
-0.625,-0.35,480.55555555555554
-0.635,-0.37,483.3333333333333
-0.64,-0.365,486.1111111111111
-0.64,-0.38,488.8888888888889
-0.64,-0.385,491.6666666666667
-0.63,-0.4,494.44444444444446
-0.645,-0.4,497.22222222222223
-0.64,-0.4,500.0
-0.645,-0.39,502.77777777777777
-0.635,-0.37,505.55555555555554
-0.635,-0.365,508.3333333333333
-0.625,-0.365,511.1111111111111
-0.615,-0.365,513.8888888888889
-0.615,-0.365,516.6666666666666
-0.61,-0.38,519.4444444444445
-0.62,-0.395,522.2222222222222
-0.64,-0.405,525.0
-0.64,-0.41,527.7777777777778
-0.65,-0.4,530.5555555555555
-0.65,-0.395,533.3333333333334
-0.65,-0.38,536.1111111111111
-0.645,-0.375,538.8888888888889
-0.64,-0.385,541.6666666666666
-0.645,-0.385,544.4444444444445
-0.635,-0.375,547.2222222222222
-0.645,-0.39,550.0
-0.65,-0.39,552.7777777777778
-0.655,-0.39,555.5555555555555
-0.655,-0.385,558.3333333333334
-0.68,-0.405,561.1111111111111
-0.67,-0.405,563.8888888888889
-0.68,-0.4,566.6666666666666
-0.68,-0.395,569.4444444444445
-0.68,-0.385,572.2222222222222
-0.675,-0.365,575.0
-0.67,-0.36,577.7777777777778
-0.675,-0.36,580.5555555555555
-0.67,-0.37,583.3333333333334
-0.675,-0.38,586.1111111111111
-0.675,-0.395,588.8888888888889
-0.675,-0.395,591.6666666666666
-0.685,-0.395,594.4444444444445
-0.7,-0.41,597.2222222222222
-0.705,-0.395,600.0
-0.695,-0.39,602.7777777777778
-0.705,-0.385,605.5555555555555
-0.695,-0.365,608.3333333333334
-0.69,-0.37,611.1111111111111
-0.68,-0.37,613.8888888888889
-0.685,-0.38,616.6666666666666
-0.685,-0.39,619.4444444444445
-0.69,-0.395,622.2222222222222
-0.7,-0.4,625.0
-0.705,-0.4,627.7777777777778
-0.715,-0.405,630.5555555555555
-0.725,-0.4,633.3333333333334
-0.73,-0.4,636.1111111111111
-0.725,-0.39,638.8888888888889
-0.705,-0.395,641.6666666666666
-0.71,-0.385,644.4444444444445
-0.705,-0.365,647.2222222222222
-0.705,-0.37,650.0
-0.695,-0.375,652.7777777777778
-0.71,-0.395,655.5555555555555
-0.715,-0.405,658.3333333333334
-0.72,-0.405,661.1111111111111
-0.725,-0.405,663.8888888888889
-0.73,-0.4,666.6666666666666
-0.74,-0.395,669.4444444444445
-0.73,-0.38,672.2222222222222
-0.725,-0.38,675.0
-0.73,-0.37,677.7777777777778
-0.715,-0.365,680.5555555555555
-0.72,-0.38,683.3333333333334
-0.72,-0.375,686.1111111111111
-0.71,-0.385,688.8888888888889
-0.73,-0.4,691.6666666666666
-0.755,-0.405,694.4444444444445
-0.75,-0.405,697.2222222222222
-0.75,-0.405,700.0
-0.735,-0.4,702.7777777777778
-0.74,-0.385,705.5555555555555
-0.725,-0.38,708.3333333333334
-0.725,-0.365,711.1111111111111
-0.715,-0.37,713.8888888888889
-0.71,-0.38,716.6666666666666
-0.71,-0.385,719.4444444444445
-0.71,-0.39,722.2222222222222
-0.715,-0.4,725.0
-0.71,-0.405,727.7777777777778
-0.715,-0.41,730.5555555555555
-0.71,-0.395,733.3333333333334
-0.71,-0.39,736.1111111111111
-0.7,-0.37,738.8888888888889
-0.67,-0.36,741.6666666666666
-0.655,-0.355,744.4444444444445
-0.63,-0.355,747.2222222222222
-0.62,-0.36,750.0
-0.605,-0.355,752.7777777777778
-0.605,-0.345,755.5555555555555
-0.605,-0.335,758.3333333333334
-0.6,-0.33,761.1111111111111
-0.59,-0.34,763.8888888888889
-0.58,-0.35,766.6666666666666
-0.57,-0.365,769.4444444444445
-0.57,-0.38,772.2222222222222
-0.58,-0.4,775.0
-0.605,-0.415,777.7777777777778
-0.6,-0.42,780.5555555555555
-0.61,-0.41,783.3333333333334
-0.62,-0.425,786.1111111111111
-0.615,-0.43,788.8888888888889
-0.635,-0.425,791.6666666666666
-0.64,-0.435,794.4444444444445
-0.65,-0.43,797.2222222222222
-0.66,-0.42,800.0
-0.67,-0.405,802.7777777777778
-0.69,-0.38,805.5555555555555
-0.695,-0.375,808.3333333333334
-0.7,-0.37,811.1111111111111
-0.7,-0.365,813.8888888888889
-0.7,-0.385,816.6666666666666
-0.71,-0.395,819.4444444444445
-0.715,-0.405,822.2222222222222
-0.72,-0.405,825.0
-0.725,-0.42,827.7777777777778
-0.725,-0.42,830.5555555555555
-0.725,-0.42,833.3333333333334
-0.73,-0.405,836.1111111111111
-0.705,-0.4,838.8888888888889
-0.695,-0.39,841.6666666666666
-0.68,-0.375,844.4444444444445
-0.63,-0.38,847.2222222222222
-0.59,-0.365,850.0
-0.515,-0.34,852.7777777777778
-0.36,-0.3,855.5555555555555
-0.1,-0.26,858.3333333333334
0.245,-0.22,861.1111111111111
0.675,-0.215,863.8888888888889
1.07,-0.25,866.6666666666666
1.355,-0.345,869.4444444444445
1.45,-0.47,872.2222222222222
1.3,-0.655,875.0
0.86,-0.835,877.7777777777778
0.22,-1.02,880.5555555555555
-0.42,-1.15,883.3333333333334
-1.06,-1.2,886.1111111111111
-1.485,-1.17,888.8888888888889
-1.52,-1.07,891.6666666666666
-1.345,-0.95,894.4444444444445
-1.115,-0.835,897.2222222222222
-0.94,-0.72,900.0
-0.825,-0.625,902.7777777777778
-0.815,-0.56,905.5555555555555
-0.83,-0.515,908.3333333333334
-0.835,-0.48,911.1111111111111
-0.845,-0.45,913.8888888888889
-0.835,-0.435,916.6666666666666
-0.84,-0.415,919.4444444444445
-0.835,-0.395,922.2222222222222
-0.83,-0.4,925.0
-0.84,-0.39,927.7777777777778
-0.845,-0.39,930.5555555555555
-0.86,-0.385,933.3333333333334
-0.865,-0.38,936.1111111111111
-0.855,-0.375,938.8888888888889
-0.875,-0.345,941.6666666666666
-0.865,-0.335,944.4444444444445
-0.85,-0.32,947.2222222222222
-0.845,-0.325,950.0
-0.845,-0.335,952.7777777777778
-0.85,-0.35,955.5555555555555
-0.84,-0.365,958.3333333333334
-0.84,-0.36,961.1111111111111
-0.845,-0.36,963.8888888888889
-0.84,-0.345,966.6666666666666
-0.835,-0.34,969.4444444444445
-0.83,-0.325,972.2222222222222
-0.815,-0.33,975.0
-0.805,-0.31,977.7777777777778
-0.795,-0.315,980.5555555555555
-0.775,-0.325,983.3333333333334
-0.785,-0.33,986.1111111111111
-0.8,-0.33,988.8888888888889
-0.795,-0.33,991.6666666666666
-0.795,-0.335,994.4444444444445
-0.79,-0.34,997.2222222222222
-0.78,-0.34,1000.0
-0.775,-0.33,1002.7777777777778
-0.775,-0.325,1005.5555555555555
-0.775,-0.315,1008.3333333333334
-0.76,-0.315,1011.1111111111111
-0.74,-0.3,1013.8888888888889
-0.735,-0.305,1016.6666666666666
-0.735,-0.295,1019.4444444444445
-0.73,-0.305,1022.2222222222222
-0.73,-0.31,1025.0
-0.72,-0.33,1027.7777777777778
-0.73,-0.335,1030.5555555555557
-0.73,-0.33,1033.3333333333333
-0.73,-0.335,1036.111111111111
-0.71,-0.31,1038.888888888889
-0.705,-0.305,1041.6666666666667
-0.69,-0.295,1044.4444444444443
-0.67,-0.3,1047.2222222222222
-0.655,-0.305,1050.0
-0.655,-0.31,1052.7777777777778
-0.65,-0.32,1055.5555555555557
-0.65,-0.32,1058.3333333333333
-0.66,-0.32,1061.111111111111
-0.655,-0.325,1063.888888888889
-0.635,-0.315,1066.6666666666667
-0.64,-0.32,1069.4444444444443
-0.635,-0.31,1072.2222222222222
-0.61,-0.315,1075.0
-0.605,-0.295,1077.7777777777778
-0.59,-0.29,1080.5555555555557
-0.595,-0.285,1083.3333333333333
-0.585,-0.285,1086.111111111111
-0.57,-0.29,1088.888888888889
-0.57,-0.31,1091.6666666666667
-0.575,-0.32,1094.4444444444443
-0.575,-0.33,1097.2222222222222
-0.585,-0.32,1100.0
-0.585,-0.305,1102.7777777777778
-0.575,-0.29,1105.5555555555557
-0.575,-0.285,1108.3333333333333
-0.555,-0.29,1111.111111111111
-0.545,-0.285,1113.888888888889
-0.535,-0.285,1116.6666666666667
-0.525,-0.295,1119.4444444444443
-0.52,-0.305,1122.2222222222222
-0.525,-0.305,1125.0
-0.525,-0.32,1127.7777777777778
-0.505,-0.32,1130.5555555555557
-0.515,-0.315,1133.3333333333333
-0.495,-0.315,1136.111111111111
-0.475,-0.31,1138.888888888889
-0.465,-0.315,1141.6666666666667
-0.445,-0.315,1144.4444444444443
-0.435,-0.31,1147.2222222222222
-0.42,-0.335,1150.0
-0.41,-0.31,1152.7777777777778
-0.4,-0.345,1155.5555555555557
-0.395,-0.35,1158.3333333333333
-0.405,-0.365,1161.111111111111
-0.415,-0.38,1163.888888888889
-0.415,-0.395,1166.6666666666667
-0.42,-0.395,1169.4444444444443
-0.44,-0.395,1172.2222222222222
-0.44,-0.385,1175.0
-0.46,-0.38,1177.7777777777778
-0.47,-0.37,1180.5555555555557
-0.48,-0.37,1183.3333333333333
-0.5,-0.375,1186.111111111111
-0.51,-0.39,1188.888888888889
-0.545,-0.4,1191.6666666666667
-0.575,-0.42,1194.4444444444443
-0.59,-0.415,1197.2222222222222
-0.61,-0.405,1200.0
-0.625,-0.395,1202.7777777777778
-0.645,-0.395,1205.5555555555557
-0.64,-0.39,1208.3333333333333
-0.64,-0.39,1211.111111111111
-0.63,-0.375,1213.888888888889
-0.63,-0.39,1216.6666666666667
-0.645,-0.385,1219.4444444444443
-0.65,-0.4,1222.2222222222222
-0.66,-0.41,1225.0
-0.68,-0.4,1227.7777777777778
-0.705,-0.4,1230.5555555555557
-0.71,-0.405,1233.3333333333333
-0.705,-0.4,1236.111111111111
-0.7,-0.395,1238.888888888889
-0.695,-0.395,1241.6666666666667
-0.7,-0.39,1244.4444444444443
-0.68,-0.395,1247.2222222222222
-0.69,-0.38,1250.0
-0.7,-0.38,1252.7777777777778
-0.705,-0.385,1255.5555555555557
-0.705,-0.385,1258.3333333333333
-0.725,-0.4,1261.111111111111
-0.72,-0.41,1263.888888888889
-0.72,-0.405,1266.6666666666667
-0.705,-0.4,1269.4444444444443
-0.69,-0.39,1272.2222222222222
-0.685,-0.385,1275.0
-0.68,-0.38,1277.7777777777778
-0.67,-0.37,1280.5555555555557
-0.67,-0.38,1283.3333333333333
-0.66,-0.38,1286.111111111111
-0.66,-0.39,1288.888888888889
-0.665,-0.395,1291.6666666666667
-0.66,-0.395,1294.4444444444443
-0.67,-0.4,1297.2222222222222
-0.665,-0.395,1300.0
-0.66,-0.385,1302.7777777777778
-0.645,-0.385,1305.5555555555557
-0.63,-0.395,1308.3333333333333
-0.625,-0.385,1311.111111111111
-0.625,-0.38,1313.888888888889
-0.615,-0.375,1316.6666666666667
-0.63,-0.38,1319.4444444444443
-0.625,-0.37,1322.2222222222222
-0.64,-0.38,1325.0
-0.63,-0.385,1327.7777777777778
-0.63,-0.405,1330.5555555555557
-0.635,-0.405,1333.3333333333333
-0.63,-0.4,1336.111111111111
-0.62,-0.395,1338.888888888889
-0.625,-0.38,1341.6666666666667
-0.63,-0.365,1344.4444444444443
-0.615,-0.36,1347.2222222222222
-0.61,-0.375,1350.0
-0.615,-0.38,1352.7777777777778
-0.62,-0.385,1355.5555555555557
-0.625,-0.395,1358.3333333333333
-0.64,-0.4,1361.111111111111
-0.645,-0.4,1363.888888888889
-0.65,-0.395,1366.6666666666667
-0.65,-0.39,1369.4444444444443
-0.645,-0.375,1372.2222222222222
-0.645,-0.375,1375.0
-0.64,-0.38,1377.7777777777778
-0.63,-0.38,1380.5555555555557
-0.635,-0.38,1383.3333333333333
-0.65,-0.385,1386.111111111111
-0.655,-0.38,1388.888888888889
-0.675,-0.395,1391.6666666666667
-0.695,-0.39,1394.4444444444443
-0.685,-0.395,1397.2222222222222
-0.695,-0.385,1400.0
-0.705,-0.39,1402.7777777777778
-0.705,-0.39,1405.5555555555557
-0.69,-0.385,1408.3333333333333
-0.685,-0.375,1411.111111111111
-0.685,-0.365,1413.888888888889
-0.68,-0.38,1416.6666666666667
-0.68,-0.375,1419.4444444444443
-0.7,-0.38,1422.2222222222222
-0.71,-0.385,1425.0
-0.72,-0.4,1427.7777777777778
-0.72,-0.405,1430.5555555555557
-0.725,-0.405,1433.3333333333333
-0.725,-0.395,1436.111111111111
-0.73,-0.395,1438.888888888889
-0.74,-0.38,1441.6666666666667
-0.715,-0.375,1444.4444444444443
-0.71,-0.365,1447.2222222222222
-0.71,-0.37,1450.0
-0.715,-0.38,1452.7777777777778
-0.715,-0.39,1455.5555555555557
-0.725,-0.395,1458.3333333333333
-0.74,-0.41,1461.111111111111
-0.755,-0.405,1463.888888888889
-0.755,-0.385,1466.6666666666667
-0.745,-0.375,1469.4444444444443
-0.75,-0.375,1472.2222222222222
-0.74,-0.365,1475.0
-0.73,-0.38,1477.7777777777778
-0.725,-0.37,1480.5555555555557
-0.71,-0.38,1483.3333333333333
-0.715,-0.37,1486.111111111111
-0.73,-0.38,1488.888888888889
-0.74,-0.38,1491.6666666666667
-0.755,-0.39,1494.4444444444443
-0.75,-0.41,1497.2222222222222
-0.755,-0.4,1500.0
-0.76,-0.395,1502.7777777777778
-0.76,-0.405,1505.5555555555557
-0.75,-0.385,1508.3333333333333
-0.755,-0.38,1511.111111111111
-0.74,-0.37,1513.888888888889
-0.73,-0.375,1516.6666666666667
-0.715,-0.375,1519.4444444444443
-0.715,-0.395,1522.2222222222222
-0.725,-0.4,1525.0
-0.73,-0.415,1527.7777777777778
-0.74,-0.395,1530.5555555555557
-0.745,-0.39,1533.3333333333333
-0.755,-0.385,1536.111111111111
-0.745,-0.385,1538.888888888889
-0.735,-0.365,1541.6666666666667
-0.745,-0.37,1544.4444444444443
-0.73,-0.365,1547.2222222222222
-0.73,-0.375,1550.0
-0.725,-0.39,1552.7777777777778
-0.72,-0.385,1555.5555555555557
-0.725,-0.385,1558.3333333333333
-0.725,-0.39,1561.111111111111
-0.735,-0.39,1563.888888888889
-0.725,-0.38,1566.6666666666667
-0.71,-0.4,1569.4444444444443
-0.695,-0.38,1572.2222222222222
-0.68,-0.385,1575.0
-0.665,-0.365,1577.7777777777778
-0.65,-0.34,1580.5555555555557
-0.64,-0.345,1583.3333333333333
-0.63,-0.33,1586.111111111111
-0.615,-0.335,1588.888888888889
-0.61,-0.34,1591.6666666666667
-0.6,-0.335,1594.4444444444443
-0.595,-0.355,1597.2222222222222
-0.6,-0.35,1600.0
-0.6,-0.36,1602.7777777777778
-0.6,-0.37,1605.5555555555557
-0.605,-0.365,1608.3333333333333
-0.625,-0.39,1611.111111111111
-0.63,-0.395,1613.888888888889
-0.635,-0.405,1616.6666666666667
-0.645,-0.42,1619.4444444444443
-0.645,-0.43,1622.2222222222222
-0.635,-0.43,1625.0
-0.645,-0.425,1627.7777777777778
-0.655,-0.42,1630.5555555555557
-0.67,-0.41,1633.3333333333333
-0.66,-0.405,1636.111111111111
-0.68,-0.38,1638.888888888889
-0.695,-0.375,1641.6666666666667
-0.705,-0.37,1644.4444444444443
-0.71,-0.38,1647.2222222222222
-0.72,-0.365,1650.0
-0.73,-0.385,1652.7777777777778
-0.735,-0.385,1655.5555555555557
-0.74,-0.405,1658.3333333333333
-0.75,-0.415,1661.111111111111
-0.74,-0.41,1663.888888888889
-0.745,-0.41,1666.6666666666667
-0.715,-0.42,1669.4444444444443
-0.7,-0.405,1672.2222222222222
-0.665,-0.38,1675.0
-0.625,-0.36,1677.7777777777778
-0.56,-0.35,1680.5555555555557
-0.47,-0.335,1683.3333333333333
-0.325,-0.305,1686.111111111111
-0.075,-0.285,1688.888888888889
0.23,-0.26,1691.6666666666667
0.625,-0.235,1694.4444444444443
0.995,-0.245,1697.2222222222222
1.295,-0.29,1700.0
1.44,-0.37,1702.7777777777778
1.405,-0.51,1705.5555555555557
1.16,-0.655,1708.3333333333333
0.675,-0.81,1711.111111111111
0.035,-0.97,1713.888888888889
-0.605,-1.085,1716.6666666666667
-1.245,-1.115,1719.4444444444443
-1.59,-1.085,1722.2222222222222
-1.585,-0.99,1725.0
-1.375,-0.88,1727.7777777777778
-1.165,-0.785,1730.5555555555557
-0.985,-0.68,1733.3333333333333
-0.885,-0.605,1736.111111111111
-0.855,-0.545,1738.888888888889
-0.87,-0.505,1741.6666666666667
-0.885,-0.48,1744.4444444444443
-0.885,-0.435,1747.2222222222222
-0.87,-0.415,1750.0
-0.84,-0.4,1752.7777777777778
-0.835,-0.4,1755.5555555555557
-0.835,-0.395,1758.3333333333333
-0.845,-0.41,1761.111111111111
-0.86,-0.41,1763.888888888889
-0.875,-0.4,1766.6666666666667
-0.89,-0.385,1769.4444444444443
-0.88,-0.36,1772.2222222222222
-0.875,-0.34,1775.0
-0.865,-0.34,1777.7777777777778
-0.855,-0.34,1780.5555555555557
-0.835,-0.34,1783.3333333333333
-0.845,-0.345,1786.111111111111
-0.85,-0.355,1788.888888888889
-0.86,-0.355,1791.6666666666667
-0.865,-0.35,1794.4444444444443
-0.87,-0.36,1797.2222222222222
-0.86,-0.345,1800.0
-0.86,-0.345,1802.7777777777778
-0.85,-0.34,1805.5555555555557
-0.835,-0.335,1808.3333333333333
-0.825,-0.33,1811.111111111111
-0.81,-0.335,1813.888888888889
-0.8,-0.33,1816.6666666666667
-0.8,-0.32,1819.4444444444443
-0.805,-0.325,1822.2222222222222
-0.81,-0.325,1825.0
-0.815,-0.33,1827.7777777777778
-0.81,-0.345,1830.5555555555557
-0.805,-0.335,1833.3333333333333
-0.8,-0.34,1836.111111111111
-0.79,-0.345,1838.888888888889
-0.78,-0.33,1841.6666666666667
-0.775,-0.33,1844.4444444444443
-0.76,-0.315,1847.2222222222222
-0.755,-0.31,1850.0
-0.745,-0.315,1852.7777777777778
-0.745,-0.325,1855.5555555555557
-0.73,-0.33,1858.3333333333333
-0.72,-0.34,1861.111111111111
-0.725,-0.33,1863.888888888889
-0.73,-0.34,1866.6666666666667
-0.715,-0.335,1869.4444444444443
-0.715,-0.31,1872.2222222222222
-0.705,-0.29,1875.0
-0.705,-0.3,1877.7777777777778
-0.685,-0.3,1880.5555555555557
-0.685,-0.315,1883.3333333333333
-0.675,-0.325,1886.111111111111
-0.675,-0.325,1888.888888888889
-0.675,-0.315,1891.6666666666667
-0.675,-0.32,1894.4444444444443
-0.67,-0.315,1897.2222222222222
-0.665,-0.315,1900.0
-0.65,-0.305,1902.7777777777778
-0.64,-0.315,1905.5555555555557
-0.63,-0.305,1908.3333333333333
-0.625,-0.32,1911.111111111111
-0.615,-0.3,1913.888888888889
-0.615,-0.3,1916.6666666666667
-0.61,-0.3,1919.4444444444443
-0.6,-0.285,1922.2222222222222
-0.6,-0.31,1925.0
-0.61,-0.315,1927.7777777777778
-0.605,-0.325,1930.5555555555557
-0.605,-0.33,1933.3333333333333
-0.595,-0.315,1936.111111111111
-0.605,-0.31,1938.888888888889
-0.605,-0.29,1941.6666666666667
-0.595,-0.275,1944.4444444444443
-0.575,-0.265,1947.2222222222222
-0.565,-0.28,1950.0
-0.565,-0.29,1952.7777777777778
-0.575,-0.285,1955.5555555555557
-0.575,-0.31,1958.3333333333333
-0.58,-0.32,1961.111111111111
-0.585,-0.315,1963.888888888889
-0.585,-0.315,1966.6666666666667
-0.57,-0.3,1969.4444444444443
-0.56,-0.295,1972.2222222222222
-0.55,-0.285,1975.0
-0.54,-0.29,1977.7777777777778
-0.52,-0.29,1980.5555555555557
-0.495,-0.29,1983.3333333333333
-0.485,-0.29,1986.111111111111
-0.49,-0.315,1988.888888888889
-0.49,-0.315,1991.6666666666667
-0.47,-0.315,1994.4444444444443
-0.475,-0.325,1997.2222222222222
-0.48,-0.325,2000.0
-0.47,-0.345,2002.7777777777778
-0.44,-0.34,2005.5555555555557
-0.42,-0.34,2008.3333333333333
-0.43,-0.345,2011.111111111111
-0.42,-0.35,2013.888888888889
-0.435,-0.355,2016.6666666666667
-0.455,-0.36,2019.4444444444443
-0.485,-0.37,2022.2222222222222
-0.505,-0.37,2025.0
-0.515,-0.39,2027.7777777777778
-0.53,-0.39,2030.5555555555557
-0.555,-0.395,2033.3333333333333
-0.585,-0.395,2036.111111111111
-0.595,-0.375,2038.888888888889
-0.62,-0.365,2041.6666666666667
-0.605,-0.37,2044.4444444444443
-0.615,-0.37,2047.2222222222222
-0.62,-0.37,2050.0
-0.63,-0.39,2052.777777777778
-0.635,-0.395,2055.5555555555557
-0.645,-0.395,2058.3333333333335
-0.665,-0.41,2061.1111111111113
-0.68,-0.4,2063.8888888888887
-0.69,-0.4,2066.6666666666665
-0.705,-0.38,2069.4444444444443
-0.705,-0.38,2072.222222222222
-0.71,-0.375,2075.0
-0.715,-0.375,2077.777777777778
-0.705,-0.375,2080.5555555555557
-0.695,-0.39,2083.3333333333335
-0.715,-0.385,2086.1111111111113
-0.71,-0.39,2088.8888888888887
-0.715,-0.395,2091.6666666666665
-0.73,-0.4,2094.4444444444443
-0.725,-0.41,2097.222222222222
-0.73,-0.4,2100.0
-0.72,-0.385,2102.777777777778
-0.72,-0.385,2105.5555555555557
-0.72,-0.37,2108.3333333333335
-0.705,-0.36,2111.1111111111113
-0.695,-0.355,2113.8888888888887
-0.69,-0.375,2116.6666666666665
-0.69,-0.365,2119.4444444444443
-0.68,-0.395,2122.222222222222
-0.675,-0.395,2125.0
-0.675,-0.405,2127.777777777778
-0.68,-0.405,2130.5555555555557
-0.68,-0.39,2133.3333333333335
-0.68,-0.385,2136.1111111111113
-0.675,-0.37,2138.8888888888887
-0.67,-0.36,2141.6666666666665
-0.66,-0.365,2144.4444444444443
-0.645,-0.355,2147.222222222222
-0.635,-0.37,2150.0
-0.635,-0.385,2152.777777777778
-0.64,-0.375,2155.5555555555557
-0.65,-0.385,2158.3333333333335
-0.655,-0.39,2161.1111111111113
-0.655,-0.38,2163.8888888888887
-0.65,-0.385,2166.6666666666665
-0.645,-0.38,2169.4444444444443
-0.64,-0.385,2172.222222222222
-0.625,-0.365,2175.0
-0.605,-0.37,2177.777777777778
-0.6,-0.36,2180.5555555555557
-0.595,-0.355,2183.3333333333335
-0.61,-0.35,2186.1111111111113
-0.61,-0.365,2188.8888888888887
-0.625,-0.37,2191.6666666666665
-0.63,-0.385,2194.4444444444443
-0.635,-0.4,2197.222222222222
-0.65,-0.4,2200.0
-0.655,-0.385,2202.777777777778
-0.645,-0.385,2205.5555555555557
-0.65,-0.375,2208.3333333333335
-0.64,-0.355,2211.1111111111113
-0.64,-0.365,2213.8888888888887
-0.625,-0.36,2216.6666666666665
-0.62,-0.365,2219.4444444444443
-0.62,-0.395,2222.222222222222
-0.635,-0.395,2225.0
-0.645,-0.405,2227.777777777778
-0.66,-0.405,2230.5555555555557
-0.675,-0.395,2233.3333333333335
-0.685,-0.385,2236.1111111111113
-0.685,-0.375,2238.8888888888887
-0.68,-0.37,2241.6666666666665
-0.675,-0.365,2244.4444444444443
-0.68,-0.37,2247.222222222222
-0.675,-0.37,2250.0
-0.675,-0.37,2252.777777777778
-0.69,-0.385,2255.5555555555557
-0.695,-0.38,2258.3333333333335
-0.695,-0.385,2261.1111111111113
-0.695,-0.385,2263.8888888888887
-0.695,-0.395,2266.6666666666665
-0.705,-0.405,2269.4444444444443
-0.715,-0.39,2272.222222222222
-0.715,-0.385,2275.0
-0.7,-0.375,2277.777777777778
-0.695,-0.37,2280.5555555555557
-0.7,-0.37,2283.3333333333335
-0.7,-0.36,2286.1111111111113
-0.715,-0.365,2288.8888888888887
-0.725,-0.39,2291.6666666666665
-0.72,-0.4,2294.4444444444443
-0.725,-0.405,2297.222222222222
-0.75,-0.405,2300.0
-0.745,-0.395,2302.777777777778
-0.73,-0.38,2305.5555555555557
-0.73,-0.37,2308.3333333333335
-0.73,-0.365,2311.1111111111113
-0.705,-0.35,2313.8888888888887
-0.72,-0.365,2316.6666666666665
-0.72,-0.385,2319.4444444444443
-0.72,-0.385,2322.222222222222
-0.73,-0.395,2325.0
-0.735,-0.395,2327.777777777778
-0.745,-0.39,2330.5555555555557
-0.745,-0.39,2333.3333333333335
-0.74,-0.39,2336.1111111111113
-0.74,-0.39,2338.8888888888887
-0.74,-0.39,2341.6666666666665
-0.735,-0.38,2344.4444444444443
-0.725,-0.365,2347.222222222222
-0.725,-0.365,2350.0
-0.72,-0.365,2352.777777777778
-0.73,-0.375,2355.5555555555557
-0.73,-0.385,2358.3333333333335
-0.745,-0.395,2361.1111111111113
-0.745,-0.4,2363.8888888888887
-0.755,-0.4,2366.6666666666665
-0.75,-0.4,2369.4444444444443
-0.75,-0.39,2372.222222222222
-0.755,-0.38,2375.0
-0.735,-0.37,2377.777777777778
-0.71,-0.355,2380.5555555555557
-0.71,-0.36,2383.3333333333335
-0.705,-0.375,2386.1111111111113
-0.71,-0.375,2388.8888888888887
-0.72,-0.385,2391.6666666666665
-0.72,-0.395,2394.4444444444443
-0.735,-0.41,2397.222222222222
-0.745,-0.395,2400.0
-0.73,-0.395,2402.777777777778
-0.72,-0.38,2405.5555555555557
-0.71,-0.38,2408.3333333333335
-0.705,-0.37,2411.1111111111113
-0.68,-0.375,2413.8888888888887
-0.665,-0.365,2416.6666666666665
-0.65,-0.37,2419.4444444444443
-0.65,-0.37,2422.222222222222
-0.64,-0.375,2425.0
-0.62,-0.36,2427.777777777778
-0.625,-0.365,2430.5555555555557
-0.61,-0.35,2433.3333333333335
-0.595,-0.345,2436.1111111111113
-0.595,-0.34,2438.8888888888887
-0.575,-0.33,2441.6666666666665
-0.565,-0.34,2444.4444444444443
-0.56,-0.35,2447.222222222222
-0.575,-0.36,2450.0
-0.595,-0.385,2452.777777777778
-0.605,-0.405,2455.5555555555557
-0.625,-0.43,2458.3333333333335
-0.635,-0.435,2461.1111111111113
-0.64,-0.445,2463.8888888888887
-0.64,-0.43,2466.6666666666665
-0.635,-0.42,2469.4444444444443
-0.64,-0.415,2472.222222222222
-0.64,-0.4,2475.0
-0.65,-0.385,2477.777777777778
-0.665,-0.38,2480.5555555555557
-0.665,-0.38,2483.3333333333335
-0.685,-0.375,2486.1111111111113
-0.71,-0.39,2488.8888888888887
-0.72,-0.39,2491.6666666666665
-0.74,-0.39,2494.4444444444443
-0.745,-0.4,2497.222222222222
-0.745,-0.415,2500.0
-0.73,-0.405,2502.777777777778
-0.715,-0.395,2505.5555555555557
-0.705,-0.395,2508.3333333333335
-0.71,-0.395,2511.1111111111113
-0.695,-0.385,2513.8888888888887
-0.66,-0.375,2516.6666666666665
-0.63,-0.375,2519.4444444444443
-0.585,-0.37,2522.222222222222
-0.53,-0.36,2525.0
-0.43,-0.35,2527.777777777778
-0.25,-0.34,2530.5555555555557
0.01,-0.28,2533.3333333333335
0.34,-0.25,2536.1111111111113
0.745,-0.215,2538.8888888888887
1.14,-0.225,2541.6666666666665
1.39,-0.3,2544.4444444444443
1.48,-0.405,2547.222222222222
1.33,-0.57,2550.0
0.89,-0.745,2552.777777777778
0.25,-0.915,2555.5555555555557
-0.39,-1.05,2558.3333333333335
-1.03,-1.095,2561.1111111111113
-1.67,-1.055,2563.8888888888887
-1.7,-0.97,2566.6666666666665
-1.495,-0.865,2569.4444444444443
-1.22,-0.755,2572.222222222222
-0.99,-0.66,2575.0
-0.87,-0.58,2577.777777777778
-0.825,-0.525,2580.5555555555557
-0.84,-0.5,2583.3333333333335
-0.865,-0.46,2586.1111111111113
-0.875,-0.455,2588.8888888888887
-0.865,-0.435,2591.6666666666665
-0.835,-0.425,2594.4444444444443
-0.82,-0.43,2597.222222222222
-0.815,-0.41,2600.0
-0.83,-0.4,2602.777777777778
-0.835,-0.39,2605.5555555555557
-0.835,-0.365,2608.3333333333335
-0.84,-0.345,2611.1111111111113
-0.84,-0.34,2613.8888888888887
-0.83,-0.36,2616.6666666666665
-0.825,-0.355,2619.4444444444443
-0.83,-0.36,2622.222222222222
-0.845,-0.365,2625.0
-0.845,-0.37,2627.777777777778
-0.84,-0.355,2630.5555555555557
-0.84,-0.355,2633.3333333333335
-0.83,-0.35,2636.1111111111113
-0.825,-0.345,2638.8888888888887
-0.8,-0.355,2641.6666666666665
-0.795,-0.345,2644.4444444444443
-0.785,-0.325,2647.222222222222
-0.78,-0.33,2650.0
-0.795,-0.32,2652.777777777778
-0.8,-0.325,2655.5555555555557
-0.8,-0.32,2658.3333333333335
-0.79,-0.33,2661.1111111111113
-0.785,-0.35,2663.8888888888887
-0.79,-0.355,2666.6666666666665
-0.785,-0.345,2669.4444444444443
-0.79,-0.35,2672.222222222222
-0.77,-0.345,2675.0
-0.765,-0.32,2677.777777777778
-0.755,-0.305,2680.5555555555557
-0.745,-0.31,2683.3333333333335
-0.725,-0.325,2686.1111111111113
-0.725,-0.33,2688.8888888888887
-0.725,-0.34,2691.6666666666665
-0.73,-0.335,2694.4444444444443
-0.73,-0.35,2697.222222222222
-0.725,-0.345,2700.0
-0.715,-0.335,2702.777777777778
-0.705,-0.315,2705.5555555555557
-0.695,-0.33,2708.3333333333335
-0.685,-0.32,2711.1111111111113
-0.67,-0.32,2713.8888888888887
-0.66,-0.32,2716.6666666666665
-0.645,-0.325,2719.4444444444443
-0.64,-0.32,2722.222222222222
-0.645,-0.315,2725.0
-0.65,-0.305,2727.777777777778
-0.64,-0.33,2730.5555555555557
-0.64,-0.33,2733.3333333333335
-0.635,-0.335,2736.1111111111113
-0.62,-0.335,2738.8888888888887
-0.615,-0.32,2741.6666666666665
-0.62,-0.31,2744.4444444444443
-0.61,-0.295,2747.222222222222
-0.6,-0.295,2750.0
-0.605,-0.295,2752.777777777778
-0.595,-0.31,2755.5555555555557
-0.595,-0.31,2758.3333333333335
-0.595,-0.325,2761.1111111111113
-0.595,-0.335,2763.8888888888887
-0.59,-0.33,2766.6666666666665
-0.58,-0.325,2769.4444444444443
-0.57,-0.32,2772.222222222222
-0.555,-0.29,2775.0
-0.555,-0.29,2777.777777777778
-0.535,-0.29,2780.5555555555557
-0.545,-0.295,2783.3333333333335
-0.555,-0.305,2786.1111111111113
-0.565,-0.31,2788.8888888888887
-0.565,-0.305,2791.6666666666665
-0.565,-0.32,2794.4444444444443
-0.575,-0.31,2797.222222222222
-0.555,-0.31,2800.0
-0.545,-0.31,2802.777777777778
-0.525,-0.315,2805.5555555555557
-0.515,-0.3,2808.3333333333335
-0.505,-0.3,2811.1111111111113
-0.49,-0.31,2813.8888888888887
-0.49,-0.31,2816.6666666666665
-0.49,-0.315,2819.4444444444443
-0.485,-0.33,2822.222222222222
-0.46,-0.335,2825.0
-0.445,-0.335,2827.777777777778
-0.46,-0.34,2830.5555555555557
-0.455,-0.355,2833.3333333333335
-0.435,-0.345,2836.1111111111113
-0.44,-0.345,2838.8888888888887
-0.44,-0.355,2841.6666666666665
-0.44,-0.33,2844.4444444444443
-0.445,-0.35,2847.222222222222
-0.45,-0.36,2850.0
-0.455,-0.365,2852.777777777778
-0.47,-0.38,2855.5555555555557
-0.485,-0.39,2858.3333333333335
-0.51,-0.4,2861.1111111111113
-0.53,-0.4,2863.8888888888887
-0.56,-0.38,2866.6666666666665
-0.57,-0.38,2869.4444444444443
-0.57,-0.375,2872.222222222222
-0.58,-0.37,2875.0
-0.58,-0.365,2877.777777777778
-0.595,-0.365,2880.5555555555557
-0.61,-0.4,2883.3333333333335
-0.63,-0.39,2886.1111111111113
-0.64,-0.41,2888.8888888888887
-0.675,-0.405,2891.6666666666665
-0.68,-0.415,2894.4444444444443
-0.675,-0.4,2897.222222222222
-0.68,-0.39,2900.0
-0.68,-0.395,2902.777777777778
-0.67,-0.385,2905.5555555555557
-0.675,-0.375,2908.3333333333335
-0.66,-0.365,2911.1111111111113
-0.675,-0.37,2913.8888888888887
-0.68,-0.375,2916.6666666666665
-0.695,-0.385,2919.4444444444443
-0.685,-0.385,2922.222222222222
-0.695,-0.39,2925.0
-0.71,-0.41,2927.777777777778
-0.71,-0.41,2930.5555555555557
-0.7,-0.4,2933.3333333333335
-0.71,-0.385,2936.1111111111113
-0.695,-0.365,2938.8888888888887
-0.69,-0.37,2941.6666666666665
-0.68,-0.36,2944.4444444444443
-0.66,-0.365,2947.222222222222
-0.66,-0.385,2950.0
-0.665,-0.4,2952.777777777778
-0.665,-0.4,2955.5555555555557
-0.67,-0.405,2958.3333333333335
-0.665,-0.4,2961.1111111111113
-0.67,-0.39,2963.8888888888887
-0.675,-0.38,2966.6666666666665
-0.66,-0.385,2969.4444444444443
-0.645,-0.375,2972.222222222222
-0.625,-0.37,2975.0
-0.63,-0.375,2977.777777777778
-0.62,-0.36,2980.5555555555557
-0.61,-0.37,2983.3333333333335
-0.605,-0.38,2986.1111111111113
-0.62,-0.385,2988.8888888888887
-0.62,-0.38,2991.6666666666665
-0.63,-0.395,2994.4444444444443
-0.62,-0.41,2997.222222222222
-0.62,-0.4,3000.0
-0.605,-0.39,3002.777777777778
-0.595,-0.38,3005.5555555555557
-0.595,-0.375,3008.3333333333335
-0.605,-0.365,3011.1111111111113
-0.605,-0.365,3013.8888888888887
-0.585,-0.37,3016.6666666666665
-0.6,-0.385,3019.4444444444443
-0.6,-0.405,3022.222222222222
-0.605,-0.4,3025.0
-0.59,-0.405,3027.777777777778
-0.6,-0.405,3030.5555555555557
-0.61,-0.4,3033.3333333333335
-0.615,-0.385,3036.1111111111113
-0.61,-0.38,3038.8888888888887
-0.61,-0.37,3041.6666666666665
-0.61,-0.365,3044.4444444444443
-0.6,-0.37,3047.222222222222
-0.615,-0.375,3050.0
-0.62,-0.38,3052.777777777778
-0.63,-0.39,3055.5555555555557
-0.63,-0.4,3058.3333333333335
-0.635,-0.395,3061.1111111111113
-0.635,-0.395,3063.8888888888887
-0.64,-0.39,3066.6666666666665
-0.635,-0.395,3069.4444444444443
-0.64,-0.38,3072.222222222222
-0.645,-0.38,3075.0
-0.645,-0.365,3077.777777777778
-0.645,-0.35,3080.5555555555557
-0.645,-0.365,3083.3333333333335
-0.655,-0.37,3086.1111111111113
-0.67,-0.39,3088.8888888888887
-0.675,-0.395,3091.6666666666665
-0.67,-0.41,3094.4444444444443
-0.68,-0.41,3097.222222222222
-0.685,-0.405,3100.0
-0.685,-0.395,3102.777777777778
-0.7,-0.38,3105.5555555555557
-0.68,-0.37,3108.3333333333335
-0.675,-0.375,3111.1111111111113
-0.67,-0.365,3113.8888888888887
-0.675,-0.37,3116.6666666666665
-0.67,-0.385,3119.4444444444443
-0.675,-0.4,3122.222222222222
-0.69,-0.395,3125.0
-0.685,-0.4,3127.777777777778
-0.705,-0.39,3130.5555555555557
-0.7,-0.39,3133.3333333333335
-0.705,-0.385,3136.1111111111113
-0.685,-0.375,3138.8888888888887
-0.69,-0.385,3141.6666666666665
-0.68,-0.375,3144.4444444444443
-0.68,-0.375,3147.222222222222
-0.685,-0.38,3150.0
-0.685,-0.375,3152.777777777778
-0.69,-0.385,3155.5555555555557
-0.695,-0.395,3158.3333333333335
-0.705,-0.405,3161.1111111111113
-0.71,-0.395,3163.8888888888887
-0.715,-0.405,3166.6666666666665
-0.705,-0.395,3169.4444444444443
-0.705,-0.385,3172.222222222222
-0.7,-0.375,3175.0
-0.7,-0.38,3177.777777777778
-0.695,-0.365,3180.5555555555557
-0.705,-0.37,3183.3333333333335
-0.7,-0.38,3186.1111111111113
-0.695,-0.395,3188.8888888888887
-0.7,-0.395,3191.6666666666665
-0.71,-0.4,3194.4444444444443
-0.72,-0.4,3197.222222222222
-0.715,-0.385,3200.0
-0.725,-0.385,3202.777777777778
-0.715,-0.37,3205.5555555555557
-0.705,-0.38,3208.3333333333335
-0.695,-0.375,3211.1111111111113
-0.7,-0.375,3213.8888888888887
-0.71,-0.375,3216.6666666666665
-0.705,-0.37,3219.4444444444443
-0.715,-0.38,3222.222222222222
-0.715,-0.39,3225.0
-0.72,-0.385,3227.777777777778
-0.715,-0.39,3230.5555555555557
-0.72,-0.41,3233.3333333333335
-0.71,-0.4,3236.1111111111113
-0.7,-0.395,3238.8888888888887
-0.685,-0.365,3241.6666666666665
-0.675,-0.36,3244.4444444444443
-0.655,-0.355,3247.222222222222
-0.655,-0.355,3250.0
-0.64,-0.355,3252.777777777778
-0.63,-0.37,3255.5555555555557
-0.62,-0.37,3258.3333333333335
-0.605,-0.37,3261.1111111111113
-0.595,-0.36,3263.8888888888887
-0.585,-0.34,3266.6666666666665
-0.575,-0.325,3269.4444444444443
-0.57,-0.305,3272.222222222222
-0.54,-0.315,3275.0
-0.53,-0.325,3277.777777777778
-0.53,-0.35,3280.5555555555557
-0.545,-0.37,3283.3333333333335
-0.57,-0.395,3286.1111111111113
-0.585,-0.41,3288.8888888888887
-0.595,-0.42,3291.6666666666665
-0.615,-0.425,3294.4444444444443
-0.61,-0.43,3297.222222222222
-0.605,-0.415,3300.0
-0.61,-0.405,3302.777777777778
-0.615,-0.405,3305.5555555555557
-0.625,-0.385,3308.3333333333335
-0.64,-0.37,3311.1111111111113
-0.655,-0.37,3313.8888888888887
-0.69,-0.36,3316.6666666666665
-0.715,-0.375,3319.4444444444443
-0.71,-0.385,3322.222222222222
-0.715,-0.41,3325.0
-0.71,-0.415,3327.777777777778
-0.715,-0.42,3330.5555555555557
-0.705,-0.41,3333.3333333333335
-0.7,-0.405,3336.1111111111113
-0.675,-0.39,3338.8888888888887
-0.655,-0.385,3341.6666666666665
-0.625,-0.37,3344.4444444444443
-0.6,-0.385,3347.222222222222
-0.545,-0.375,3350.0
-0.485,-0.365,3352.777777777778
-0.375,-0.335,3355.5555555555557
-0.17,-0.31,3358.3333333333335
0.095,-0.265,3361.1111111111113
0.43,-0.235,3363.8888888888887
0.815,-0.23,3366.6666666666665
1.16,-0.265,3369.4444444444443
1.37,-0.345,3372.222222222222
1.4,-0.455,3375.0
1.22,-0.585,3377.777777777778
0.79,-0.73,3380.5555555555557
0.15,-0.905,3383.3333333333335
-0.49,-1.035,3386.1111111111113
-1.13,-1.09,3388.8888888888887
-1.535,-1.08,3391.6666666666665
-1.55,-0.995,3394.4444444444443
-1.385,-0.875,3397.222222222222
-1.16,-0.765,3400.0
-0.965,-0.655,3402.777777777778
-0.84,-0.58,3405.5555555555557
-0.815,-0.53,3408.3333333333335
-0.825,-0.495,3411.1111111111113
-0.835,-0.465,3413.8888888888887
-0.84,-0.45,3416.6666666666665
-0.83,-0.435,3419.4444444444443
-0.82,-0.415,3422.222222222222
-0.805,-0.415,3425.0
-0.805,-0.395,3427.777777777778
-0.805,-0.39,3430.5555555555557
-0.81,-0.39,3433.3333333333335
-0.81,-0.385,3436.1111111111113
-0.815,-0.375,3438.8888888888887
-0.815,-0.37,3441.6666666666665
-0.815,-0.355,3444.4444444444443
-0.805,-0.33,3447.222222222222
-0.8,-0.335,3450.0
-0.8,-0.34,3452.777777777778
-0.805,-0.35,3455.5555555555557
-0.805,-0.365,3458.3333333333335
-0.815,-0.37,3461.1111111111113
-0.805,-0.375,3463.8888888888887
-0.81,-0.365,3466.6666666666665
-0.8,-0.36,3469.4444444444443
-0.805,-0.33,3472.222222222222
-0.78,-0.325,3475.0
-0.775,-0.31,3477.777777777778
-0.765,-0.315,3480.5555555555557
-0.77,-0.335,3483.3333333333335
-0.765,-0.345,3486.1111111111113
-0.755,-0.34,3488.8888888888887
-0.765,-0.345,3491.6666666666665
-0.765,-0.35,3494.4444444444443
-0.775,-0.345,3497.222222222222
-0.77,-0.335,3500.0
-0.765,-0.325,3502.777777777778
-0.755,-0.325,3505.5555555555557
-0.735,-0.325,3508.3333333333335
-0.72,-0.315,3511.1111111111113
-0.71,-0.31,3513.8888888888887
-0.715,-0.315,3516.6666666666665
-0.695,-0.31,3519.4444444444443
-0.7,-0.315,3522.222222222222
-0.705,-0.315,3525.0
-0.695,-0.34,3527.777777777778
-0.7,-0.325,3530.5555555555557
-0.685,-0.34,3533.3333333333335
-0.67,-0.335,3536.1111111111113
-0.675,-0.32,3538.8888888888887
-0.67,-0.305,3541.6666666666665
-0.66,-0.285,3544.4444444444443
-0.645,-0.285,3547.222222222222
-0.64,-0.305,3550.0
-0.64,-0.31,3552.777777777778
-0.63,-0.32,3555.5555555555557
-0.625,-0.325,3558.3333333333335
-0.635,-0.32,3561.1111111111113
-0.625,-0.31,3563.8888888888887
-0.615,-0.315,3566.6666666666665
-0.605,-0.31,3569.4444444444443
-0.59,-0.31,3572.222222222222
-0.575,-0.29,3575.0
-0.56,-0.295,3577.777777777778
-0.565,-0.3,3580.5555555555557
-0.56,-0.285,3583.3333333333335
-0.56,-0.29,3586.1111111111113
-0.565,-0.29,3588.8888888888887
-0.55,-0.29,3591.6666666666665
-0.565,-0.305,3594.4444444444443
-0.56,-0.295,3597.222222222222
-0.55,-0.305,3600.0
-0.545,-0.305,3602.777777777778
-0.535,-0.3,3605.5555555555557
-0.53,-0.285,3608.3333333333335
-0.515,-0.265,3611.1111111111113
-0.51,-0.275,3613.8888888888887
-0.515,-0.275,3616.6666666666665
-0.515,-0.275,3619.4444444444443
-0.51,-0.285,3622.222222222222
-0.515,-0.31,3625.0
-0.51,-0.305,3627.777777777778
-0.51,-0.305,3630.5555555555557
-0.5,-0.305,3633.3333333333335
-0.505,-0.3,3636.1111111111113
-0.495,-0.29,3638.8888888888887
-0.475,-0.29,3641.6666666666665
-0.47,-0.28,3644.4444444444443
-0.445,-0.29,3647.222222222222
-0.435,-0.295,3650.0
-0.425,-0.315,3652.777777777778
-0.42,-0.31,3655.5555555555557
-0.42,-0.33,3658.3333333333335
-0.42,-0.335,3661.1111111111113
-0.41,-0.335,3663.8888888888887
-0.415,-0.33,3666.6666666666665
-0.41,-0.335,3669.4444444444443
-0.4,-0.345,3672.222222222222
-0.39,-0.35,3675.0
-0.405,-0.355,3677.777777777778
-0.42,-0.36,3680.5555555555557
-0.425,-0.365,3683.3333333333335
-0.445,-0.365,3686.1111111111113
-0.475,-0.38,3688.8888888888887
-0.49,-0.39,3691.6666666666665
-0.515,-0.385,3694.4444444444443
-0.52,-0.39,3697.222222222222
-0.54,-0.4,3700.0
-0.565,-0.385,3702.777777777778
-0.58,-0.385,3705.5555555555557
-0.58,-0.38,3708.3333333333335
-0.58,-0.37,3711.1111111111113
-0.58,-0.38,3713.8888888888887
-0.6,-0.375,3716.6666666666665
-0.61,-0.39,3719.4444444444443
-0.62,-0.4,3722.222222222222
-0.635,-0.4,3725.0
-0.635,-0.395,3727.777777777778
-0.655,-0.39,3730.5555555555557
-0.655,-0.39,3733.3333333333335
-0.66,-0.385,3736.1111111111113
-0.655,-0.37,3738.8888888888887
-0.66,-0.37,3741.6666666666665
-0.66,-0.37,3744.4444444444443
-0.655,-0.37,3747.222222222222
-0.67,-0.395,3750.0
-0.66,-0.38,3752.777777777778
-0.675,-0.38,3755.5555555555557
-0.67,-0.385,3758.3333333333335
-0.685,-0.39,3761.1111111111113
-0.68,-0.395,3763.8888888888887
-0.68,-0.39,3766.6666666666665
-0.66,-0.395,3769.4444444444443
-0.67,-0.385,3772.222222222222
-0.655,-0.375,3775.0
-0.65,-0.37,3777.777777777778
-0.645,-0.355,3780.5555555555557
-0.65,-0.375,3783.3333333333335
-0.64,-0.375,3786.1111111111113
-0.64,-0.38,3788.8888888888887
-0.655,-0.385,3791.6666666666665
-0.655,-0.39,3794.4444444444443
-0.64,-0.39,3797.222222222222
-0.64,-0.375,3800.0
-0.63,-0.37,3802.777777777778
-0.62,-0.355,3805.5555555555557
-0.62,-0.35,3808.3333333333335
-0.59,-0.355,3811.1111111111113
-0.59,-0.36,3813.8888888888887
-0.595,-0.375,3816.6666666666665
-0.605,-0.38,3819.4444444444443
-0.6,-0.385,3822.222222222222
-0.6,-0.395,3825.0
-0.605,-0.395,3827.777777777778
-0.605,-0.38,3830.5555555555557
-0.595,-0.375,3833.3333333333335
-0.6,-0.365,3836.1111111111113
-0.6,-0.355,3838.8888888888887
-0.59,-0.365,3841.6666666666665
-0.59,-0.355,3844.4444444444443
-0.575,-0.365,3847.222222222222
-0.57,-0.38,3850.0
-0.57,-0.375,3852.777777777778
-0.585,-0.375,3855.5555555555557
-0.585,-0.385,3858.3333333333335
-0.585,-0.395,3861.1111111111113
-0.595,-0.385,3863.8888888888887
-0.595,-0.38,3866.6666666666665
-0.595,-0.375,3869.4444444444443
-0.59,-0.38,3872.222222222222
-0.59,-0.37,3875.0
-0.58,-0.37,3877.777777777778
-0.58,-0.36,3880.5555555555557
-0.585,-0.365,3883.3333333333335
-0.585,-0.375,3886.1111111111113
-0.595,-0.38,3888.8888888888887
-0.605,-0.4,3891.6666666666665
-0.625,-0.395,3894.4444444444443
-0.625,-0.405,3897.222222222222
-0.635,-0.395,3900.0
-0.63,-0.385,3902.777777777778
-0.63,-0.37,3905.5555555555557
-0.63,-0.365,3908.3333333333335
-0.625,-0.36,3911.1111111111113
-0.62,-0.37,3913.8888888888887
-0.62,-0.38,3916.6666666666665
-0.62,-0.38,3919.4444444444443
-0.635,-0.395,3922.222222222222
-0.645,-0.395,3925.0
-0.66,-0.38,3927.777777777778
-0.665,-0.39,3930.5555555555557
-0.665,-0.38,3933.3333333333335
-0.68,-0.385,3936.1111111111113
-0.67,-0.365,3938.8888888888887
-0.655,-0.365,3941.6666666666665
-0.66,-0.365,3944.4444444444443
-0.65,-0.36,3947.222222222222
-0.665,-0.37,3950.0
-0.66,-0.365,3952.777777777778
-0.665,-0.375,3955.5555555555557
-0.675,-0.385,3958.3333333333335
-0.685,-0.4,3961.1111111111113
-0.68,-0.4,3963.8888888888887
-0.69,-0.39,3966.6666666666665
-0.685,-0.385,3969.4444444444443
-0.685,-0.375,3972.222222222222
-0.68,-0.355,3975.0
-0.675,-0.35,3977.777777777778
-0.66,-0.36,3980.5555555555557
-0.655,-0.375,3983.3333333333335
-0.66,-0.38,3986.1111111111113
-0.675,-0.38,3988.8888888888887
-0.675,-0.385,3991.6666666666665
-0.69,-0.395,3994.4444444444443
-0.685,-0.39,3997.222222222222
-0.7,-0.385,4000.0
-0.7,-0.375,4002.777777777778
-0.695,-0.375,4005.5555555555557
-0.68,-0.365,4008.3333333333335
-0.68,-0.36,4011.1111111111113
-0.68,-0.355,4013.8888888888887
-0.685,-0.365,4016.6666666666665
-0.68,-0.375,4019.4444444444443
-0.68,-0.38,4022.222222222222
-0.69,-0.385,4025.0
-0.69,-0.375,4027.777777777778
-0.7,-0.41,4030.5555555555557
-0.7,-0.4,4033.3333333333335
-0.695,-0.385,4036.1111111111113
-0.695,-0.37,4038.8888888888887
-0.695,-0.36,4041.6666666666665
-0.7,-0.345,4044.4444444444443
-0.67,-0.335,4047.222222222222
-0.685,-0.365,4050.0
-0.68,-0.375,4052.777777777778
-0.68,-0.37,4055.5555555555557
-0.685,-0.4,4058.3333333333335
-0.69,-0.385,4061.1111111111113
-0.695,-0.385,4063.8888888888887
-0.705,-0.38,4066.6666666666665
-0.685,-0.375,4069.4444444444443
-0.675,-0.365,4072.222222222222
-0.67,-0.36,4075.0
-0.665,-0.36,4077.777777777778
-0.65,-0.36,4080.5555555555557
-0.65,-0.37,4083.3333333333335
-0.635,-0.36,4086.1111111111113
-0.64,-0.37,4088.8888888888887
-0.635,-0.38,4091.6666666666665
-0.635,-0.385,4094.4444444444443
-0.625,-0.375,4097.222222222223
-0.62,-0.37,4100.0
-0.59,-0.355,4102.777777777777
-0.58,-0.335,4105.555555555556
-0.555,-0.31,4108.333333333333
-0.55,-0.29,4111.111111111111
-0.525,-0.3,4113.888888888889
-0.53,-0.315,4116.666666666667
-0.53,-0.355,4119.444444444444
-0.535,-0.385,4122.222222222223
-0.56,-0.41,4125.0
-0.575,-0.435,4127.777777777777
-0.595,-0.43,4130.555555555556
-0.595,-0.42,4133.333333333333
-0.605,-0.41,4136.111111111111
-0.59,-0.395,4138.888888888889
-0.595,-0.38,4141.666666666667
-0.585,-0.375,4144.444444444444
-0.595,-0.375,4147.222222222223
-0.615,-0.38,4150.0
-0.625,-0.375,4152.777777777777
-0.66,-0.38,4155.555555555556
-0.665,-0.375,4158.333333333333
-0.69,-0.39,4161.111111111111
-0.685,-0.395,4163.888888888889
-0.69,-0.39,4166.666666666667
-0.67,-0.395,4169.444444444444
-0.665,-0.39,4172.222222222223
-0.655,-0.37,4175.0
-0.635,-0.37,4177.777777777777
-0.62,-0.36,4180.555555555556
-0.62,-0.36,4183.333333333333
-0.605,-0.37,4186.111111111111
-0.58,-0.37,4188.888888888889
-0.555,-0.38,4191.666666666667
-0.52,-0.38,4194.444444444444
-0.45,-0.365,4197.222222222223
-0.32,-0.33,4200.0
-0.14,-0.28,4202.777777777777
0.105,-0.225,4205.555555555556
0.415,-0.2,4208.333333333333
0.73,-0.18,4211.111111111111
1.01,-0.205,4213.888888888889
1.195,-0.285,4216.666666666667
1.25,-0.395,4219.444444444444
1.145,-0.55,4222.222222222223
0.855,-0.71,4225.0
0.4,-0.88,4227.777777777777
-0.15,-1.035,4230.555555555556
-0.7,-1.125,4233.333333333333
-1.105,-1.145,4236.111111111111
-1.29,-1.105,4238.888888888889
-1.27,-1.005,4241.666666666667
-1.115,-0.9,4244.444444444444
-0.945,-0.8,4247.222222222223
-0.845,-0.715,4250.0
-0.775,-0.635,4252.777777777777
-0.77,-0.585,4255.555555555556
-0.805,-0.555,4258.333333333333
-0.82,-0.525,4261.111111111111
-0.835,-0.5,4263.888888888889
-0.815,-0.48,4266.666666666667
-0.8,-0.445,4269.444444444444
-0.765,-0.415,4272.222222222223
-0.755,-0.395,4275.0
-0.75,-0.36,4277.777777777777
-0.745,-0.355,4280.555555555556
-0.76,-0.345,4283.333333333333
-0.78,-0.345,4286.111111111111
-0.8,-0.355,4288.888888888889
-0.81,-0.35,4291.666666666667
-0.82,-0.36,4294.444444444444
-0.82,-0.365,4297.222222222223
-0.815,-0.34,4300.0
-0.815,-0.33,4302.777777777777
-0.795,-0.32,4305.555555555556
-0.79,-0.32,4308.333333333333
-0.785,-0.325,4311.111111111111
-0.77,-0.31,4313.888888888889
-0.775,-0.32,4316.666666666667
-0.76,-0.31,4319.444444444444
-0.775,-0.32,4322.222222222223
-0.77,-0.32,4325.0
-0.77,-0.325,4327.777777777777
-0.765,-0.33,4330.555555555556
-0.76,-0.33,4333.333333333333
-0.76,-0.315,4336.111111111111
-0.755,-0.325,4338.888888888889
-0.745,-0.31,4341.666666666667
-0.745,-0.305,4344.444444444444
-0.73,-0.29,4347.222222222223
-0.715,-0.295,4350.0
-0.705,-0.29,4352.777777777777
-0.715,-0.305,4355.555555555556
-0.71,-0.32,4358.333333333333
-0.71,-0.325,4361.111111111111
-0.71,-0.325,4363.888888888889
-0.7,-0.315,4366.666666666667
-0.69,-0.31,4369.444444444444
-0.69,-0.3,4372.222222222223
-0.675,-0.285,4375.0
-0.67,-0.285,4377.777777777777
-0.655,-0.29,4380.555555555556
-0.64,-0.295,4383.333333333333
-0.645,-0.3,4386.111111111111
-0.645,-0.295,4388.888888888889
-0.64,-0.295,4391.666666666667
-0.65,-0.3,4394.444444444444
-0.645,-0.295,4397.222222222223
-0.635,-0.295,4400.0
-0.635,-0.295,4402.777777777777
-0.61,-0.3,4405.555555555556
-0.6,-0.3,4408.333333333333
-0.6,-0.285,4411.111111111111
-0.58,-0.28,4413.888888888889
-0.585,-0.29,4416.666666666667
-0.58,-0.275,4419.444444444444
-0.58,-0.285,4422.222222222223
-0.575,-0.295,4425.0
-0.58,-0.305,4427.777777777777
-0.585,-0.3,4430.555555555556
-0.565,-0.3,4433.333333333333
-0.565,-0.295,4436.111111111111
-0.555,-0.285,4438.888888888889
-0.54,-0.27,4441.666666666667
-0.53,-0.26,4444.444444444444
-0.505,-0.26,4447.222222222223
-0.515,-0.27,4450.0
-0.505,-0.275,4452.777777777777
-0.495,-0.28,4455.555555555556
-0.505,-0.285,4458.333333333333
-0.515,-0.295,4461.111111111111
-0.51,-0.29,4463.888888888889
-0.505,-0.275,4466.666666666667
-0.51,-0.26,4469.444444444444
-0.49,-0.265,4472.222222222223
-0.485,-0.25,4475.0
-0.465,-0.265,4477.777777777777
-0.455,-0.26,4480.555555555556
-0.45,-0.275,4483.333333333333
-0.46,-0.28,4486.111111111111
-0.455,-0.29,4488.888888888889
-0.455,-0.29,4491.666666666667
-0.455,-0.29,4494.444444444444
-0.455,-0.285,4497.222222222223
-0.44,-0.285,4500.0
-0.42,-0.29,4502.777777777777
-0.395,-0.29,4505.555555555556
-0.38,-0.295,4508.333333333333
-0.35,-0.285,4511.111111111111
-0.335,-0.29,4513.888888888889
-0.33,-0.305,4516.666666666667
-0.33,-0.315,4519.444444444444
-0.335,-0.325,4522.222222222223
-0.35,-0.345,4525.0
-0.38,-0.355,4527.777777777777
-0.39,-0.36,4530.555555555556
-0.4,-0.36,4533.333333333333
-0.415,-0.355,4536.111111111111
-0.445,-0.355,4538.888888888889
-0.44,-0.35,4541.666666666667
-0.445,-0.35,4544.444444444444
-0.465,-0.35,4547.222222222223
-0.475,-0.37,4550.0
-0.49,-0.385,4552.777777777777
-0.505,-0.38,4555.555555555556
-0.53,-0.38,4558.333333333333
-0.545,-0.38,4561.111111111111
-0.56,-0.38,4563.888888888889
-0.575,-0.36,4566.666666666667
-0.585,-0.355,4569.444444444444
-0.595,-0.365,4572.222222222223
-0.605,-0.355,4575.0
-0.605,-0.355,4577.777777777777
-0.605,-0.35,4580.555555555556
-0.615,-0.36,4583.333333333333
-0.61,-0.355,4586.111111111111
-0.625,-0.37,4588.888888888889
-0.635,-0.375,4591.666666666667
-0.655,-0.37,4594.444444444444
-0.655,-0.38,4597.222222222223
-0.655,-0.375,4600.0
-0.65,-0.365,4602.777777777777
-0.65,-0.36,4605.555555555556
-0.65,-0.355,4608.333333333333
-0.64,-0.35,4611.111111111111
-0.635,-0.355,4613.888888888889
-0.625,-0.35,4616.666666666667
-0.63,-0.365,4619.444444444444
-0.635,-0.38,4622.222222222223
-0.645,-0.385,4625.0
-0.64,-0.385,4627.777777777777
-0.635,-0.38,4630.555555555556
-0.635,-0.36,4633.333333333333
-0.63,-0.355,4636.111111111111
-0.62,-0.345,4638.888888888889
-0.61,-0.345,4641.666666666667
-0.59,-0.35,4644.444444444444
-0.59,-0.34,4647.222222222223
-0.585,-0.36,4650.0
-0.58,-0.36,4652.777777777777
-0.59,-0.375,4655.555555555556
-0.595,-0.36,4658.333333333333
-0.595,-0.37,4661.111111111111
-0.59,-0.38,4663.888888888889
-0.59,-0.375,4666.666666666667
-0.59,-0.36,4669.444444444444
-0.575,-0.365,4672.222222222223
-0.565,-0.355,4675.0
-0.565,-0.345,4677.777777777777
-0.555,-0.34,4680.555555555556
-0.57,-0.35,4683.333333333333
-0.565,-0.355,4686.111111111111
-0.575,-0.38,4688.888888888889
-0.585,-0.38,4691.666666666667
-0.585,-0.38,4694.444444444444
-0.59,-0.39,4697.222222222223
-0.59,-0.37,4700.0
-0.59,-0.365,4702.777777777777
-0.58,-0.36,4705.555555555556
-0.575,-0.35,4708.333333333333
-0.58,-0.35,4711.111111111111
-0.565,-0.35,4713.888888888889
-0.57,-0.37,4716.666666666667
-0.575,-0.37,4719.444444444444
-0.58,-0.375,4722.222222222223
-0.59,-0.375,4725.0
-0.595,-0.39,4727.777777777777
-0.605,-0.38,4730.555555555556
-0.605,-0.375,4733.333333333333
-0.615,-0.37,4736.111111111111
-0.615,-0.37,4738.888888888889
-0.62,-0.36,4741.666666666667
-0.62,-0.355,4744.444444444444
-0.615,-0.36,4747.222222222223
-0.615,-0.36,4750.0
-0.615,-0.37,4752.777777777777
-0.62,-0.38,4755.555555555556
-0.62,-0.39,4758.333333333333
-0.64,-0.4,4761.111111111111
-0.655,-0.395,4763.888888888889
-0.665,-0.385,4766.666666666667
-0.67,-0.375,4769.444444444444
-0.67,-0.365,4772.222222222223
-0.67,-0.365,4775.0
-0.67,-0.36,4777.777777777777
-0.65,-0.365,4780.555555555556
-0.645,-0.375,4783.333333333333
-0.655,-0.38,4786.111111111111
-0.66,-0.38,4788.888888888889
-0.66,-0.38,4791.666666666667
-0.665,-0.385,4794.444444444444
-0.675,-0.38,4797.222222222223
-0.69,-0.38,4800.0
-0.68,-0.38,4802.777777777777
-0.675,-0.365,4805.555555555556
-0.68,-0.37,4808.333333333333
-0.665,-0.355,4811.111111111111
-0.67,-0.36,4813.888888888889
-0.67,-0.355,4816.666666666667
-0.665,-0.365,4819.444444444444
-0.66,-0.38,4822.222222222223
-0.7,-0.385,4825.0
-0.7,-0.39,4827.777777777777
-0.685,-0.39,4830.555555555556
-0.7,-0.38,4833.333333333333
-0.69,-0.375,4836.111111111111
-0.69,-0.37,4838.888888888889
-0.69,-0.355,4841.666666666667
-0.69,-0.36,4844.444444444444
-0.675,-0.36,4847.222222222223
-0.665,-0.37,4850.0
-0.675,-0.385,4852.777777777777
-0.675,-0.385,4855.555555555556
-0.685,-0.39,4858.333333333333
-0.69,-0.38,4861.111111111111
-0.685,-0.39,4863.888888888889
-0.685,-0.375,4866.666666666667
-0.7,-0.37,4869.444444444444
-0.685,-0.38,4872.222222222223
-0.68,-0.375,4875.0
-0.68,-0.365,4877.777777777777
-0.675,-0.36,4880.555555555556
-0.68,-0.375,4883.333333333333
-0.68,-0.37,4886.111111111111
-0.69,-0.38,4888.888888888889
-0.685,-0.385,4891.666666666667
-0.69,-0.4,4894.444444444444
-0.685,-0.405,4897.222222222223
-0.68,-0.39,4900.0
-0.69,-0.38,4902.777777777777
-0.685,-0.37,4905.555555555556
-0.675,-0.355,4908.333333333333
-0.665,-0.35,4911.111111111111
-0.645,-0.35,4913.888888888889
-0.635,-0.36,4916.666666666667
-0.635,-0.375,4919.444444444444
-0.61,-0.375,4922.222222222223
-0.605,-0.375,4925.0
-0.605,-0.365,4927.777777777777
-0.585,-0.35,4930.555555555556
-0.575,-0.325,4933.333333333333
-0.56,-0.335,4936.111111111111
-0.555,-0.315,4938.888888888889
-0.535,-0.315,4941.666666666667
-0.53,-0.325,4944.444444444444
-0.535,-0.335,4947.222222222223
-0.545,-0.375,4950.0
-0.565,-0.385,4952.777777777777
-0.595,-0.41,4955.555555555556
-0.595,-0.435,4958.333333333333
-0.615,-0.435,4961.111111111111
-0.61,-0.43,4963.888888888889
-0.61,-0.43,4966.666666666667
-0.615,-0.41,4969.444444444444
-0.605,-0.4,4972.222222222223
-0.61,-0.38,4975.0
-0.615,-0.36,4977.777777777777
-0.63,-0.37,4980.555555555556
-0.645,-0.38,4983.333333333333
-0.665,-0.39,4986.111111111111
-0.675,-0.405,4988.888888888889
-0.695,-0.4,4991.666666666667
-0.7,-0.405,4994.444444444444
-0.705,-0.405,4997.222222222223
-0.705,-0.385,5000.0
-0.69,-0.39,5002.777777777777
-0.665,-0.38,5005.555555555556
-0.67,-0.375,5008.333333333333
-0.655,-0.39,5011.111111111111
-0.635,-0.385,5013.888888888889
-0.62,-0.385,5016.666666666667
-0.605,-0.385,5019.444444444444
-0.57,-0.38,5022.222222222223
-0.515,-0.375,5025.0
-0.425,-0.37,5027.777777777777
-0.27,-0.35,5030.555555555556
-0.035,-0.305,5033.333333333333
0.27,-0.265,5036.111111111111
0.655,-0.24,5038.888888888889
1.03,-0.225,5041.666666666667
1.325,-0.265,5044.444444444444
1.485,-0.335,5047.222222222223
1.47,-0.455,5050.0
1.275,-0.59,5052.777777777777
0.885,-0.74,5055.555555555556
0.305,-0.885,5058.333333333333
-0.335,-0.995,5061.111111111111
-0.975,-1.065,5063.888888888889
-1.415,-1.08,5066.666666666667
-1.575,-1.025,5069.444444444444
-1.475,-0.95,5072.222222222223
-1.26,-0.845,5075.0
-1.025,-0.77,5077.777777777777
-0.875,-0.705,5080.555555555556
-0.8,-0.645,5083.333333333333
-0.81,-0.59,5086.111111111111
-0.855,-0.545,5088.888888888889
-0.9,-0.51,5091.666666666667
-0.9,-0.48,5094.444444444444
-0.88,-0.47,5097.222222222223
-0.835,-0.43,5100.0
-0.8,-0.42,5102.777777777777
-0.78,-0.39,5105.555555555556
-0.775,-0.38,5108.333333333333
-0.775,-0.37,5111.111111111111
-0.785,-0.365,5113.888888888889
-0.8,-0.365,5116.666666666667
-0.81,-0.36,5119.444444444444
-0.815,-0.365,5122.222222222223
-0.825,-0.35,5125.0
-0.815,-0.36,5127.777777777777
-0.83,-0.37,5130.555555555556
-0.825,-0.36,5133.333333333333
-0.82,-0.345,5136.111111111111
-0.805,-0.335,5138.888888888889
-0.8,-0.335,5141.666666666667
-0.795,-0.31,5144.444444444444
-0.78,-0.305,5147.222222222223
-0.77,-0.32,5150.0
-0.765,-0.33,5152.777777777777
-0.755,-0.335,5155.555555555556
-0.765,-0.35,5158.333333333333
-0.775,-0.355,5161.111111111111
-0.76,-0.355,5163.888888888889
-0.77,-0.34,5166.666666666667
-0.76,-0.33,5169.444444444444
-0.755,-0.33,5172.222222222223
-0.745,-0.315,5175.0
-0.73,-0.31,5177.777777777777
-0.72,-0.315,5180.555555555556
-0.715,-0.325,5183.333333333333
-0.71,-0.325,5186.111111111111
-0.71,-0.325,5188.888888888889
-0.71,-0.315,5191.666666666667
-0.7,-0.325,5194.444444444444
-0.705,-0.33,5197.222222222223
-0.695,-0.325,5200.0
-0.69,-0.33,5202.777777777777
-0.68,-0.32,5205.555555555556
-0.675,-0.305,5208.333333333333
-0.67,-0.305,5211.111111111111
-0.665,-0.285,5213.888888888889
-0.665,-0.295,5216.666666666667
-0.66,-0.305,5219.444444444444
-0.66,-0.315,5222.222222222223
-0.67,-0.325,5225.0
-0.655,-0.345,5227.777777777777
-0.66,-0.345,5230.555555555556
-0.65,-0.335,5233.333333333333
-0.64,-0.315,5236.111111111111
-0.635,-0.3,5238.888888888889
-0.625,-0.3,5241.666666666667
-0.62,-0.28,5244.444444444444
-0.595,-0.29,5247.222222222223
-0.595,-0.305,5250.0
-0.6,-0.3,5252.777777777777
-0.6,-0.31,5255.555555555556
-0.6,-0.31,5258.333333333333
-0.605,-0.31,5261.111111111111
-0.595,-0.315,5263.888888888889
-0.595,-0.295,5266.666666666667
-0.585,-0.285,5269.444444444444
-0.575,-0.3,5272.222222222223
-0.555,-0.29,5275.0
-0.55,-0.275,5277.777777777777
-0.535,-0.28,5280.555555555556
-0.53,-0.29,5283.333333333333
-0.53,-0.28,5286.111111111111
-0.535,-0.28,5288.888888888889
-0.54,-0.29,5291.666666666667
-0.55,-0.285,5294.444444444444
-0.57,-0.28,5297.222222222223
-0.57,-0.285,5300.0
-0.56,-0.295,5302.777777777777
-0.565,-0.285,5305.555555555556
-0.54,-0.29,5308.333333333333
-0.525,-0.27,5311.111111111111
-0.515,-0.275,5313.888888888889
-0.51,-0.28,5316.666666666667
-0.505,-0.28,5319.444444444444
-0.49,-0.3,5322.222222222223
-0.485,-0.29,5325.0
-0.495,-0.31,5327.777777777777
-0.495,-0.305,5330.555555555556
-0.475,-0.305,5333.333333333333
-0.465,-0.31,5336.111111111111
-0.455,-0.3,5338.888888888889
-0.425,-0.3,5341.666666666667
-0.405,-0.305,5344.444444444444
-0.39,-0.325,5347.222222222223
-0.38,-0.33,5350.0
-0.385,-0.34,5352.777777777777
-0.39,-0.35,5355.555555555556
-0.415,-0.35,5358.333333333333
-0.435,-0.36,5361.111111111111
-0.455,-0.36,5363.888888888889
-0.465,-0.365,5366.666666666667
-0.485,-0.365,5369.444444444444
-0.5,-0.365,5372.222222222223
-0.51,-0.365,5375.0
-0.525,-0.36,5377.777777777777
-0.535,-0.35,5380.555555555556
-0.545,-0.36,5383.333333333333
-0.555,-0.37,5386.111111111111
-0.57,-0.375,5388.888888888889
-0.58,-0.39,5391.666666666667
-0.605,-0.39,5394.444444444444
-0.6,-0.39,5397.222222222223
-0.625,-0.38,5400.0
-0.625,-0.38,5402.777777777777
-0.635,-0.37,5405.555555555556
-0.645,-0.36,5408.333333333333
-0.66,-0.355,5411.111111111111
-0.66,-0.345,5413.888888888889
-0.66,-0.365,5416.666666666667
-0.67,-0.365,5419.444444444444
-0.675,-0.385,5422.222222222223
-0.67,-0.39,5425.0
-0.675,-0.385,5427.777777777777
-0.7,-0.38,5430.555555555556
-0.695,-0.375,5433.333333333333
-0.68,-0.365,5436.111111111111
-0.66,-0.37,5438.888888888889
-0.665,-0.36,5441.666666666667
-0.65,-0.355,5444.444444444444
-0.64,-0.365,5447.222222222223
-0.645,-0.37,5450.0
-0.65,-0.36,5452.777777777777
-0.65,-0.37,5455.555555555556
-0.675,-0.37,5458.333333333333
-0.68,-0.37,5461.111111111111
-0.675,-0.38,5463.888888888889
-0.67,-0.37,5466.666666666667
-0.66,-0.375,5469.444444444444
-0.655,-0.36,5472.222222222223
-0.625,-0.37,5475.0
-0.615,-0.345,5477.777777777777
-0.615,-0.34,5480.555555555556
-0.605,-0.345,5483.333333333333
-0.6,-0.355,5486.111111111111
-0.59,-0.36,5488.888888888889
-0.6,-0.375,5491.666666666667
-0.615,-0.375,5494.444444444444
-0.605,-0.38,5497.222222222223
-0.615,-0.365,5500.0
-0.62,-0.365,5502.777777777777
-0.61,-0.36,5505.555555555556
-0.605,-0.35,5508.333333333333
-0.595,-0.34,5511.111111111111
-0.59,-0.345,5513.888888888889
-0.58,-0.36,5516.666666666667
-0.56,-0.365,5519.444444444444
-0.555,-0.365,5522.222222222223
-0.575,-0.39,5525.0
-0.58,-0.375,5527.777777777777
-0.59,-0.365,5530.555555555556
-0.58,-0.365,5533.333333333333
-0.575,-0.365,5536.111111111111
-0.59,-0.355,5538.888888888889
-0.585,-0.355,5541.666666666667
-0.565,-0.37,5544.444444444444
-0.585,-0.355,5547.222222222223
-0.59,-0.365,5550.0
-0.59,-0.36,5552.777777777777
-0.59,-0.38,5555.555555555556
-0.595,-0.38,5558.333333333333
-0.61,-0.385,5561.111111111111
-0.61,-0.39,5563.888888888889
-0.615,-0.385,5566.666666666667
-0.625,-0.38,5569.444444444444
-0.625,-0.375,5572.222222222223
-0.625,-0.355,5575.0
-0.63,-0.35,5577.777777777777
-0.625,-0.36,5580.555555555556
-0.615,-0.37,5583.333333333333
-0.62,-0.365,5586.111111111111
-0.625,-0.385,5588.888888888889
-0.635,-0.39,5591.666666666667
-0.65,-0.39,5594.444444444444
-0.64,-0.39,5597.222222222223
-0.645,-0.38,5600.0
-0.65,-0.375,5602.777777777777
-0.65,-0.37,5605.555555555556
-0.645,-0.365,5608.333333333333
-0.655,-0.365,5611.111111111111
-0.66,-0.36,5613.888888888889
-0.655,-0.37,5616.666666666667
-0.67,-0.355,5619.444444444444
-0.665,-0.37,5622.222222222223
-0.695,-0.37,5625.0
-0.685,-0.39,5627.777777777777
-0.68,-0.39,5630.555555555556
-0.68,-0.375,5633.333333333333
-0.68,-0.38,5636.111111111111
-0.68,-0.37,5638.888888888889
-0.675,-0.355,5641.666666666667
-0.67,-0.345,5644.444444444444
-0.67,-0.35,5647.222222222223
-0.68,-0.36,5650.0
-0.67,-0.365,5652.777777777777
-0.69,-0.375,5655.555555555556
-0.7,-0.385,5658.333333333333
-0.695,-0.385,5661.111111111111
-0.71,-0.39,5663.888888888889
-0.71,-0.375,5666.666666666667
-0.72,-0.365,5669.444444444444
-0.705,-0.365,5672.222222222223
-0.685,-0.35,5675.0
-0.69,-0.35,5677.777777777777
-0.665,-0.355,5680.555555555556
-0.665,-0.36,5683.333333333333
-0.67,-0.365,5686.111111111111
-0.68,-0.365,5688.888888888889
-0.69,-0.375,5691.666666666667
-0.695,-0.385,5694.444444444444
-0.705,-0.385,5697.222222222223
-0.715,-0.37,5700.0
-0.705,-0.375,5702.777777777777
-0.7,-0.365,5705.555555555556
-0.7,-0.36,5708.333333333333
-0.685,-0.355,5711.111111111111
-0.685,-0.355,5713.888888888889
-0.685,-0.36,5716.666666666667
-0.695,-0.365,5719.444444444444
-0.685,-0.365,5722.222222222223
-0.69,-0.375,5725.0
-0.7,-0.39,5727.777777777777
-0.695,-0.39,5730.555555555556
-0.705,-0.39,5733.333333333333
-0.71,-0.38,5736.111111111111
-0.705,-0.355,5738.888888888889
-0.69,-0.36,5741.666666666667
-0.675,-0.355,5744.444444444444
-0.645,-0.35,5747.222222222223
-0.645,-0.37,5750.0
-0.635,-0.365,5752.777777777777
-0.625,-0.37,5755.555555555556
-0.61,-0.36,5758.333333333333
-0.615,-0.365,5761.111111111111
-0.595,-0.36,5763.888888888889
-0.59,-0.355,5766.666666666667
-0.575,-0.335,5769.444444444444
-0.555,-0.335,5772.222222222223
-0.545,-0.315,5775.0
-0.54,-0.31,5777.777777777777
-0.53,-0.31,5780.555555555556
-0.525,-0.335,5783.333333333333
-0.53,-0.345,5786.111111111111
-0.56,-0.375,5788.888888888889
-0.565,-0.395,5791.666666666667
-0.58,-0.42,5794.444444444444
-0.59,-0.435,5797.222222222223
-0.59,-0.415,5800.0
-0.595,-0.41,5802.777777777777
-0.585,-0.39,5805.555555555556
-0.58,-0.375,5808.333333333333
-0.59,-0.365,5811.111111111111
-0.6,-0.365,5813.888888888889
-0.605,-0.375,5816.666666666667
-0.625,-0.37,5819.444444444444
-0.65,-0.385,5822.222222222223
-0.675,-0.4,5825.0
-0.69,-0.405,5827.777777777777
-0.705,-0.4,5830.555555555556
-0.705,-0.395,5833.333333333333
-0.705,-0.385,5836.111111111111
-0.675,-0.38,5838.888888888889
-0.68,-0.38,5841.666666666667
-0.67,-0.375,5844.444444444444
-0.655,-0.37,5847.222222222223
-0.655,-0.385,5850.0
-0.65,-0.375,5852.777777777777
-0.65,-0.385,5855.555555555556
-0.64,-0.38,5858.333333333333
-0.635,-0.39,5861.111111111111
-0.605,-0.395,5863.888888888889
-0.56,-0.375,5866.666666666667
-0.465,-0.36,5869.444444444444
-0.345,-0.33,5872.222222222223
-0.175,-0.3,5875.0
0.075,-0.245,5877.777777777777
0.37,-0.205,5880.555555555556
0.73,-0.2,5883.333333333333
1.09,-0.2,5886.111111111111
1.38,-0.26,5888.888888888889
1.54,-0.335,5891.666666666667
1.56,-0.44,5894.444444444444
1.43,-0.56,5897.222222222223
1.1,-0.695,5900.0
0.55,-0.82,5902.777777777777
-0.09,-0.93,5905.555555555556
-0.73,-1.02,5908.333333333333
-1.37,-1.04,5911.111111111111
-1.725,-0.995,5913.888888888889
-1.645,-0.925,5916.666666666667
-1.385,-0.83,5919.444444444444
-1.115,-0.74,5922.222222222223
-0.915,-0.66,5925.0
-0.84,-0.605,5927.777777777777
-0.805,-0.55,5930.555555555556
-0.835,-0.495,5933.333333333333
-0.855,-0.475,5936.111111111111
-0.855,-0.435,5938.888888888889
-0.82,-0.42,5941.666666666667
-0.785,-0.385,5944.444444444444
-0.75,-0.37,5947.222222222223
-0.755,-0.365,5950.0
-0.76,-0.35,5952.777777777777
-0.78,-0.355,5955.555555555556
-0.815,-0.365,5958.333333333333
-0.82,-0.365,5961.111111111111
-0.84,-0.365,5963.888888888889
-0.835,-0.36,5966.666666666667
-0.825,-0.36,5969.444444444444
-0.815,-0.345,5972.222222222223
-0.79,-0.33,5975.0
-0.775,-0.32,5977.777777777777
-0.76,-0.315,5980.555555555556
-0.75,-0.315,5983.333333333333
-0.75,-0.31,5986.111111111111
-0.75,-0.335,5988.888888888889
-0.76,-0.33,5991.666666666667
-0.79,-0.34,5994.444444444444
-0.78,-0.335,5997.222222222223
-0.775,-0.335,6000.0
-0.775,-0.325,6002.777777777777
-0.765,-0.325,6005.555555555556
-0.75,-0.315,6008.333333333333
-0.74,-0.31,6011.111111111111
-0.73,-0.31,6013.888888888889
-0.71,-0.32,6016.666666666667
-0.7,-0.33,6019.444444444444
-0.705,-0.315,6022.222222222223
-0.705,-0.325,6025.0
-0.71,-0.32,6027.777777777777
-0.71,-0.315,6030.555555555556
-0.72,-0.31,6033.333333333333
-0.71,-0.31,6036.111111111111
-0.7,-0.315,6038.888888888889
-0.69,-0.315,6041.666666666667
-0.68,-0.305,6044.444444444444
-0.665,-0.295,6047.222222222223
-0.67,-0.305,6050.0
-0.675,-0.295,6052.777777777777
-0.66,-0.31,6055.555555555556
-0.65,-0.305,6058.333333333333
-0.65,-0.32,6061.111111111111
-0.65,-0.32,6063.888888888889
-0.63,-0.315,6066.666666666667
-0.635,-0.315,6069.444444444444
-0.62,-0.3,6072.222222222223
-0.62,-0.29,6075.0
-0.615,-0.275,6077.777777777777
-0.61,-0.27,6080.555555555556
-0.595,-0.275,6083.333333333333
-0.59,-0.29,6086.111111111111
-0.6,-0.3,6088.888888888889
-0.585,-0.31,6091.666666666667
-0.595,-0.315,6094.444444444444
-0.59,-0.315,6097.222222222223
-0.6,-0.295,6100.0
-0.585,-0.28,6102.777777777777
-0.57,-0.28,6105.555555555556
-0.55,-0.28,6108.333333333333
-0.545,-0.27,6111.111111111111
-0.535,-0.27,6113.888888888889
-0.53,-0.295,6116.666666666667
-0.545,-0.295,6119.444444444444
-0.54,-0.29,6122.222222222223
-0.555,-0.295,6125.0
-0.56,-0.285,6127.777777777777
-0.57,-0.28,6130.555555555556
-0.57,-0.285,6133.333333333333
-0.565,-0.285,6136.111111111111
-0.545,-0.28,6138.888888888889
-0.535,-0.27,6141.666666666667
-0.535,-0.275,6144.444444444444
-0.515,-0.255,6147.222222222223
-0.525,-0.265,6150.0
-0.525,-0.265,6152.777777777777
-0.515,-0.27,6155.555555555556
-0.52,-0.285,6158.333333333333
-0.52,-0.295,6161.111111111111
-0.51,-0.3,6163.888888888889
-0.53,-0.295,6166.666666666667
-0.525,-0.29,6169.444444444444
-0.5,-0.27,6172.222222222223
-0.49,-0.28,6175.0
-0.465,-0.265,6177.777777777777
-0.44,-0.265,6180.555555555556
-0.42,-0.295,6183.333333333333
-0.41,-0.305,6186.111111111111
-0.405,-0.325,6188.888888888889
-0.39,-0.345,6191.666666666667
-0.385,-0.345,6194.444444444444
-0.395,-0.35,6197.222222222223
-0.405,-0.35,6200.0
-0.41,-0.32,6202.777777777777
-0.415,-0.335,6205.555555555556
-0.42,-0.335,6208.333333333333
-0.44,-0.34,6211.111111111111
-0.445,-0.335,6213.888888888889
-0.455,-0.36,6216.666666666667
-0.475,-0.35,6219.444444444444
-0.49,-0.37,6222.222222222223
-0.525,-0.365,6225.0
-0.55,-0.37,6227.777777777777
-0.57,-0.385,6230.555555555556
-0.575,-0.38,6233.333333333333
-0.585,-0.385,6236.111111111111
-0.575,-0.37,6238.888888888889
-0.59,-0.365,6241.666666666667
-0.6,-0.34,6244.444444444444
-0.61,-0.34,6247.222222222223
-0.615,-0.34,6250.0
-0.63,-0.355,6252.777777777777
-0.635,-0.355,6255.555555555556
-0.64,-0.375,6258.333333333333
-0.65,-0.385,6261.111111111111
-0.665,-0.39,6263.888888888889
-0.665,-0.36,6266.666666666667
-0.675,-0.365,6269.444444444444
-0.665,-0.345,6272.222222222223
-0.66,-0.345,6275.0
-0.66,-0.335,6277.777777777777
-0.64,-0.34,6280.555555555556
-0.63,-0.355,6283.333333333333
-0.63,-0.36,6286.111111111111
-0.635,-0.37,6288.888888888889
-0.66,-0.365,6291.666666666667
-0.66,-0.365,6294.444444444444
-0.675,-0.365,6297.222222222223
-0.67,-0.355,6300.0
-0.665,-0.375,6302.777777777777
-0.675,-0.355,6305.555555555556
-0.645,-0.37,6308.333333333333
-0.645,-0.355,6311.111111111111
-0.625,-0.345,6313.888888888889
-0.615,-0.345,6316.666666666667
-0.61,-0.34,6319.444444444444
-0.61,-0.355,6322.222222222223
-0.61,-0.36,6325.0
-0.6,-0.37,6327.777777777777
-0.6,-0.38,6330.555555555556
-0.6,-0.37,6333.333333333333
-0.6,-0.38,6336.111111111111
-0.59,-0.36,6338.888888888889
-0.58,-0.34,6341.666666666667
-0.59,-0.34,6344.444444444444
-0.565,-0.32,6347.222222222223
-0.57,-0.335,6350.0
-0.56,-0.35,6352.777777777777
-0.56,-0.36,6355.555555555556
-0.57,-0.365,6358.333333333333
-0.575,-0.375,6361.111111111111
-0.57,-0.375,6363.888888888889
-0.58,-0.36,6366.666666666667
-0.57,-0.36,6369.444444444444
-0.56,-0.36,6372.222222222223
-0.545,-0.35,6375.0
-0.55,-0.35,6377.777777777777
-0.535,-0.335,6380.555555555556
-0.535,-0.35,6383.333333333333
-0.545,-0.335,6386.111111111111
-0.555,-0.35,6388.888888888889
-0.57,-0.345,6391.666666666667
-0.57,-0.37,6394.444444444444
-0.575,-0.38,6397.222222222223
-0.585,-0.375,6400.0
-0.585,-0.375,6402.777777777777
-0.58,-0.365,6405.555555555556
-0.58,-0.355,6408.333333333333
-0.58,-0.34,6411.111111111111
-0.57,-0.325,6413.888888888889
-0.565,-0.34,6416.666666666667
-0.575,-0.34,6419.444444444444
-0.58,-0.355,6422.222222222223
-0.59,-0.37,6425.0
-0.605,-0.38,6427.777777777777
-0.615,-0.38,6430.555555555556
-0.635,-0.36,6433.333333333333
-0.64,-0.36,6436.111111111111
-0.64,-0.35,6438.888888888889
-0.63,-0.355,6441.666666666667
-0.615,-0.35,6444.444444444444
-0.615,-0.35,6447.222222222223
-0.63,-0.355,6450.0
-0.645,-0.345,6452.777777777777
-0.655,-0.355,6455.555555555556
-0.66,-0.355,6458.333333333333
-0.645,-0.365,6461.111111111111
-0.655,-0.37,6463.888888888889
-0.655,-0.37,6466.666666666667
-0.65,-0.37,6469.444444444444
-0.65,-0.37,6472.222222222223
-0.645,-0.37,6475.0
-0.645,-0.335,6477.777777777777
-0.64,-0.325,6480.555555555556
-0.63,-0.34,6483.333333333333
-0.64,-0.34,6486.111111111111
-0.645,-0.35,6488.888888888889
-0.655,-0.36,6491.666666666667
-0.66,-0.38,6494.444444444444
-0.67,-0.385,6497.222222222223
-0.675,-0.365,6500.0
-0.69,-0.355,6502.777777777777
-0.685,-0.35,6505.555555555556
-0.67,-0.335,6508.333333333333
-0.65,-0.335,6511.111111111111
-0.645,-0.34,6513.888888888889
-0.64,-0.35,6516.666666666667
-0.65,-0.345,6519.444444444444
-0.655,-0.36,6522.222222222223
-0.66,-0.37,6525.0
-0.67,-0.375,6527.777777777777
-0.675,-0.36,6530.555555555556
-0.675,-0.36,6533.333333333333
-0.675,-0.365,6536.111111111111
-0.66,-0.365,6538.888888888889
-0.665,-0.345,6541.666666666667
-0.66,-0.355,6544.444444444444
-0.66,-0.345,6547.222222222223
-0.67,-0.35,6550.0
-0.665,-0.34,6552.777777777777
-0.67,-0.355,6555.555555555556
-0.685,-0.355,6558.333333333333
-0.685,-0.365,6561.111111111111
-0.69,-0.38,6563.888888888889
-0.695,-0.375,6566.666666666667
-0.685,-0.365,6569.444444444444
-0.675,-0.35,6572.222222222223
-0.68,-0.35,6575.0
-0.665,-0.335,6577.777777777777
-0.65,-0.325,6580.555555555556
-0.65,-0.345,6583.333333333333
-0.65,-0.34,6586.111111111111
-0.665,-0.36,6588.888888888889
-0.7,-0.36,6591.666666666667
-0.685,-0.355,6594.444444444444
-0.665,-0.37,6597.222222222223
-0.655,-0.355,6600.0
-0.645,-0.355,6602.777777777777
-0.615,-0.345,6605.555555555556
-0.59,-0.35,6608.333333333333
-0.595,-0.33,6611.111111111111
-0.575,-0.32,6613.888888888889
-0.55,-0.3,6616.666666666667
-0.535,-0.305,6619.444444444444
-0.525,-0.3,6622.222222222223
-0.515,-0.305,6625.0
-0.505,-0.32,6627.777777777777
-0.51,-0.34,6630.555555555556
-0.525,-0.35,6633.333333333333
-0.55,-0.37,6636.111111111111
-0.555,-0.37,6638.888888888889
-0.565,-0.375,6641.666666666667
-0.57,-0.365,6644.444444444444
-0.555,-0.36,6647.222222222223
-0.555,-0.37,6650.0
-0.56,-0.375,6652.777777777777
-0.57,-0.375,6655.555555555556
-0.58,-0.375,6658.333333333333
-0.605,-0.39,6661.111111111111
-0.625,-0.38,6663.888888888889
-0.635,-0.365,6666.666666666667
-0.66,-0.35,6669.444444444444
-0.665,-0.355,6672.222222222223
-0.665,-0.355,6675.0
-0.665,-0.35,6677.777777777777
-0.66,-0.35,6680.555555555556
-0.66,-0.35,6683.333333333333
-0.665,-0.345,6686.111111111111
-0.68,-0.36,6688.888888888889
-0.68,-0.355,6691.666666666667
-0.665,-0.37,6694.444444444444
-0.67,-0.385,6697.222222222223
-0.665,-0.375,6700.0
-0.65,-0.375,6702.777777777777
-0.615,-0.37,6705.555555555556
-0.595,-0.355,6708.333333333333
-0.535,-0.325,6711.111111111111
-0.465,-0.305,6713.888888888889
-0.355,-0.3,6716.666666666667
-0.185,-0.275,6719.444444444444
0.04,-0.24,6722.222222222223
0.35,-0.215,6725.0
0.72,-0.2,6727.777777777777
1.085,-0.2,6730.555555555556
1.365,-0.235,6733.333333333333
1.525,-0.305,6736.111111111111
1.535,-0.405,6738.888888888889
1.325,-0.545,6741.666666666667
0.845,-0.705,6744.444444444444
0.205,-0.86,6747.222222222223
-0.435,-0.995,6750.0
-1.075,-1.065,6752.777777777777
-1.635,-1.03,6755.555555555556
-1.615,-0.935,6758.333333333333
-1.385,-0.82,6761.111111111111
-1.11,-0.695,6763.888888888889
-0.905,-0.6,6766.666666666667
-0.8,-0.53,6769.444444444444
-0.765,-0.485,6772.222222222223
-0.77,-0.445,6775.0
-0.765,-0.42,6777.777777777777
-0.77,-0.385,6780.555555555556
-0.77,-0.38,6783.333333333333
-0.775,-0.345,6786.111111111111
-0.77,-0.35,6788.888888888889
-0.77,-0.36,6791.666666666667
-0.79,-0.375,6794.444444444444
-0.805,-0.37,6797.222222222223
-0.805,-0.365,6800.0
-0.815,-0.335,6802.777777777777
-0.805,-0.33,6805.555555555556
-0.785,-0.31,6808.333333333333
-0.785,-0.315,6811.111111111111
-0.775,-0.3,6813.888888888889
-0.76,-0.305,6816.666666666667
-0.755,-0.31,6819.444444444444
-0.765,-0.33,6822.222222222223
-0.775,-0.32,6825.0
-0.785,-0.32,6827.777777777777
-0.785,-0.325,6830.555555555556
-0.78,-0.31,6833.333333333333
-0.78,-0.305,6836.111111111111
-0.765,-0.305,6838.888888888889
-0.745,-0.305,6841.666666666667
-0.74,-0.3,6844.444444444444
-0.725,-0.295,6847.222222222223
-0.725,-0.29,6850.0
-0.725,-0.29,6852.777777777777
-0.715,-0.295,6855.555555555556
-0.725,-0.29,6858.333333333333
-0.725,-0.295,6861.111111111111
-0.71,-0.31,6863.888888888889
-0.725,-0.3,6866.666666666667
-0.72,-0.305,6869.444444444444
-0.715,-0.3,6872.222222222223
-0.695,-0.285,6875.0
-0.69,-0.27,6877.777777777777
-0.67,-0.26,6880.555555555556
-0.665,-0.275,6883.333333333333
-0.65,-0.285,6886.111111111111
-0.65,-0.29,6888.888888888889
-0.655,-0.3,6891.666666666667
-0.65,-0.31,6894.444444444444
-0.655,-0.305,6897.222222222223
-0.655,-0.29,6900.0
-0.645,-0.28,6902.777777777777
-0.64,-0.29,6905.555555555556
-0.625,-0.27,6908.333333333333
-0.615,-0.27,6911.111111111111
-0.595,-0.275,6913.888888888889
-0.585,-0.275,6916.666666666667
-0.59,-0.285,6919.444444444444
-0.58,-0.285,6922.222222222223
-0.585,-0.29,6925.0
-0.59,-0.285,6927.777777777777
-0.585,-0.28,6930.555555555556
-0.58,-0.27,6933.333333333333
-0.58,-0.28,6936.111111111111
-0.565,-0.27,6938.888888888889
-0.555,-0.28,6941.666666666667
-0.54,-0.265,6944.444444444444
-0.53,-0.255,6947.222222222223
-0.525,-0.255,6950.0
-0.525,-0.275,6952.777777777777
-0.53,-0.265,6955.555555555556
-0.525,-0.27,6958.333333333333
-0.53,-0.285,6961.111111111111
-0.52,-0.29,6963.888888888889
-0.53,-0.28,6966.666666666667
-0.52,-0.27,6969.444444444444
-0.53,-0.27,6972.222222222223
-0.52,-0.26,6975.0
-0.495,-0.26,6977.777777777777
-0.485,-0.26,6980.555555555556
-0.48,-0.265,6983.333333333333
-0.485,-0.27,6986.111111111111
-0.485,-0.265,6988.888888888889
-0.485,-0.27,6991.666666666667
-0.48,-0.28,6994.444444444444
-0.47,-0.275,6997.222222222223
-0.46,-0.28,7000.0
-0.45,-0.285,7002.777777777777
-0.435,-0.275,7005.555555555556
-0.41,-0.285,7008.333333333333
-0.395,-0.285,7011.111111111111
-0.37,-0.28,7013.888888888889
-0.37,-0.285,7016.666666666667
-0.355,-0.295,7019.444444444444
-0.36,-0.305,7022.222222222223
-0.365,-0.325,7025.0
-0.37,-0.335,7027.777777777777
-0.37,-0.35,7030.555555555556
-0.385,-0.35,7033.333333333333
-0.405,-0.34,7036.111111111111
-0.41,-0.33,7038.888888888889
-0.42,-0.325,7041.666666666667
-0.425,-0.325,7044.444444444444
-0.435,-0.33,7047.222222222223
-0.445,-0.355,7050.0
-0.47,-0.355,7052.777777777777
-0.485,-0.365,7055.555555555556
-0.51,-0.365,7058.333333333333
-0.525,-0.365,7061.111111111111
-0.545,-0.36,7063.888888888889
-0.555,-0.36,7066.666666666667
-0.57,-0.36,7069.444444444444
-0.57,-0.36,7072.222222222223
-0.585,-0.365,7075.0
-0.575,-0.355,7077.777777777777
-0.585,-0.35,7080.555555555556
-0.59,-0.355,7083.333333333333
-0.595,-0.345,7086.111111111111
-0.6,-0.36,7088.888888888889
-0.61,-0.365,7091.666666666667
-0.615,-0.375,7094.444444444444
-0.625,-0.38,7097.222222222223
-0.63,-0.385,7100.0
-0.63,-0.365,7102.777777777777
-0.64,-0.365,7105.555555555556
-0.635,-0.345,7108.333333333333
-0.635,-0.345,7111.111111111111
-0.625,-0.34,7113.888888888889
-0.615,-0.345,7116.666666666667
-0.62,-0.345,7119.444444444444
-0.61,-0.365,7122.222222222223
-0.61,-0.37,7125.0
-0.62,-0.38,7127.777777777777
-0.62,-0.37,7130.555555555556
-0.635,-0.38,7133.333333333333
-0.64,-0.36,7136.111111111111
-0.635,-0.34,7138.888888888889
-0.615,-0.33,7141.666666666667
-0.605,-0.33,7144.444444444444
-0.58,-0.335,7147.222222222223
-0.58,-0.35,7150.0
-0.57,-0.35,7152.777777777777
-0.575,-0.35,7155.555555555556
-0.595,-0.355,7158.333333333333
-0.58,-0.36,7161.111111111111
-0.58,-0.36,7163.888888888889
-0.585,-0.36,7166.666666666667
-0.58,-0.35,7169.444444444444
-0.575,-0.36,7172.222222222223
-0.565,-0.35,7175.0
-0.565,-0.335,7177.777777777777
-0.57,-0.34,7180.555555555556
-0.56,-0.335,7183.333333333333
-0.56,-0.34,7186.111111111111
-0.555,-0.35,7188.888888888889
-0.555,-0.37,7191.666666666667
-0.555,-0.375,7194.444444444444
-0.56,-0.38,7197.222222222223
-0.55,-0.365,7200.0
-0.545,-0.355,7202.777777777777
-0.55,-0.345,7205.555555555556
-0.535,-0.35,7208.333333333333
-0.545,-0.34,7211.111111111111
-0.53,-0.33,7213.888888888889
-0.52,-0.36,7216.666666666667
-0.525,-0.36,7219.444444444444
-0.54,-0.365,7222.222222222223
-0.555,-0.375,7225.0
-0.56,-0.37,7227.777777777777
-0.57,-0.375,7230.555555555556
-0.56,-0.37,7233.333333333333
-0.575,-0.365,7236.111111111111
-0.57,-0.355,7238.888888888889
-0.575,-0.36,7241.666666666667
-0.565,-0.355,7244.444444444444
-0.56,-0.325,7247.222222222223
-0.565,-0.345,7250.0
-0.565,-0.34,7252.777777777777
-0.57,-0.355,7255.555555555556
-0.595,-0.365,7258.333333333333
-0.605,-0.375,7261.111111111111
-0.61,-0.375,7263.888888888889
-0.635,-0.375,7266.666666666667
-0.62,-0.355,7269.444444444444
-0.62,-0.35,7272.222222222223
-0.615,-0.34,7275.0
-0.6,-0.345,7277.777777777777
-0.61,-0.345,7280.555555555556
-0.6,-0.36,7283.333333333333
-0.61,-0.36,7286.111111111111
-0.61,-0.365,7288.888888888889
-0.62,-0.375,7291.666666666667
-0.63,-0.375,7294.444444444444
-0.635,-0.375,7297.222222222223
-0.64,-0.365,7300.0
-0.64,-0.37,7302.777777777777
-0.635,-0.365,7305.555555555556
-0.645,-0.365,7308.333333333333
-0.635,-0.345,7311.111111111111
-0.625,-0.35,7313.888888888889
-0.63,-0.35,7316.666666666667
-0.635,-0.35,7319.444444444444
-0.635,-0.36,7322.222222222223
-0.645,-0.37,7325.0
-0.64,-0.38,7327.777777777777
-0.65,-0.38,7330.555555555556
-0.655,-0.38,7333.333333333333
-0.655,-0.37,7336.111111111111
-0.665,-0.355,7338.888888888889
-0.65,-0.345,7341.666666666667
-0.645,-0.335,7344.444444444444
-0.625,-0.345,7347.222222222223
-0.625,-0.36,7350.0
-0.635,-0.36,7352.777777777777
-0.63,-0.37,7355.555555555556
-0.65,-0.37,7358.333333333333
-0.66,-0.375,7361.111111111111
-0.665,-0.375,7363.888888888889
-0.66,-0.37,7366.666666666667
-0.66,-0.365,7369.444444444444
-0.66,-0.355,7372.222222222223
-0.66,-0.36,7375.0
-0.66,-0.35,7377.777777777777
-0.645,-0.35,7380.555555555556
-0.64,-0.355,7383.333333333333
-0.65,-0.35,7386.111111111111
-0.655,-0.37,7388.888888888889
-0.66,-0.365,7391.666666666667
-0.655,-0.375,7394.444444444444
-0.66,-0.385,7397.222222222223
-0.655,-0.385,7400.0
-0.66,-0.37,7402.777777777777
-0.665,-0.35,7405.555555555556
-0.65,-0.34,7408.333333333333
-0.645,-0.34,7411.111111111111
-0.63,-0.33,7413.888888888889
-0.62,-0.36,7416.666666666667
-0.625,-0.355,7419.444444444444
-0.62,-0.355,7422.222222222223
-0.61,-0.375,7425.0
-0.615,-0.37,7427.777777777777
-0.625,-0.37,7430.555555555556
-0.6,-0.36,7433.333333333333
-0.585,-0.355,7436.111111111111
-0.565,-0.35,7438.888888888889
-0.545,-0.34,7441.666666666667
-0.53,-0.325,7444.444444444444
-0.51,-0.31,7447.222222222223
-0.505,-0.3,7450.0
-0.495,-0.295,7452.777777777777
-0.49,-0.3,7455.555555555556
-0.485,-0.32,7458.333333333333
-0.49,-0.345,7461.111111111111
-0.505,-0.375,7463.888888888889
-0.51,-0.385,7466.666666666667
-0.535,-0.405,7469.444444444444
-0.55,-0.405,7472.222222222223
-0.55,-0.395,7475.0
-0.545,-0.39,7477.777777777777
-0.54,-0.365,7480.555555555556
-0.535,-0.375,7483.333333333333
-0.53,-0.385,7486.111111111111
-0.55,-0.38,7488.888888888889
-0.56,-0.39,7491.666666666667
-0.58,-0.395,7494.444444444444
-0.605,-0.395,7497.222222222223
-0.64,-0.37,7500.0
-0.655,-0.345,7502.777777777777
-0.66,-0.35,7505.555555555556
-0.64,-0.35,7508.333333333333
-0.655,-0.35,7511.111111111111
-0.645,-0.355,7513.888888888889
-0.635,-0.37,7516.666666666667
-0.625,-0.37,7519.444444444444
-0.635,-0.375,7522.222222222223
-0.64,-0.37,7525.0
-0.64,-0.385,7527.777777777777
-0.64,-0.38,7530.555555555556
-0.625,-0.37,7533.333333333333
-0.61,-0.375,7536.111111111111
-0.58,-0.37,7538.888888888889
-0.545,-0.365,7541.666666666667
-0.495,-0.335,7544.444444444444
-0.4,-0.3,7547.222222222223
-0.22,-0.28,7550.0
0.055,-0.225,7552.777777777777
0.455,-0.195,7555.555555555556
0.905,-0.185,7558.333333333333
1.315,-0.215,7561.111111111111
1.565,-0.31,7563.888888888889
1.62,-0.47,7566.666666666667
1.355,-0.67,7569.444444444444
0.745,-0.865,7572.222222222223
0.105,-1.055,7575.0
-0.535,-1.17,7577.777777777777
-1.175,-1.175,7580.555555555556
-1.55,-1.11,7583.333333333333
-1.405,-0.96,7586.111111111111
-1.15,-0.83,7588.888888888889
-0.91,-0.71,7591.666666666667
-0.76,-0.62,7594.444444444444
-0.71,-0.565,7597.222222222223
-0.725,-0.51,7600.0
-0.755,-0.49,7602.777777777777
-0.775,-0.46,7605.555555555556
-0.77,-0.425,7608.333333333333
-0.76,-0.39,7611.111111111111
-0.735,-0.365,7613.888888888889
-0.725,-0.35,7616.666666666667
-0.72,-0.35,7619.444444444444
-0.735,-0.355,7622.222222222223
-0.745,-0.36,7625.0
-0.76,-0.355,7627.777777777777
-0.765,-0.365,7630.555555555556
-0.765,-0.35,7633.333333333333
-0.77,-0.335,7636.111111111111
-0.77,-0.32,7638.888888888889
-0.75,-0.305,7641.666666666667
-0.745,-0.3,7644.444444444444
-0.73,-0.295,7647.222222222223
-0.73,-0.305,7650.0
-0.715,-0.32,7652.777777777777
-0.725,-0.32,7655.555555555556
-0.745,-0.315,7658.333333333333
-0.745,-0.32,7661.111111111111
-0.75,-0.33,7663.888888888889
-0.735,-0.31,7666.666666666667
-0.735,-0.305,7669.444444444444
-0.725,-0.305,7672.222222222223
-0.7,-0.295,7675.0
-0.7,-0.295,7677.777777777777
-0.71,-0.28,7680.555555555556
-0.695,-0.275,7683.333333333333
-0.69,-0.28,7686.111111111111
-0.685,-0.295,7688.888888888889
-0.68,-0.295,7691.666666666667
-0.675,-0.31,7694.444444444444
-0.68,-0.315,7697.222222222223
-0.67,-0.31,7700.0
-0.67,-0.305,7702.777777777777
-0.665,-0.305,7705.555555555556
-0.65,-0.29,7708.333333333333
-0.635,-0.275,7711.111111111111
-0.62,-0.27,7713.888888888889
-0.615,-0.27,7716.666666666667
-0.61,-0.27,7719.444444444444
-0.605,-0.285,7722.222222222223
-0.605,-0.3,7725.0
-0.605,-0.31,7727.777777777777
-0.61,-0.31,7730.555555555556
-0.61,-0.295,7733.333333333333
-0.605,-0.295,7736.111111111111
-0.585,-0.28,7738.888888888889
-0.585,-0.275,7741.666666666667
-0.565,-0.27,7744.444444444444
-0.56,-0.28,7747.222222222223
-0.545,-0.28,7750.0
-0.54,-0.265,7752.777777777777
-0.545,-0.275,7755.555555555556
-0.555,-0.285,7758.333333333333
-0.545,-0.3,7761.111111111111
-0.525,-0.29,7763.888888888889
-0.53,-0.29,7766.666666666667
-0.52,-0.295,7769.444444444444
-0.515,-0.28,7772.222222222223
-0.505,-0.265,7775.0
-0.495,-0.26,7777.777777777777
-0.495,-0.245,7780.555555555556
-0.495,-0.26,7783.333333333333
-0.485,-0.25,7786.111111111111
-0.495,-0.27,7788.888888888889
-0.48,-0.28,7791.666666666667
-0.485,-0.29,7794.444444444444
-0.5,-0.295,7797.222222222223
-0.49,-0.28,7800.0
-0.485,-0.27,7802.777777777777
-0.47,-0.26,7805.555555555556
-0.46,-0.255,7808.333333333333
-0.455,-0.25,7811.111111111111
-0.445,-0.25,7813.888888888889
-0.42,-0.255,7816.666666666667
-0.43,-0.27,7819.444444444444
-0.43,-0.265,7822.222222222223
-0.42,-0.28,7825.0
-0.42,-0.295,7827.777777777777
-0.405,-0.3,7830.555555555556
-0.395,-0.305,7833.333333333333
-0.37,-0.295,7836.111111111111
-0.36,-0.3,7838.888888888889
-0.335,-0.305,7841.666666666667
-0.32,-0.3,7844.444444444444
-0.305,-0.295,7847.222222222223
-0.3,-0.305,7850.0
-0.295,-0.31,7852.777777777777
-0.295,-0.32,7855.555555555556
-0.305,-0.34,7858.333333333333
-0.32,-0.365,7861.111111111111
-0.35,-0.375,7863.888888888889
-0.385,-0.365,7866.666666666667
-0.37,-0.36,7869.444444444444
-0.385,-0.355,7872.222222222223
-0.4,-0.35,7875.0
-0.405,-0.345,7877.777777777777
-0.4,-0.35,7880.555555555556
-0.415,-0.355,7883.333333333333
-0.425,-0.38,7886.111111111111
-0.435,-0.375,7888.888888888889
-0.46,-0.38,7891.666666666667
-0.505,-0.385,7894.444444444444
-0.53,-0.39,7897.222222222223
-0.53,-0.375,7900.0
-0.54,-0.375,7902.777777777777
-0.54,-0.38,7905.555555555556
-0.545,-0.37,7908.333333333333
-0.545,-0.36,7911.111111111111
-0.545,-0.365,7913.888888888889
-0.55,-0.37,7916.666666666667
-0.555,-0.36,7919.444444444444
-0.57,-0.37,7922.222222222223
-0.58,-0.36,7925.0
-0.595,-0.375,7927.777777777777
-0.59,-0.375,7930.555555555556
-0.605,-0.385,7933.333333333333
-0.6,-0.38,7936.111111111111
-0.6,-0.38,7938.888888888889
-0.59,-0.38,7941.666666666667
-0.595,-0.36,7944.444444444444
-0.59,-0.355,7947.222222222223
-0.58,-0.35,7950.0
-0.59,-0.35,7952.777777777777
-0.585,-0.355,7955.555555555556
-0.59,-0.375,7958.333333333333
-0.6,-0.375,7961.111111111111
-0.605,-0.395,7963.888888888889
-0.61,-0.385,7966.666666666667
-0.6,-0.375,7969.444444444444
-0.585,-0.36,7972.222222222223
-0.565,-0.36,7975.0
-0.565,-0.36,7977.777777777777
-0.545,-0.345,7980.555555555556
-0.535,-0.36,7983.333333333333
-0.535,-0.36,7986.111111111111
-0.53,-0.36,7988.888888888889
-0.53,-0.365,7991.666666666667
-0.55,-0.375,7994.444444444444
-0.545,-0.38,7997.222222222223
-0.545,-0.365,8000.0
-0.535,-0.37,8002.777777777777
-0.52,-0.37,8005.555555555556
-0.51,-0.365,8008.333333333333
-0.505,-0.355,8011.111111111111
-0.505,-0.35,8013.888888888889
-0.505,-0.355,8016.666666666667
-0.5,-0.345,8019.444444444444
-0.51,-0.37,8022.222222222223
-0.505,-0.365,8025.0
-0.52,-0.385,8027.777777777777
-0.51,-0.39,8030.555555555556
-0.525,-0.385,8033.333333333333
-0.52,-0.38,8036.111111111111
-0.535,-0.375,8038.888888888889
-0.52,-0.37,8041.666666666667
-0.52,-0.355,8044.444444444444
-0.515,-0.34,8047.222222222223
-0.505,-0.36,8050.0
-0.505,-0.365,8052.777777777777
-0.515,-0.38,8055.555555555556
-0.53,-0.39,8058.333333333333
-0.535,-0.4,8061.111111111111
-0.535,-0.385,8063.888888888889
-0.555,-0.38,8066.666666666667
-0.555,-0.375,8069.444444444444
-0.57,-0.37,8072.222222222223
-0.545,-0.375,8075.0
-0.535,-0.375,8077.777777777777
-0.53,-0.36,8080.555555555556
-0.53,-0.37,8083.333333333333
-0.545,-0.37,8086.111111111111
-0.56,-0.37,8088.888888888889
-0.57,-0.38,8091.666666666667
-0.57,-0.375,8094.444444444444
-0.58,-0.385,8097.222222222223
-0.595,-0.39,8100.0
-0.59,-0.385,8102.777777777777
-0.595,-0.38,8105.555555555556
-0.585,-0.375,8108.333333333333
-0.585,-0.37,8111.111111111111
-0.575,-0.355,8113.888888888889
-0.58,-0.355,8116.666666666667
-0.58,-0.36,8119.444444444444
-0.575,-0.385,8122.222222222223
-0.585,-0.385,8125.0
-0.59,-0.385,8127.777777777777
-0.6,-0.4,8130.555555555556
-0.605,-0.39,8133.333333333333
-0.605,-0.38,8136.111111111111
-0.615,-0.375,8138.888888888889
-0.615,-0.365,8141.666666666667
-0.61,-0.365,8144.444444444444
-0.61,-0.36,8147.222222222223
-0.6,-0.365,8150.0
-0.605,-0.365,8152.777777777777
-0.62,-0.395,8155.555555555556
-0.63,-0.39,8158.333333333333
-0.64,-0.39,8161.111111111111
-0.66,-0.38,8163.888888888889
-0.655,-0.385,8166.666666666667
-0.645,-0.375,8169.444444444444
-0.64,-0.37,8172.222222222223
-0.625,-0.37,8175.0
-0.635,-0.365,8177.777777777777
-0.635,-0.375,8180.555555555556
-0.625,-0.375,8183.333333333333
-0.63,-0.365,8186.111111111111
-0.635,-0.375,8188.888888888889
-0.65,-0.375,8191.666666666667
-0.645,-0.395,8194.444444444445
-0.63,-0.39,8197.222222222223
-0.65,-0.385,8200.0
-0.65,-0.385,8202.777777777777
-0.645,-0.38,8205.555555555555
-0.645,-0.375,8208.333333333334
-0.645,-0.37,8211.111111111111
-0.635,-0.36,8213.888888888889
-0.625,-0.37,8216.666666666666
-0.62,-0.37,8219.444444444445
-0.625,-0.385,8222.222222222223
-0.645,-0.385,8225.0
-0.65,-0.39,8227.777777777777
-0.645,-0.395,8230.555555555555
-0.65,-0.385,8233.333333333334
-0.645,-0.375,8236.111111111111
-0.645,-0.365,8238.888888888889
-0.64,-0.385,8241.666666666666
-0.63,-0.38,8244.444444444445
-0.625,-0.365,8247.222222222223
-0.625,-0.375,8250.0
-0.645,-0.38,8252.777777777777
-0.645,-0.37,8255.555555555555
-0.645,-0.39,8258.333333333334
-0.625,-0.39,8261.111111111111
-0.635,-0.39,8263.888888888889
-0.635,-0.4,8266.666666666666
-0.625,-0.395,8269.444444444445
-0.61,-0.395,8272.222222222223
-0.595,-0.365,8275.0
-0.575,-0.365,8277.777777777777
-0.565,-0.36,8280.555555555555
-0.56,-0.35,8283.333333333334
-0.555,-0.35,8286.111111111111
-0.545,-0.36,8288.888888888889
-0.53,-0.36,8291.666666666666
-0.52,-0.36,8294.444444444445
-0.515,-0.35,8297.222222222223
-0.5,-0.345,8300.0
-0.5,-0.34,8302.777777777777
-0.495,-0.335,8305.555555555555
-0.475,-0.33,8308.333333333334
-0.475,-0.355,8311.111111111111
-0.475,-0.375,8313.888888888889
-0.485,-0.405,8316.666666666666
-0.515,-0.415,8319.444444444445
-0.52,-0.43,8322.222222222223
-0.525,-0.44,8325.0
-0.54,-0.445,8327.777777777777
-0.545,-0.44,8330.555555555555
-0.545,-0.415,8333.333333333334
-0.55,-0.4,8336.111111111111
-0.555,-0.395,8338.888888888889
-0.565,-0.39,8341.666666666666
-0.605,-0.385,8344.444444444445
-0.605,-0.38,8347.222222222223
-0.615,-0.375,8350.0
-0.63,-0.38,8352.777777777777
-0.635,-0.38,8355.555555555555
-0.64,-0.39,8358.333333333334
-0.635,-0.4,8361.111111111111
-0.64,-0.42,8363.888888888889
-0.635,-0.41,8366.666666666666
-0.635,-0.42,8369.444444444445
-0.625,-0.4,8372.222222222223
-0.625,-0.4,8375.0
-0.605,-0.385,8377.777777777777
-0.58,-0.36,8380.555555555555
-0.535,-0.365,8383.333333333334
-0.485,-0.365,8386.111111111111
-0.39,-0.355,8388.888888888889
-0.23,-0.315,8391.666666666666
0.025,-0.285,8394.444444444445
0.385,-0.24,8397.222222222223
0.8,-0.21,8400.0
1.205,-0.205,8402.777777777777
1.495,-0.255,8405.555555555555
1.625,-0.345,8408.333333333334
1.58,-0.495,8411.111111111111
1.29,-0.65,8413.888888888889
0.76,-0.82,8416.666666666666
0.12,-0.97,8419.444444444445
-0.52,-1.095,8422.222222222223
-1.16,-1.15,8425.0
-1.61,-1.145,8427.777777777777
-1.56,-1.06,8430.555555555555
-1.31,-0.945,8433.333333333334
-1.035,-0.85,8436.111111111111
-0.84,-0.75,8438.888888888889
-0.745,-0.66,8441.666666666666
-0.745,-0.585,8444.444444444445
-0.775,-0.54,8447.222222222223
-0.815,-0.5,8450.0
-0.825,-0.485,8452.777777777777
-0.81,-0.46,8455.555555555555
-0.785,-0.455,8458.333333333334
-0.75,-0.435,8461.111111111111
-0.735,-0.425,8463.888888888889
-0.745,-0.41,8466.666666666666
-0.745,-0.395,8469.444444444445
-0.775,-0.375,8472.222222222223
-0.785,-0.365,8475.0
-0.775,-0.345,8477.777777777777
-0.775,-0.345,8480.555555555555
-0.78,-0.34,8483.333333333334
-0.78,-0.345,8486.111111111111
-0.78,-0.355,8488.888888888889
-0.76,-0.35,8491.666666666666
-0.77,-0.35,8494.444444444445
-0.77,-0.35,8497.222222222223
-0.765,-0.35,8500.0
-0.775,-0.35,8502.777777777777
-0.765,-0.34,8505.555555555555
-0.74,-0.325,8508.333333333334
-0.74,-0.32,8511.111111111111
-0.735,-0.3,8513.888888888889
-0.72,-0.32,8516.666666666666
-0.72,-0.315,8519.444444444445
-0.725,-0.315,8522.222222222223
-0.725,-0.325,8525.0
-0.715,-0.335,8527.777777777777
-0.715,-0.335,8530.555555555555
-0.7,-0.335,8533.333333333334
-0.705,-0.35,8536.111111111111
-0.7,-0.32,8538.888888888889
-0.71,-0.315,8541.666666666666
-0.7,-0.295,8544.444444444445
-0.685,-0.29,8547.222222222223
-0.68,-0.3,8550.0
-0.675,-0.3,8552.777777777777
-0.675,-0.315,8555.555555555555
-0.675,-0.32,8558.333333333334
-0.675,-0.33,8561.111111111111
-0.665,-0.345,8563.888888888889
-0.655,-0.325,8566.666666666666
-0.655,-0.32,8569.444444444445
-0.635,-0.32,8572.222222222223
-0.625,-0.305,8575.0
-0.625,-0.305,8577.777777777777
-0.605,-0.3,8580.555555555555
-0.59,-0.3,8583.333333333334
-0.595,-0.31,8586.111111111111
-0.595,-0.31,8588.888888888889
-0.595,-0.315,8591.666666666666
-0.59,-0.32,8594.444444444445
-0.585,-0.32,8597.222222222223
-0.585,-0.305,8600.0
-0.57,-0.32,8602.777777777777
-0.56,-0.305,8605.555555555555
-0.545,-0.305,8608.333333333334
-0.54,-0.3,8611.111111111111
-0.525,-0.28,8613.888888888889
-0.535,-0.295,8616.666666666666
-0.535,-0.285,8619.444444444445
-0.52,-0.295,8622.222222222223
-0.525,-0.295,8625.0
-0.515,-0.3,8627.777777777777
-0.535,-0.315,8630.555555555555
-0.53,-0.32,8633.333333333334
-0.52,-0.305,8636.111111111111
-0.515,-0.295,8638.888888888889
-0.505,-0.28,8641.666666666666
-0.5,-0.28,8644.444444444445
-0.495,-0.265,8647.222222222223
-0.485,-0.265,8650.0
-0.485,-0.29,8652.777777777777
-0.485,-0.285,8655.555555555555
-0.5,-0.295,8658.333333333334
-0.495,-0.29,8661.111111111111
-0.505,-0.29,8663.888888888889
-0.5,-0.29,8666.666666666666
-0.5,-0.29,8669.444444444445
-0.485,-0.28,8672.222222222223
-0.475,-0.285,8675.0
-0.465,-0.28,8677.777777777777
-0.45,-0.28,8680.555555555555
-0.445,-0.285,8683.333333333334
-0.44,-0.285,8686.111111111111
-0.44,-0.295,8688.888888888889
-0.44,-0.305,8691.666666666666
-0.44,-0.305,8694.444444444445
-0.435,-0.32,8697.222222222223
-0.44,-0.32,8700.0
-0.42,-0.32,8702.777777777777
-0.405,-0.32,8705.555555555555
-0.375,-0.335,8708.333333333334
-0.355,-0.32,8711.111111111111
-0.35,-0.315,8713.888888888889
-0.345,-0.33,8716.666666666666
-0.36,-0.33,8719.444444444445
-0.355,-0.345,8722.222222222223
-0.37,-0.36,8725.0
-0.405,-0.375,8727.777777777777
-0.42,-0.38,8730.555555555555
-0.435,-0.38,8733.333333333334
-0.445,-0.385,8736.111111111111
-0.46,-0.375,8738.888888888889
-0.465,-0.355,8741.666666666666
-0.475,-0.355,8744.444444444445
-0.47,-0.35,8747.222222222223
-0.485,-0.375,8750.0
-0.5,-0.38,8752.777777777777
-0.52,-0.395,8755.555555555555
-0.55,-0.395,8758.333333333334
-0.565,-0.395,8761.111111111111
-0.585,-0.395,8763.888888888889
-0.595,-0.39,8766.666666666666
-0.605,-0.38,8769.444444444445
-0.605,-0.385,8772.222222222223
-0.605,-0.38,8775.0
-0.6,-0.375,8777.777777777777
-0.6,-0.37,8780.555555555555
-0.595,-0.375,8783.333333333334
-0.605,-0.38,8786.111111111111
-0.6,-0.38,8788.888888888889
-0.62,-0.39,8791.666666666666
-0.625,-0.395,8794.444444444445
-0.625,-0.4,8797.222222222223
-0.63,-0.41,8800.0
-0.625,-0.385,8802.777777777777
-0.63,-0.38,8805.555555555555
-0.62,-0.37,8808.333333333334
-0.62,-0.365,8811.111111111111
-0.615,-0.36,8813.888888888889
-0.605,-0.35,8816.666666666666
-0.59,-0.365,8819.444444444445
-0.585,-0.375,8822.222222222223
-0.585,-0.395,8825.0
-0.59,-0.4,8827.777777777777
-0.585,-0.395,8830.555555555555
-0.595,-0.39,8833.333333333334
-0.585,-0.385,8836.111111111111
-0.59,-0.37,8838.888888888889
-0.57,-0.355,8841.666666666666
-0.56,-0.36,8844.444444444445
-0.54,-0.36,8847.222222222223
-0.545,-0.36,8850.0
-0.545,-0.365,8852.777777777777
-0.545,-0.37,8855.555555555555
-0.545,-0.38,8858.333333333334
-0.54,-0.375,8861.111111111111
-0.535,-0.385,8863.888888888889
-0.53,-0.38,8866.666666666666
-0.525,-0.385,8869.444444444445
-0.51,-0.375,8872.222222222223
-0.51,-0.37,8875.0
-0.515,-0.36,8877.777777777777
-0.52,-0.35,8880.555555555555
-0.505,-0.355,8883.333333333334
-0.525,-0.365,8886.111111111111
-0.51,-0.375,8888.888888888889
-0.5,-0.395,8891.666666666666
-0.52,-0.405,8894.444444444445
-0.53,-0.41,8897.222222222223
-0.54,-0.4,8900.0
-0.55,-0.385,8902.777777777777
-0.535,-0.385,8905.555555555555
-0.54,-0.365,8908.333333333334
-0.535,-0.37,8911.111111111111
-0.545,-0.35,8913.888888888889
-0.53,-0.375,8916.666666666666
-0.54,-0.385,8919.444444444445
-0.55,-0.39,8922.222222222223
-0.56,-0.39,8925.0
-0.555,-0.39,8927.777777777777
-0.57,-0.405,8930.555555555555
-0.565,-0.4,8933.333333333334
-0.565,-0.395,8936.111111111111
-0.57,-0.38,8938.888888888889
-0.565,-0.385,8941.666666666666
-0.565,-0.37,8944.444444444445
-0.565,-0.365,8947.222222222223
-0.575,-0.36,8950.0
-0.59,-0.37,8952.777777777777
-0.595,-0.375,8955.555555555555
-0.6,-0.4,8958.333333333334
-0.61,-0.395,8961.111111111111
-0.62,-0.415,8963.888888888889
-0.62,-0.405,8966.666666666666
-0.63,-0.395,8969.444444444445
-0.625,-0.38,8972.222222222223
-0.615,-0.37,8975.0
-0.6,-0.375,8977.777777777777
-0.595,-0.365,8980.555555555555
-0.6,-0.37,8983.333333333334
-0.615,-0.385,8986.111111111111
-0.635,-0.395,8988.888888888889
-0.635,-0.4,8991.666666666666
-0.65,-0.395,8994.444444444445
-0.66,-0.39,8997.222222222223
-0.655,-0.405,9000.0
-0.65,-0.4,9002.777777777777
-0.645,-0.395,9005.555555555555
-0.625,-0.39,9008.333333333334
-0.625,-0.39,9011.111111111111
-0.625,-0.365,9013.888888888889
-0.62,-0.365,9016.666666666666
-0.63,-0.37,9019.444444444445
-0.625,-0.375,9022.222222222223
-0.635,-0.385,9025.0
-0.65,-0.405,9027.777777777777
-0.66,-0.41,9030.555555555555
-0.665,-0.41,9033.333333333334
-0.66,-0.41,9036.111111111111
-0.665,-0.4,9038.888888888889
-0.655,-0.39,9041.666666666666
-0.66,-0.385,9044.444444444445
-0.64,-0.37,9047.222222222223
-0.625,-0.38,9050.0
-0.63,-0.395,9052.777777777777
-0.64,-0.395,9055.555555555555
-0.64,-0.4,9058.333333333334
-0.68,-0.4,9061.111111111111
-0.68,-0.39,9063.888888888889
-0.67,-0.4,9066.666666666666
-0.67,-0.385,9069.444444444445
-0.66,-0.405,9072.222222222223
-0.65,-0.4,9075.0
-0.65,-0.39,9077.777777777777
-0.645,-0.37,9080.555555555555
-0.655,-0.375,9083.333333333334
-0.65,-0.38,9086.111111111111
-0.64,-0.385,9088.888888888889
-0.66,-0.39,9091.666666666666
-0.67,-0.415,9094.444444444445
-0.66,-0.405,9097.222222222223
-0.675,-0.42,9100.0
-0.665,-0.405,9102.777777777777
-0.66,-0.4,9105.555555555555
-0.645,-0.395,9108.333333333334
-0.645,-0.375,9111.111111111111
-0.635,-0.365,9113.888888888889
-0.62,-0.37,9116.666666666666
-0.605,-0.37,9119.444444444445
-0.59,-0.385,9122.222222222223
-0.585,-0.4,9125.0
-0.575,-0.405,9127.777777777777
-0.565,-0.39,9130.555555555555
-0.565,-0.385,9133.333333333334
-0.55,-0.375,9136.111111111111
-0.53,-0.35,9138.888888888889
-0.52,-0.325,9141.666666666666
-0.505,-0.315,9144.444444444445
-0.48,-0.32,9147.222222222223
-0.485,-0.335,9150.0
-0.485,-0.35,9152.777777777777
-0.495,-0.375,9155.555555555555
-0.515,-0.4,9158.333333333334
-0.54,-0.43,9161.111111111111
-0.56,-0.445,9163.888888888889
-0.565,-0.455,9166.666666666666
-0.555,-0.445,9169.444444444445
-0.54,-0.44,9172.222222222223
-0.535,-0.43,9175.0
-0.545,-0.4,9177.777777777777
-0.54,-0.39,9180.555555555555
-0.57,-0.39,9183.333333333334
-0.575,-0.375,9186.111111111111
-0.595,-0.395,9188.888888888889
-0.625,-0.395,9191.666666666666
-0.65,-0.405,9194.444444444445
-0.66,-0.425,9197.222222222223
-0.67,-0.425,9200.0
-0.665,-0.425,9202.777777777777
-0.655,-0.41,9205.555555555555
-0.64,-0.41,9208.333333333334
-0.635,-0.4,9211.111111111111
-0.635,-0.39,9213.888888888889
-0.61,-0.405,9216.666666666666
-0.6,-0.4,9219.444444444445
-0.58,-0.4,9222.222222222223
-0.575,-0.415,9225.0
-0.55,-0.415,9227.777777777777
-0.51,-0.4,9230.555555555555
-0.43,-0.39,9233.333333333334
-0.28,-0.36,9236.111111111111
-0.035,-0.325,9238.888888888889
0.31,-0.265,9241.666666666666
0.705,-0.23,9244.444444444445
1.105,-0.22,9247.222222222223
1.43,-0.255,9250.0
1.56,-0.345,9252.777777777777
1.5,-0.48,9255.555555555555
1.185,-0.64,9258.333333333334
0.575,-0.83,9261.111111111111
-0.065,-0.995,9263.888888888889
-0.705,-1.1,9266.666666666666
-1.345,-1.115,9269.444444444445
-1.685,-1.065,9272.222222222223
-1.54,-0.96,9275.0
-1.255,-0.83,9277.777777777777
-0.99,-0.715,9280.555555555555
-0.805,-0.625,9283.333333333334
-0.74,-0.575,9286.111111111111
-0.73,-0.53,9288.888888888889
-0.76,-0.51,9291.666666666666
-0.78,-0.49,9294.444444444445
-0.8,-0.475,9297.222222222223
-0.79,-0.44,9300.0
-0.77,-0.42,9302.777777777777
-0.75,-0.41,9305.555555555555
-0.745,-0.39,9308.333333333334
-0.74,-0.38,9311.111111111111
-0.75,-0.38,9313.888888888889
-0.755,-0.375,9316.666666666666
-0.755,-0.37,9319.444444444445
-0.76,-0.36,9322.222222222223
-0.755,-0.365,9325.0
-0.755,-0.375,9327.777777777777
-0.77,-0.37,9330.555555555555
-0.775,-0.38,9333.333333333334
-0.75,-0.375,9336.111111111111
-0.75,-0.36,9338.888888888889
-0.745,-0.35,9341.666666666666
-0.74,-0.34,9344.444444444445
-0.735,-0.33,9347.222222222223
-0.725,-0.34,9350.0
-0.73,-0.345,9352.777777777777
-0.715,-0.355,9355.555555555555
-0.715,-0.355,9358.333333333334
-0.715,-0.355,9361.111111111111
-0.715,-0.365,9363.888888888889
-0.72,-0.36,9366.666666666666
-0.705,-0.35,9369.444444444445
-0.68,-0.34,9372.222222222223
-0.67,-0.335,9375.0
-0.665,-0.345,9377.777777777777
-0.665,-0.325,9380.555555555555
-0.67,-0.325,9383.333333333334
-0.66,-0.32,9386.111111111111
-0.66,-0.325,9388.888888888889
-0.655,-0.335,9391.666666666666
-0.685,-0.34,9394.444444444445
-0.66,-0.34,9397.222222222223
-0.655,-0.355,9400.0
-0.67,-0.35,9402.777777777777
-0.655,-0.35,9405.555555555555
-0.63,-0.335,9408.333333333334
-0.61,-0.33,9411.111111111111
-0.6,-0.315,9413.888888888889
-0.59,-0.305,9416.666666666666
-0.59,-0.315,9419.444444444445
-0.59,-0.315,9422.222222222223
-0.6,-0.33,9425.0
-0.59,-0.335,9427.777777777777
-0.6,-0.335,9430.555555555555
-0.595,-0.33,9433.333333333334
-0.6,-0.335,9436.111111111111
-0.585,-0.32,9438.888888888889
-0.585,-0.32,9441.666666666666
-0.555,-0.31,9444.444444444445
-0.545,-0.31,9447.222222222223
-0.53,-0.31,9450.0
-0.53,-0.315,9452.777777777777
-0.535,-0.315,9455.555555555555
-0.53,-0.315,9458.333333333334
-0.525,-0.315,9461.111111111111
-0.535,-0.315,9463.888888888889
-0.53,-0.32,9466.666666666666
-0.525,-0.315,9469.444444444445
-0.525,-0.315,9472.222222222223
-0.52,-0.31,9475.0
-0.53,-0.3,9477.777777777777
-0.525,-0.29,9480.555555555555
-0.535,-0.29,9483.333333333334
-0.52,-0.295,9486.111111111111
-0.52,-0.3,9488.888888888889
-0.52,-0.305,9491.666666666666
-0.525,-0.31,9494.444444444445
-0.52,-0.315,9497.222222222223
-0.52,-0.33,9500.0
-0.52,-0.31,9502.777777777777
-0.51,-0.305,9505.555555555555
-0.5,-0.29,9508.333333333334
-0.5,-0.29,9511.111111111111
-0.495,-0.28,9513.888888888889
-0.49,-0.285,9516.666666666666
-0.485,-0.31,9519.444444444445
-0.475,-0.31,9522.222222222223
-0.47,-0.325,9525.0
-0.46,-0.335,9527.777777777777
-0.465,-0.34,9530.555555555555
-0.45,-0.325,9533.333333333334
-0.435,-0.325,9536.111111111111
-0.41,-0.32,9538.888888888889
-0.39,-0.33,9541.666666666666
-0.37,-0.34,9544.444444444445
-0.365,-0.335,9547.222222222223
-0.355,-0.36,9550.0
-0.37,-0.36,9552.777777777777
-0.385,-0.36,9555.555555555555
-0.4,-0.37,9558.333333333334
-0.425,-0.385,9561.111111111111
-0.445,-0.38,9563.888888888889
-0.455,-0.385,9566.666666666666
-0.475,-0.385,9569.444444444445
-0.48,-0.385,9572.222222222223
-0.485,-0.395,9575.0
-0.505,-0.39,9577.777777777777
-0.505,-0.395,9580.555555555555
-0.51,-0.38,9583.333333333334
-0.52,-0.385,9586.111111111111
-0.53,-0.39,9588.888888888889
-0.56,-0.41,9591.666666666666
-0.57,-0.41,9594.444444444445
-0.59,-0.42,9597.222222222223
-0.61,-0.41,9600.0
-0.63,-0.395,9602.777777777777
-0.615,-0.39,9605.555555555555
-0.64,-0.385,9608.333333333334
-0.635,-0.375,9611.111111111111
-0.625,-0.39,9613.888888888889
-0.615,-0.41,9616.666666666666
-0.615,-0.4,9619.444444444445
-0.625,-0.405,9622.222222222223
-0.645,-0.415,9625.0
-0.64,-0.41,9627.777777777777
-0.65,-0.405,9630.555555555555
-0.66,-0.4,9633.333333333334
-0.635,-0.405,9636.111111111111
-0.625,-0.405,9638.888888888889
-0.63,-0.4,9641.666666666666
-0.625,-0.39,9644.444444444445
-0.62,-0.38,9647.222222222223
-0.615,-0.395,9650.0
-0.615,-0.385,9652.777777777777
-0.6,-0.38,9655.555555555555
-0.615,-0.41,9658.333333333334
-0.605,-0.4,9661.111111111111
-0.605,-0.42,9663.888888888889
-0.595,-0.42,9666.666666666666
-0.59,-0.41,9669.444444444445
-0.585,-0.4,9672.222222222223
-0.58,-0.385,9675.0
-0.57,-0.38,9677.777777777777
-0.575,-0.37,9680.555555555555
-0.56,-0.39,9683.333333333334
-0.555,-0.4,9686.111111111111
-0.56,-0.4,9688.888888888889
-0.56,-0.4,9691.666666666666
-0.55,-0.405,9694.444444444445
-0.555,-0.405,9697.222222222223
-0.56,-0.4,9700.0
-0.555,-0.405,9702.777777777777
-0.555,-0.405,9705.555555555555
-0.55,-0.395,9708.333333333334
-0.53,-0.385,9711.111111111111
-0.525,-0.38,9713.888888888889
-0.52,-0.37,9716.666666666666
-0.52,-0.39,9719.444444444445
-0.525,-0.4,9722.222222222223
-0.53,-0.405,9725.0
-0.545,-0.41,9727.777777777777
-0.545,-0.415,9730.555555555555
-0.56,-0.42,9733.333333333334
-0.56,-0.4,9736.111111111111
-0.55,-0.41,9738.888888888889
-0.545,-0.395,9741.666666666666
-0.55,-0.38,9744.444444444445
-0.545,-0.38,9747.222222222223
-0.53,-0.39,9750.0
-0.545,-0.39,9752.777777777777
-0.565,-0.4,9755.555555555555
-0.59,-0.395,9758.333333333334
-0.605,-0.4,9761.111111111111
-0.605,-0.4,9763.888888888889
-0.615,-0.405,9766.666666666666
-0.625,-0.405,9769.444444444445
-0.61,-0.405,9772.222222222223
-0.64,-0.4,9775.0
-0.62,-0.39,9777.777777777777
-0.62,-0.39,9780.555555555555
-0.6,-0.385,9783.333333333334
-0.595,-0.395,9786.111111111111
-0.605,-0.395,9788.888888888889
-0.605,-0.41,9791.666666666666
-0.615,-0.4,9794.444444444445
-0.635,-0.415,9797.222222222223
-0.645,-0.405,9800.0
-0.645,-0.395,9802.777777777777
-0.64,-0.4,9805.555555555555
-0.64,-0.395,9808.333333333334
-0.64,-0.39,9811.111111111111
-0.64,-0.385,9813.888888888889
-0.62,-0.385,9816.666666666666
-0.625,-0.4,9819.444444444445
-0.62,-0.4,9822.222222222223
-0.64,-0.405,9825.0
-0.645,-0.4,9827.777777777777
-0.655,-0.405,9830.555555555555
-0.67,-0.415,9833.333333333334
-0.665,-0.405,9836.111111111111
-0.65,-0.405,9838.888888888889
-0.645,-0.395,9841.666666666666
-0.645,-0.395,9844.444444444445
-0.65,-0.39,9847.222222222223
-0.645,-0.39,9850.0
-0.655,-0.395,9852.777777777777
-0.655,-0.405,9855.555555555555
-0.675,-0.42,9858.333333333334
-0.665,-0.425,9861.111111111111
-0.665,-0.42,9863.888888888889
-0.67,-0.415,9866.666666666666
-0.675,-0.405,9869.444444444445
-0.665,-0.405,9872.222222222223
-0.665,-0.395,9875.0
-0.66,-0.385,9877.777777777777
-0.65,-0.385,9880.555555555555
-0.64,-0.385,9883.333333333334
-0.65,-0.4,9886.111111111111
-0.655,-0.405,9888.888888888889
-0.66,-0.41,9891.666666666666
-0.665,-0.41,9894.444444444445
-0.675,-0.405,9897.222222222223
-0.665,-0.4,9900.0
-0.67,-0.4,9902.777777777777
-0.67,-0.405,9905.555555555555
-0.66,-0.4,9908.333333333334
-0.655,-0.405,9911.111111111111
-0.655,-0.39,9913.888888888889
-0.645,-0.39,9916.666666666666
-0.645,-0.395,9919.444444444445
-0.64,-0.385,9922.222222222223
-0.645,-0.4,9925.0
-0.66,-0.415,9927.777777777777
-0.645,-0.41,9930.555555555555
-0.635,-0.415,9933.333333333334
-0.625,-0.41,9936.111111111111
-0.62,-0.39,9938.888888888889
-0.61,-0.385,9941.666666666666
-0.58,-0.38,9944.444444444445
-0.57,-0.375,9947.222222222223
-0.545,-0.365,9950.0
-0.545,-0.375,9952.777777777777
-0.52,-0.36,9955.555555555555
-0.525,-0.365,9958.333333333334
-0.515,-0.355,9961.111111111111
-0.515,-0.345,9963.888888888889
-0.51,-0.35,9966.666666666666
-0.505,-0.355,9969.444444444445
-0.52,-0.375,9972.222222222223
-0.52,-0.4,9975.0
-0.535,-0.42,9977.777777777777
-0.55,-0.43,9980.555555555555
-0.555,-0.43,9983.333333333334
-0.555,-0.43,9986.111111111111
-0.555,-0.43,9988.888888888889
-0.555,-0.435,9991.666666666666
-0.565,-0.42,9994.444444444445
-0.58,-0.43,9997.222222222223
-0.6,-0.435,10000.0
-0.62,-0.41,10002.777777777777
-0.645,-0.415,10005.555555555555
-0.66,-0.385,10008.333333333334
-0.68,-0.39,10011.111111111111
-0.675,-0.395,10013.888888888889
-0.65,-0.405,10016.666666666666
-0.655,-0.415,10019.444444444445
-0.655,-0.415,10022.222222222223
-0.64,-0.425,10025.0
-0.65,-0.425,10027.777777777777
-0.645,-0.415,10030.555555555555
-0.635,-0.42,10033.333333333334
-0.625,-0.4,10036.111111111111
-0.595,-0.42,10038.888888888889
-0.545,-0.4,10041.666666666666
-0.465,-0.385,10044.444444444445
-0.35,-0.355,10047.222222222223
-0.155,-0.325,10050.0
0.1,-0.28,10052.777777777777
0.46,-0.26,10055.555555555555
0.85,-0.22,10058.333333333334
1.21,-0.25,10061.111111111111
1.46,-0.32,10063.888888888889
1.53,-0.43,10066.666666666666
1.375,-0.555,10069.444444444445
0.945,-0.715,10072.222222222223
0.305,-0.875,10075.0
-0.335,-1.01,10077.777777777777
-0.975,-1.095,10080.555555555555
-1.615,-1.105,10083.333333333334
-1.64,-1.03,10086.111111111111
-1.435,-0.925,10088.888888888889
-1.165,-0.82,10091.666666666666
-0.945,-0.72,10094.444444444445
-0.83,-0.635,10097.222222222223
-0.81,-0.575,10100.0
-0.84,-0.54,10102.777777777777
-0.845,-0.515,10105.555555555555
-0.835,-0.485,10108.333333333334
-0.81,-0.465,10111.111111111111
-0.775,-0.435,10113.888888888889
-0.755,-0.42,10116.666666666666
-0.745,-0.405,10119.444444444445
-0.76,-0.395,10122.222222222223
-0.77,-0.39,10125.0
-0.78,-0.405,10127.777777777777
-0.79,-0.405,10130.555555555555
-0.805,-0.405,10133.333333333334
-0.81,-0.395,10136.111111111111
-0.8,-0.39,10138.888888888889
-0.79,-0.37,10141.666666666666
-0.78,-0.355,10144.444444444445
-0.78,-0.345,10147.222222222223
-0.775,-0.345,10150.0
-0.77,-0.35,10152.777777777777
-0.765,-0.365,10155.555555555555
-0.775,-0.375,10158.333333333334
-0.77,-0.385,10161.111111111111
-0.775,-0.385,10163.888888888889
-0.775,-0.37,10166.666666666666
-0.76,-0.375,10169.444444444445
-0.755,-0.36,10172.222222222223
-0.745,-0.335,10175.0
-0.73,-0.345,10177.777777777777
-0.725,-0.34,10180.555555555555
-0.715,-0.34,10183.333333333334
-0.715,-0.355,10186.111111111111
-0.72,-0.35,10188.888888888889
-0.72,-0.37,10191.666666666666
-0.725,-0.365,10194.444444444445
-0.72,-0.36,10197.222222222223
-0.715,-0.36,10200.0
-0.7,-0.345,10202.777777777777
-0.715,-0.345,10205.555555555555
-0.7,-0.35,10208.333333333334
-0.675,-0.33,10211.111111111111
-0.665,-0.32,10213.888888888889
-0.66,-0.325,10216.666666666666
-0.65,-0.32,10219.444444444445
-0.645,-0.33,10222.222222222223
-0.65,-0.35,10225.0
-0.635,-0.36,10227.777777777777
-0.64,-0.365,10230.555555555555
-0.635,-0.35,10233.333333333334
-0.635,-0.34,10236.111111111111
-0.63,-0.335,10238.888888888889
-0.625,-0.325,10241.666666666666
-0.62,-0.31,10244.444444444445
-0.605,-0.31,10247.222222222223
-0.58,-0.32,10250.0
-0.585,-0.33,10252.777777777777
-0.575,-0.33,10255.555555555555
-0.58,-0.34,10258.333333333334
-0.585,-0.34,10261.111111111111
-0.585,-0.335,10263.888888888889
-0.585,-0.335,10266.666666666666
-0.58,-0.34,10269.444444444445
-0.56,-0.33,10272.222222222223
-0.555,-0.33,10275.0
-0.54,-0.32,10277.777777777777
-0.525,-0.3,10280.555555555555
-0.54,-0.305,10283.333333333334
-0.545,-0.31,10286.111111111111
-0.55,-0.3,10288.888888888889
-0.54,-0.315,10291.666666666666
-0.54,-0.315,10294.444444444445
-0.56,-0.33,10297.222222222223
-0.57,-0.325,10300.0
-0.555,-0.32,10302.777777777777
-0.565,-0.305,10305.555555555555
-0.56,-0.3,10308.333333333334
-0.53,-0.29,10311.111111111111
-0.535,-0.28,10313.888888888889
-0.51,-0.29,10316.666666666666
-0.51,-0.3,10319.444444444445
-0.52,-0.295,10322.222222222223
-0.51,-0.32,10325.0
-0.525,-0.33,10327.777777777777
-0.525,-0.325,10330.555555555555
-0.53,-0.33,10333.333333333334
-0.525,-0.315,10336.111111111111
-0.515,-0.305,10338.888888888889
-0.485,-0.315,10341.666666666666
-0.47,-0.31,10344.444444444445
-0.465,-0.31,10347.222222222223
-0.43,-0.315,10350.0
-0.425,-0.325,10352.777777777777
-0.41,-0.34,10355.555555555555
-0.41,-0.34,10358.333333333334
-0.41,-0.36,10361.111111111111
-0.43,-0.37,10363.888888888889
-0.435,-0.375,10366.666666666666
-0.43,-0.39,10369.444444444445
-0.425,-0.38,10372.222222222223
-0.45,-0.39,10375.0
-0.45,-0.395,10377.777777777777
-0.465,-0.365,10380.555555555555
-0.465,-0.37,10383.333333333334
-0.485,-0.375,10386.111111111111
-0.495,-0.395,10388.888888888889
-0.515,-0.4,10391.666666666666
-0.515,-0.415,10394.444444444445
-0.535,-0.43,10397.222222222223
-0.565,-0.435,10400.0
-0.59,-0.415,10402.777777777777
-0.595,-0.41,10405.555555555555
-0.6,-0.395,10408.333333333334
-0.61,-0.39,10411.111111111111
-0.62,-0.39,10413.888888888889
-0.61,-0.385,10416.666666666666
-0.605,-0.405,10419.444444444445
-0.625,-0.395,10422.222222222223
-0.635,-0.405,10425.0
-0.65,-0.41,10427.777777777777
-0.66,-0.415,10430.555555555555
-0.68,-0.41,10433.333333333334
-0.665,-0.41,10436.111111111111
-0.65,-0.41,10438.888888888889
-0.65,-0.415,10441.666666666666
-0.65,-0.395,10444.444444444445
-0.64,-0.38,10447.222222222223
-0.645,-0.385,10450.0
-0.635,-0.395,10452.777777777777
-0.64,-0.395,10455.555555555555
-0.635,-0.415,10458.333333333334
-0.645,-0.41,10461.111111111111
-0.64,-0.42,10463.888888888889
-0.645,-0.415,10466.666666666666
-0.645,-0.42,10469.444444444445
-0.635,-0.405,10472.222222222223
-0.625,-0.395,10475.0
-0.62,-0.38,10477.777777777777
-0.605,-0.375,10480.555555555555
-0.59,-0.385,10483.333333333334
-0.585,-0.39,10486.111111111111
-0.585,-0.405,10488.888888888889
-0.585,-0.405,10491.666666666666
-0.59,-0.42,10494.444444444445
-0.6,-0.415,10497.222222222223
-0.61,-0.41,10500.0
-0.59,-0.4,10502.777777777777
-0.59,-0.395,10505.555555555555
-0.575,-0.4,10508.333333333334
-0.555,-0.4,10511.111111111111
-0.555,-0.405,10513.888888888889
-0.55,-0.375,10516.666666666666
-0.55,-0.39,10519.444444444445
-0.55,-0.39,10522.222222222223
-0.56,-0.4,10525.0
-0.555,-0.41,10527.777777777777
-0.56,-0.42,10530.555555555555
-0.555,-0.425,10533.333333333334
-0.56,-0.42,10536.111111111111
-0.57,-0.42,10538.888888888889
-0.565,-0.4,10541.666666666666
-0.57,-0.39,10544.444444444445
-0.55,-0.385,10547.222222222223
-0.545,-0.38,10550.0
-0.55,-0.395,10552.777777777777
-0.55,-0.4,10555.555555555555
-0.56,-0.405,10558.333333333334
-0.565,-0.42,10561.111111111111
-0.575,-0.42,10563.888888888889
-0.59,-0.415,10566.666666666666
-0.595,-0.4,10569.444444444445
-0.59,-0.415,10572.222222222223
-0.59,-0.41,10575.0
-0.58,-0.39,10577.777777777777
-0.585,-0.4,10580.555555555555
-0.585,-0.4,10583.333333333334
-0.59,-0.39,10586.111111111111
-0.6,-0.4,10588.888888888889
-0.605,-0.405,10591.666666666666
-0.61,-0.415,10594.444444444445
-0.615,-0.415,10597.222222222223
-0.63,-0.435,10600.0
-0.63,-0.41,10602.777777777777
-0.625,-0.425,10605.555555555555
-0.62,-0.41,10608.333333333334
-0.63,-0.4,10611.111111111111
-0.635,-0.39,10613.888888888889
-0.63,-0.39,10616.666666666666
-0.63,-0.395,10619.444444444445
-0.62,-0.41,10622.222222222223
-0.63,-0.425,10625.0
-0.625,-0.425,10627.777777777777
-0.65,-0.43,10630.555555555555
-0.655,-0.43,10633.333333333334
-0.655,-0.42,10636.111111111111
-0.665,-0.41,10638.888888888889
-0.65,-0.405,10641.666666666666
-0.665,-0.405,10644.444444444445
-0.655,-0.395,10647.222222222223
-0.65,-0.395,10650.0
-0.66,-0.405,10652.777777777777
-0.665,-0.4,10655.555555555555
-0.675,-0.405,10658.333333333334
-0.68,-0.41,10661.111111111111
-0.685,-0.42,10663.888888888889
-0.68,-0.42,10666.666666666666
-0.67,-0.42,10669.444444444445
-0.67,-0.42,10672.222222222223
-0.675,-0.41,10675.0
-0.68,-0.405,10677.777777777777
-0.66,-0.4,10680.555555555555
-0.655,-0.385,10683.333333333334
-0.66,-0.38,10686.111111111111
-0.66,-0.4,10688.888888888889
-0.655,-0.405,10691.666666666666
-0.66,-0.42,10694.444444444445
-0.67,-0.435,10697.222222222223
-0.685,-0.425,10700.0
-0.69,-0.415,10702.777777777777
-0.68,-0.4,10705.555555555555
-0.68,-0.39,10708.333333333334
-0.66,-0.39,10711.111111111111
-0.66,-0.395,10713.888888888889
-0.645,-0.39,10716.666666666666
-0.645,-0.405,10719.444444444445
-0.65,-0.41,10722.222222222223
-0.66,-0.41,10725.0
-0.67,-0.405,10727.777777777777
-0.675,-0.405,10730.555555555555
-0.675,-0.405,10733.333333333334
-0.68,-0.4,10736.111111111111
-0.675,-0.405,10738.888888888889
-0.67,-0.41,10741.666666666666
-0.66,-0.41,10744.444444444445
-0.66,-0.4,10747.222222222223
-0.65,-0.39,10750.0
-0.655,-0.39,10752.777777777777
-0.645,-0.39,10755.555555555555
-0.66,-0.405,10758.333333333334
-0.665,-0.4,10761.111111111111
-0.66,-0.41,10763.888888888889
-0.66,-0.42,10766.666666666666
-0.645,-0.415,10769.444444444445
-0.63,-0.41,10772.222222222223
-0.63,-0.405,10775.0
-0.61,-0.375,10777.777777777777
-0.6,-0.38,10780.555555555555
-0.575,-0.37,10783.333333333334
-0.56,-0.365,10786.111111111111
-0.545,-0.365,10788.888888888889
-0.545,-0.35,10791.666666666666
-0.53,-0.36,10794.444444444445
-0.525,-0.35,10797.222222222223
-0.52,-0.365,10800.0
-0.51,-0.365,10802.777777777777
-0.51,-0.38,10805.555555555555
-0.515,-0.39,10808.333333333334
-0.53,-0.41,10811.111111111111
-0.54,-0.43,10813.888888888889
-0.535,-0.435,10816.666666666666
-0.545,-0.45,10819.444444444445
-0.55,-0.44,10822.222222222223
-0.565,-0.435,10825.0
-0.565,-0.43,10827.777777777777
-0.585,-0.43,10830.555555555555
-0.595,-0.435,10833.333333333334
-0.605,-0.425,10836.111111111111
-0.64,-0.415,10838.888888888889
-0.65,-0.395,10841.666666666666
-0.64,-0.4,10844.444444444445
-0.65,-0.4,10847.222222222223
-0.64,-0.39,10850.0
-0.635,-0.385,10852.777777777777
-0.64,-0.405,10855.555555555555
-0.64,-0.415,10858.333333333334
-0.64,-0.43,10861.111111111111
-0.635,-0.44,10863.888888888889
-0.64,-0.435,10866.666666666666
-0.635,-0.425,10869.444444444445
-0.62,-0.415,10872.222222222223
-0.59,-0.4,10875.0
-0.565,-0.395,10877.777777777777
-0.51,-0.385,10880.555555555555
-0.44,-0.365,10883.333333333334
-0.28,-0.345,10886.111111111111
-0.045,-0.29,10888.888888888889
0.265,-0.25,10891.666666666666
0.635,-0.2,10894.444444444445
1.05,-0.195,10897.222222222223
1.365,-0.23,10900.0
1.58,-0.305,10902.777777777777
1.61,-0.43,10905.555555555555
1.47,-0.595,10908.333333333334
1.1,-0.765,10911.111111111111
0.495,-0.93,10913.888888888889
-0.145,-1.1,10916.666666666666
-0.785,-1.215,10919.444444444445
-1.425,-1.24,10922.222222222223
-1.605,-1.205,10925.0
-1.49,-1.09,10927.777777777777
-1.22,-0.99,10930.555555555555
-0.97,-0.895,10933.333333333334
-0.8,-0.8,10936.111111111111
-0.735,-0.705,10938.888888888889
-0.75,-0.63,10941.666666666666
-0.805,-0.57,10944.444444444445
-0.835,-0.535,10947.222222222223
-0.825,-0.49,10950.0
-0.8,-0.475,10952.777777777777
-0.765,-0.46,10955.555555555555
-0.74,-0.445,10958.333333333334
-0.725,-0.44,10961.111111111111
-0.745,-0.42,10963.888888888889
-0.765,-0.41,10966.666666666666
-0.775,-0.395,10969.444444444445
-0.79,-0.38,10972.222222222223
-0.795,-0.37,10975.0
-0.795,-0.36,10977.777777777777
-0.79,-0.36,10980.555555555555
-0.775,-0.36,10983.333333333334
-0.77,-0.37,10986.111111111111
-0.785,-0.36,10988.888888888889
-0.785,-0.37,10991.666666666666
-0.77,-0.365,10994.444444444445
-0.775,-0.36,10997.222222222223
-0.775,-0.345,11000.0
-0.775,-0.36,11002.777777777777
-0.755,-0.355,11005.555555555555
-0.76,-0.345,11008.333333333334
-0.75,-0.345,11011.111111111111
-0.74,-0.335,11013.888888888889
-0.72,-0.33,11016.666666666666
-0.73,-0.335,11019.444444444445
-0.73,-0.34,11022.222222222223
-0.72,-0.34,11025.0
-0.72,-0.35,11027.777777777777
-0.725,-0.36,11030.555555555555
-0.72,-0.36,11033.333333333334
-0.715,-0.345,11036.111111111111
-0.705,-0.345,11038.888888888889
-0.705,-0.325,11041.666666666666
-0.7,-0.325,11044.444444444445
-0.68,-0.32,11047.222222222223
-0.67,-0.325,11050.0
-0.665,-0.345,11052.777777777777
-0.665,-0.34,11055.555555555555
-0.665,-0.34,11058.333333333334
-0.67,-0.345,11061.111111111111
-0.66,-0.345,11063.888888888889
-0.65,-0.33,11066.666666666666
-0.65,-0.31,11069.444444444445
-0.64,-0.34,11072.222222222223
-0.62,-0.325,11075.0
-0.625,-0.32,11077.777777777777
-0.605,-0.32,11080.555555555555
-0.6,-0.32,11083.333333333334
-0.595,-0.315,11086.111111111111
-0.59,-0.32,11088.888888888889
-0.59,-0.325,11091.666666666666
-0.59,-0.335,11094.444444444445
-0.585,-0.34,11097.222222222223
-0.57,-0.345,11100.0
-0.565,-0.34,11102.777777777777
-0.565,-0.335,11105.555555555555
-0.55,-0.31,11108.333333333334
-0.54,-0.305,11111.111111111111
-0.54,-0.305,11113.888888888889
-0.525,-0.305,11116.666666666666
-0.525,-0.31,11119.444444444445
-0.515,-0.32,11122.222222222223
-0.515,-0.33,11125.0
-0.51,-0.33,11127.777777777777
-0.515,-0.335,11130.555555555555
