MLII,V1,time_ms
-0.285,0.05,0.0
-0.285,0.05,2.7777777777777777
-0.285,0.05,5.555555555555555
-0.285,0.05,8.333333333333334
-0.285,0.05,11.11111111111111
-0.285,0.05,13.88888888888889
-0.285,0.05,16.666666666666668
-0.285,0.05,19.444444444444443
-0.29,0.05,22.22222222222222
-0.28,0.05,25.0
-0.3,0.055,27.77777777777778
-0.305,0.035,30.555555555555557
-0.32,0.015,33.333333333333336
-0.325,0.035,36.111111111111114
-0.315,0.055,38.888888888888886
-0.285,0.075,41.666666666666664
-0.285,0.065,44.44444444444444
-0.31,0.05,47.22222222222222
-0.32,0.035,50.0
-0.34,0.05,52.77777777777778
-0.325,0.075,55.55555555555556
-0.31,0.08,58.333333333333336
-0.315,0.08,61.111111111111114
-0.325,0.07,63.888888888888886
-0.335,0.065,66.66666666666667
-0.335,0.065,69.44444444444444
-0.305,0.085,72.22222222222223
-0.305,0.095,75.0
-0.305,0.085,77.77777777777777
-0.31,0.08,80.55555555555556
-0.325,0.07,83.33333333333333
-0.325,0.075,86.11111111111111
-0.32,0.085,88.88888888888889
-0.31,0.09,91.66666666666667
-0.295,0.085,94.44444444444444
-0.305,0.08,97.22222222222223
-0.315,0.06,100.0
-0.33,0.07,102.77777777777777
-0.335,0.08,105.55555555555556
-0.295,0.1,108.33333333333333
-0.3,0.085,111.11111111111111
-0.32,0.065,113.88888888888889
-0.33,0.055,116.66666666666667
-0.345,0.06,119.44444444444444
-0.34,0.08,122.22222222222223
-0.335,0.09,125.0
-0.325,0.07,127.77777777777777
-0.335,0.055,130.55555555555554
-0.34,0.04,133.33333333333334
-0.355,0.045,136.11111111111111
-0.33,0.05,138.88888888888889
-0.315,0.05,141.66666666666666
-0.305,0.05,144.44444444444446
-0.305,0.04,147.22222222222223
-0.33,0.025,150.0
-0.325,0.02,152.77777777777777
-0.31,0.03,155.55555555555554
-0.3,0.045,158.33333333333334
-0.29,0.035,161.11111111111111
-0.31,0.025,163.88888888888889
-0.32,-0.005,166.66666666666666
-0.325,0.01,169.44444444444446
-0.32,0.02,172.22222222222223
-0.29,0.03,175.0
-0.29,0.02,177.77777777777777
-0.295,0.005,180.55555555555554
-0.33,-0.01,183.33333333333334
-0.315,-0.01,186.11111111111111
-0.29,0.0,188.88888888888889
-0.27,0.005,191.66666666666666
-0.27,-0.02,194.44444444444446
-0.28,-0.03,197.22222222222223
-0.29,-0.05,200.0
-0.295,-0.055,202.77777777777777
-0.275,-0.06,205.55555555555554
-0.265,-0.045,208.33333333333334
-0.255,-0.05,211.11111111111111
-0.26,-0.065,213.88888888888889
-0.27,-0.085,216.66666666666666
-0.275,-0.1,219.44444444444446
-0.275,-0.1,222.22222222222223
-0.235,-0.075,225.0
-0.235,-0.085,227.77777777777777
-0.235,-0.095,230.55555555555554
-0.25,-0.105,233.33333333333334
-0.24,-0.105,236.11111111111111
-0.225,-0.105,238.88888888888889
-0.21,-0.115,241.66666666666666
-0.2,-0.11,244.44444444444446
-0.2,-0.125,247.22222222222223
-0.195,-0.135,250.0
-0.2,-0.145,252.77777777777777
-0.175,-0.145,255.55555555555554
-0.16,-0.125,258.3333333333333
-0.155,-0.125,261.1111111111111
-0.175,-0.135,263.8888888888889
-0.15,-0.13,266.6666666666667
-0.16,-0.13,269.44444444444446
-0.14,-0.11,272.22222222222223
-0.12,-0.105,275.0
-0.11,-0.115,277.77777777777777
-0.12,-0.115,280.55555555555554
-0.14,-0.11,283.3333333333333
-0.14,-0.1,286.1111111111111
-0.125,-0.055,288.8888888888889
-0.11,-0.035,291.6666666666667
-0.12,-0.02,294.44444444444446
-0.14,-0.025,297.22222222222223
-0.15,-0.005,300.0
-0.155,0.01,302.77777777777777
-0.145,0.04,305.55555555555554
-0.14,0.07,308.3333333333333
-0.14,0.08,311.1111111111111
-0.185,0.08,313.8888888888889
-0.185,0.08,316.6666666666667
-0.2,0.095,319.44444444444446
-0.185,0.095,322.22222222222223
-0.17,0.11,325.0
-0.175,0.1,327.77777777777777
-0.21,0.08,330.55555555555554
-0.22,0.065,333.3333333333333
-0.23,0.075,336.1111111111111
-0.215,0.085,338.8888888888889
-0.2,0.1,341.6666666666667
-0.21,0.085,344.44444444444446
-0.225,0.07,347.22222222222223
-0.245,0.065,350.0
-0.225,0.07,352.77777777777777
-0.23,0.09,355.55555555555554
-0.22,0.11,358.3333333333333
-0.215,0.095,361.1111111111111
-0.225,0.08,363.8888888888889
-0.245,0.065,366.6666666666667
-0.245,0.08,369.44444444444446
-0.215,0.075,372.22222222222223
-0.21,0.095,375.0
-0.21,0.085,377.77777777777777
-0.21,0.09,380.55555555555554
-0.225,0.085,383.3333333333333
-0.22,0.09,386.1111111111111
-0.215,0.105,388.8888888888889
-0.21,0.11,391.6666666666667
-0.21,0.085,394.44444444444446
-0.215,0.09,397.22222222222223
-0.23,0.075,400.0
-0.225,0.08,402.77777777777777
-0.22,0.09,405.55555555555554
-0.205,0.1,408.3333333333333
-0.2,0.1,411.1111111111111
-0.21,0.085,413.8888888888889
-0.21,0.075,416.6666666666667
-0.215,0.08,419.44444444444446
-0.21,0.09,422.22222222222223
-0.175,0.105,425.0
-0.17,0.08,427.77777777777777
-0.175,0.06,430.55555555555554
-0.205,0.075,433.3333333333333
-0.215,0.075,436.1111111111111
-0.21,0.075,438.8888888888889
-0.18,0.07,441.6666666666667
-0.175,0.055,444.44444444444446
-0.18,0.05,447.22222222222223
-0.195,0.045,450.0
-0.19,0.055,452.77777777777777
-0.205,0.055,455.55555555555554
-0.19,0.05,458.3333333333333
-0.205,0.03,461.1111111111111
-0.195,0.015,463.8888888888889
-0.195,0.005,466.6666666666667
-0.2,0.005,469.44444444444446
-0.195,0.01,472.22222222222223
-0.185,0.03,475.0
-0.185,0.025,477.77777777777777
-0.19,0.03,480.55555555555554
-0.205,0.015,483.3333333333333
-0.205,0.03,486.1111111111111
-0.205,0.04,488.8888888888889
-0.19,0.05,491.6666666666667
-0.2,0.045,494.44444444444446
-0.215,0.035,497.22222222222223
-0.225,0.02,500.0
-0.235,0.045,502.77777777777777
-0.225,0.065,505.55555555555554
-0.215,0.08,508.3333333333333
-0.205,0.07,511.1111111111111
-0.2,0.045,513.8888888888889
-0.21,0.035,516.6666666666666
-0.21,0.045,519.4444444444445
-0.205,0.07,522.2222222222222
-0.21,0.09,525.0
-0.2,0.085,527.7777777777778
-0.215,0.08,530.5555555555555
-0.22,0.06,533.3333333333334
-0.225,0.065,536.1111111111111
-0.215,0.07,538.8888888888889
-0.225,0.09,541.6666666666666
-0.205,0.085,544.4444444444445
-0.22,0.07,547.2222222222222
-0.22,0.07,550.0
-0.23,0.08,552.7777777777778
-0.22,0.11,555.5555555555555
-0.21,0.12,558.3333333333334
-0.2,0.12,561.1111111111111
-0.215,0.11,563.8888888888889
-0.215,0.105,566.6666666666666
-0.21,0.12,569.4444444444445
-0.19,0.125,572.2222222222222
-0.185,0.135,575.0
-0.17,0.115,577.7777777777778
-0.15,0.09,580.5555555555555
-0.11,0.055,583.3333333333334
-0.045,0.03,586.1111111111111
0.035,0.02,588.8888888888889
0.15,0.03,591.6666666666666
0.295,0.025,594.4444444444445
0.445,-0.005,597.2222222222222
0.64,-0.055,600.0
0.855,-0.085,602.7777777777778
1.08,-0.105,605.5555555555555
1.28,-0.095,608.3333333333334
1.415,-0.05,611.1111111111111
1.445,0.025,613.8888888888889
1.355,0.085,616.6666666666666
1.13,0.09,619.4444444444445
0.815,0.11,622.2222222222222
0.48,0.15,625.0
0.13,0.21,627.7777777777778
-0.19,0.26,630.5555555555555
-0.395,0.26,633.3333333333334
-0.415,0.245,636.1111111111111
-0.36,0.215,638.8888888888889
-0.285,0.175,641.6666666666666
-0.255,0.115,644.4444444444445
-0.265,0.075,647.2222222222222
-0.285,0.045,650.0
-0.29,0.06,652.7777777777778
-0.265,0.07,655.5555555555555
-0.25,0.09,658.3333333333334
-0.29,0.095,661.1111111111111
-0.285,0.085,663.8888888888889
-0.31,0.085,666.6666666666666
-0.315,0.1,669.4444444444445
-0.305,0.115,672.2222222222222
-0.295,0.11,675.0
-0.325,0.08,677.7777777777778
-0.32,0.085,680.5555555555555
-0.335,0.075,683.3333333333334
-0.335,0.085,686.1111111111111
-0.325,0.095,688.8888888888889
-0.315,0.105,691.6666666666666
-0.325,0.09,694.4444444444445
-0.335,0.095,697.2222222222222
-0.36,0.09,700.0
-0.375,0.11,702.7777777777778
-0.37,0.11,705.5555555555555
-0.325,0.13,708.3333333333334
-0.315,0.12,711.1111111111111
-0.32,0.095,713.8888888888889
-0.32,0.075,716.6666666666666
-0.335,0.075,719.4444444444445
-0.345,0.085,722.2222222222222
-0.31,0.1,725.0
-0.315,0.095,727.7777777777778
-0.32,0.08,730.5555555555555
-0.32,0.065,733.3333333333334
-0.345,0.075,736.1111111111111
-0.33,0.1,738.8888888888889
-0.32,0.105,741.6666666666666
-0.31,0.1,744.4444444444445
-0.32,0.07,747.2222222222222
-0.335,0.07,750.0
-0.325,0.065,752.7777777777778
-0.315,0.065,755.5555555555555
-0.295,0.085,758.3333333333334
-0.3,0.075,761.1111111111111
-0.3,0.07,763.8888888888889
-0.305,0.045,766.6666666666666
-0.28,0.04,769.4444444444445
-0.27,0.06,772.2222222222222
-0.265,0.075,775.0
-0.27,0.06,777.7777777777778
-0.27,0.05,780.5555555555555
-0.28,0.02,783.3333333333334
-0.275,0.025,786.1111111111111
-0.25,0.03,788.8888888888889
-0.24,0.035,791.6666666666666
-0.225,0.02,794.4444444444445
-0.24,0.005,797.2222222222222
-0.24,0.0,800.0
-0.245,-0.005,802.7777777777778
-0.24,0.01,805.5555555555555
-0.22,0.01,808.3333333333334
-0.215,-0.005,811.1111111111111
-0.23,-0.01,813.8888888888889
-0.235,-0.045,816.6666666666666
-0.24,-0.03,819.4444444444445
-0.215,-0.04,822.2222222222222
-0.21,-0.03,825.0
-0.19,-0.035,827.7777777777778
-0.19,-0.06,830.5555555555555
-0.2,-0.085,833.3333333333334
-0.185,-0.075,836.1111111111111
-0.185,-0.07,838.8888888888889
-0.16,-0.06,841.6666666666666
-0.16,-0.065,844.4444444444445
-0.15,-0.09,847.2222222222222
-0.175,-0.095,850.0
-0.155,-0.095,852.7777777777778
-0.14,-0.09,855.5555555555555
-0.115,-0.075,858.3333333333334
-0.11,-0.075,861.1111111111111
-0.12,-0.095,863.8888888888889
-0.115,-0.1,866.6666666666666
-0.105,-0.105,869.4444444444445
-0.09,-0.085,872.2222222222222
-0.075,-0.08,875.0
-0.075,-0.075,877.7777777777778
-0.095,-0.1,880.5555555555555
-0.12,-0.09,883.3333333333334
-0.12,-0.085,886.1111111111111
-0.105,-0.045,888.8888888888889
-0.105,-0.05,891.6666666666666
-0.115,-0.045,894.4444444444445
-0.12,-0.06,897.2222222222222
-0.145,-0.06,900.0
-0.145,-0.025,902.7777777777778
-0.145,0.0,905.5555555555555
-0.145,0.025,908.3333333333334
-0.17,0.03,911.1111111111111
-0.185,0.015,913.8888888888889
-0.215,0.03,916.6666666666666
-0.215,0.04,919.4444444444445
-0.215,0.075,922.2222222222222
-0.195,0.085,925.0
-0.19,0.095,927.7777777777778
-0.23,0.1,930.5555555555555
-0.24,0.095,933.3333333333334
-0.22,0.11,936.1111111111111
-0.225,0.13,938.8888888888889
-0.23,0.13,941.6666666666666
-0.215,0.125,944.4444444444445
-0.23,0.11,947.2222222222222
-0.245,0.11,950.0
-0.255,0.12,952.7777777777778
-0.26,0.14,955.5555555555555
-0.245,0.15,958.3333333333334
-0.225,0.145,961.1111111111111
-0.24,0.135,963.8888888888889
-0.25,0.12,966.6666666666666
-0.26,0.125,969.4444444444445
-0.245,0.135,972.2222222222222
-0.215,0.135,975.0
-0.215,0.125,977.7777777777778
-0.21,0.11,980.5555555555555
-0.225,0.1,983.3333333333334
-0.225,0.12,986.1111111111111
-0.215,0.14,988.8888888888889
-0.205,0.15,991.6666666666666
-0.2,0.12,994.4444444444445
-0.22,0.11,997.2222222222222
-0.225,0.095,1000.0
-0.22,0.11,1002.7777777777778
-0.225,0.125,1005.5555555555555
-0.22,0.135,1008.3333333333334
-0.2,0.115,1011.1111111111111
-0.205,0.1,1013.8888888888889
-0.215,0.1,1016.6666666666666
-0.225,0.105,1019.4444444444445
-0.215,0.105,1022.2222222222222
-0.2,0.12,1025.0
-0.215,0.11,1027.7777777777778
-0.23,0.08,1030.5555555555557
-0.26,0.065,1033.3333333333333
-0.26,0.075,1036.111111111111
-0.225,0.085,1038.888888888889
-0.225,0.095,1041.6666666666667
-0.22,0.085,1044.4444444444443
-0.23,0.075,1047.2222222222222
-0.23,0.06,1050.0
-0.23,0.075,1052.7777777777778
-0.22,0.09,1055.5555555555557
-0.21,0.1,1058.3333333333333
-0.21,0.1,1061.111111111111
-0.23,0.08,1063.888888888889
-0.23,0.065,1066.6666666666667
-0.235,0.075,1069.4444444444443
-0.22,0.085,1072.2222222222222
-0.195,0.105,1075.0
-0.185,0.095,1077.7777777777778
-0.2,0.095,1080.5555555555557
-0.225,0.1,1083.3333333333333
-0.21,0.09,1086.111111111111
-0.215,0.09,1088.888888888889
-0.185,0.09,1091.6666666666667
-0.16,0.095,1094.4444444444443
-0.175,0.08,1097.2222222222222
-0.2,0.09,1100.0
-0.195,0.11,1102.7777777777778
-0.185,0.11,1105.5555555555557
-0.165,0.115,1108.3333333333333
-0.18,0.105,1111.111111111111
-0.175,0.085,1113.888888888889
-0.175,0.08,1116.6666666666667
-0.185,0.105,1119.4444444444443
-0.175,0.115,1122.2222222222222
-0.175,0.115,1125.0
-0.175,0.105,1127.7777777777778
-0.185,0.09,1130.5555555555557
-0.205,0.075,1133.3333333333333
-0.2,0.085,1136.111111111111
-0.2,0.105,1138.888888888889
-0.2,0.12,1141.6666666666667
-0.185,0.105,1144.4444444444443
-0.19,0.09,1147.2222222222222
-0.21,0.075,1150.0
-0.21,0.09,1152.7777777777778
-0.195,0.1,1155.5555555555557
-0.185,0.115,1158.3333333333333
-0.175,0.095,1161.111111111111
-0.195,0.08,1163.888888888889
-0.22,0.085,1166.6666666666667
-0.2,0.08,1169.4444444444443
-0.215,0.1,1172.2222222222222
-0.18,0.095,1175.0
-0.18,0.085,1177.7777777777778
-0.205,0.09,1180.5555555555557
-0.205,0.085,1183.3333333333333
-0.21,0.08,1186.111111111111
-0.185,0.095,1188.888888888889
-0.165,0.11,1191.6666666666667
-0.145,0.09,1194.4444444444443
-0.125,0.06,1197.2222222222222
-0.1,0.045,1200.0
-0.04,0.05,1202.7777777777778
0.05,0.05,1205.5555555555557
0.165,0.06,1208.3333333333333
0.29,0.045,1211.111111111111
0.44,0.02,1213.888888888889
0.61,-0.02,1216.6666666666667
0.81,-0.07,1219.4444444444443
1.03,-0.1,1222.2222222222222
1.235,-0.08,1225.0
1.375,-0.07,1227.7777777777778
1.435,0.005,1230.5555555555557
1.38,0.07,1233.3333333333333
1.185,0.11,1236.111111111111
0.915,0.13,1238.888888888889
0.615,0.165,1241.6666666666667
0.3,0.205,1244.4444444444443
-0.015,0.225,1247.2222222222222
-0.235,0.24,1250.0
-0.325,0.24,1252.7777777777778
-0.305,0.245,1255.5555555555557
-0.235,0.205,1258.3333333333333
-0.2,0.15,1261.111111111111
-0.19,0.11,1263.888888888889
-0.185,0.095,1266.6666666666667
-0.19,0.1,1269.4444444444443
-0.19,0.105,1272.2222222222222
-0.2,0.105,1275.0
-0.205,0.11,1277.7777777777778
-0.225,0.11,1280.5555555555557
-0.28,0.09,1283.3333333333333
-0.25,0.085,1286.111111111111
-0.255,0.1,1288.888888888889
-0.245,0.105,1291.6666666666667
-0.26,0.115,1294.4444444444443
-0.28,0.09,1297.2222222222222
-0.295,0.07,1300.0
-0.295,0.08,1302.7777777777778
-0.285,0.1,1305.5555555555557
-0.28,0.1,1308.3333333333333
-0.26,0.105,1311.111111111111
-0.285,0.075,1313.888888888889
-0.3,0.08,1316.6666666666667
-0.305,0.095,1319.4444444444443
-0.29,0.105,1322.2222222222222
-0.27,0.095,1325.0
-0.27,0.085,1327.7777777777778
-0.28,0.08,1330.5555555555557
-0.3,0.075,1333.3333333333333
-0.31,0.075,1336.111111111111
-0.3,0.07,1338.888888888889
-0.27,0.08,1341.6666666666667
-0.27,0.075,1344.4444444444443
-0.285,0.07,1347.2222222222222
-0.295,0.07,1350.0
-0.295,0.07,1352.7777777777778
-0.28,0.08,1355.5555555555557
-0.26,0.08,1358.3333333333333
-0.26,0.075,1361.111111111111
-0.26,0.065,1363.888888888889
-0.27,0.06,1366.6666666666667
-0.275,0.075,1369.4444444444443
-0.265,0.085,1372.2222222222222
-0.245,0.095,1375.0
-0.235,0.08,1377.7777777777778
-0.255,0.08,1380.5555555555557
-0.255,0.07,1383.3333333333333
-0.255,0.09,1386.111111111111
-0.225,0.085,1388.888888888889
-0.2,0.105,1391.6666666666667
-0.2,0.1,1394.4444444444443
-0.205,0.085,1397.2222222222222
-0.22,0.085,1400.0
-0.22,0.08,1402.7777777777778
-0.21,0.095,1405.5555555555557
-0.215,0.09,1408.3333333333333
-0.21,0.095,1411.111111111111
-0.18,0.075,1413.888888888889
-0.2,0.055,1416.6666666666667
-0.205,0.045,1419.4444444444443
-0.195,0.055,1422.2222222222222
-0.175,0.07,1425.0
-0.165,0.05,1427.7777777777778
-0.18,0.035,1430.5555555555557
-0.165,0.025,1433.3333333333333
-0.16,0.02,1436.111111111111
-0.145,0.03,1438.888888888889
-0.155,0.025,1441.6666666666667
-0.145,0.01,1444.4444444444443
-0.145,-0.02,1447.2222222222222
-0.16,-0.03,1450.0
-0.15,-0.035,1452.7777777777778
-0.15,-0.04,1455.5555555555557
-0.14,-0.04,1458.3333333333333
-0.13,-0.04,1461.111111111111
-0.155,-0.055,1463.888888888889
-0.155,-0.07,1466.6666666666667
-0.13,-0.075,1469.4444444444443
-0.12,-0.07,1472.2222222222222
-0.095,-0.06,1475.0
-0.1,-0.06,1477.7777777777778
-0.105,-0.1,1480.5555555555557
-0.11,-0.11,1483.3333333333333
-0.12,-0.105,1486.111111111111
-0.1,-0.11,1488.888888888889
-0.06,-0.09,1491.6666666666667
-0.055,-0.105,1494.4444444444443
-0.055,-0.1,1497.2222222222222
-0.06,-0.105,1500.0
-0.055,-0.095,1502.7777777777778
-0.04,-0.065,1505.5555555555557
-0.02,-0.05,1508.3333333333333
-0.015,-0.055,1511.111111111111
-0.025,-0.05,1513.888888888889
-0.04,-0.04,1516.6666666666667
-0.055,-0.035,1519.4444444444443
-0.04,0.0,1522.2222222222222
-0.02,0.005,1525.0
-0.04,0.01,1527.7777777777778
-0.04,0.0,1530.5555555555557
-0.05,0.01,1533.3333333333333
-0.07,0.045,1536.111111111111
-0.06,0.07,1538.888888888889
-0.065,0.075,1541.6666666666667
-0.07,0.075,1544.4444444444443
-0.085,0.065,1547.2222222222222
-0.105,0.065,1550.0
-0.12,0.085,1552.7777777777778
-0.125,0.12,1555.5555555555557
-0.115,0.14,1558.3333333333333
-0.135,0.145,1561.111111111111
-0.165,0.135,1563.888888888889
-0.19,0.13,1566.6666666666667
-0.19,0.135,1569.4444444444443
-0.17,0.14,1572.2222222222222
-0.165,0.14,1575.0
-0.18,0.14,1577.7777777777778
-0.2,0.11,1580.5555555555557
-0.21,0.115,1583.3333333333333
-0.225,0.11,1586.111111111111
-0.21,0.12,1588.888888888889
-0.175,0.145,1591.6666666666667
-0.18,0.135,1594.4444444444443
-0.2,0.115,1597.2222222222222
-0.205,0.115,1600.0
-0.18,0.135,1602.7777777777778
-0.13,0.14,1605.5555555555557
-0.105,0.14,1608.3333333333333
-0.08,0.145,1611.111111111111
-0.065,0.14,1613.888888888889
-0.06,0.14,1616.6666666666667
-0.03,0.17,1619.4444444444443
0.005,0.185,1622.2222222222222
0.045,0.19,1625.0
0.085,0.19,1627.7777777777778
0.14,0.165,1630.5555555555557
0.205,0.135,1633.3333333333333
0.27,0.075,1636.111111111111
0.34,-0.005,1638.888888888889
0.415,-0.06,1641.6666666666667
0.5,-0.125,1644.4444444444443
0.575,-0.21,1647.2222222222222
0.64,-0.285,1650.0
0.71,-0.375,1652.7777777777778
0.79,-0.45,1655.5555555555557
0.885,-0.55,1658.3333333333333
0.975,-0.675,1661.111111111111
1.06,-0.79,1663.888888888889
1.13,-0.875,1666.6666666666667
1.18,-0.94,1669.4444444444443
1.22,-0.98,1672.2222222222222
1.215,-0.995,1675.0
1.195,-1.015,1677.7777777777778
1.15,-1.04,1680.5555555555557
1.105,-1.07,1683.3333333333333
1.03,-1.085,1686.111111111111
0.97,-1.075,1688.888888888889
0.88,-1.065,1691.6666666666667
0.755,-1.06,1694.4444444444443
0.61,-1.05,1697.2222222222222
0.47,-0.995,1700.0
0.37,-0.93,1702.7777777777778
0.275,-0.85,1705.5555555555557
0.22,-0.76,1708.3333333333333
0.17,-0.7,1711.111111111111
0.135,-0.62,1713.888888888889
0.12,-0.565,1716.6666666666667
0.105,-0.48,1719.4444444444443
0.09,-0.415,1722.2222222222222
0.115,-0.35,1725.0
0.145,-0.285,1727.7777777777778
0.19,-0.235,1730.5555555555557
0.25,-0.195,1733.3333333333333
0.34,-0.145,1736.111111111111
0.37,-0.105,1738.888888888889
0.335,-0.065,1741.6666666666667
0.185,-0.035,1744.4444444444443
-0.02,0.015,1747.2222222222222
-0.22,0.05,1750.0
-0.32,0.145,1752.7777777777778
-0.37,0.225,1755.5555555555557
-0.39,0.285,1758.3333333333333
-0.425,0.325,1761.111111111111
-0.445,0.335,1763.888888888889
-0.5,0.335,1766.6666666666667
-0.515,0.355,1769.4444444444443
-0.505,0.375,1772.2222222222222
-0.505,0.4,1775.0
-0.535,0.4,1777.7777777777778
-0.575,0.4,1780.5555555555557
-0.605,0.4,1783.3333333333333
-0.605,0.435,1786.111111111111
-0.59,0.45,1788.888888888889
-0.585,0.47,1791.6666666666667
-0.615,0.445,1794.4444444444443
-0.63,0.43,1797.2222222222222
-0.655,0.45,1800.0
-0.665,0.455,1802.7777777777778
-0.65,0.48,1805.5555555555557
-0.63,0.485,1808.3333333333333
-0.645,0.48,1811.111111111111
-0.665,0.47,1813.888888888889
-0.67,0.47,1816.6666666666667
-0.7,0.495,1819.4444444444443
-0.67,0.525,1822.2222222222222
-0.675,0.54,1825.0
-0.68,0.55,1827.7777777777778
-0.685,0.54,1830.5555555555557
-0.7,0.54,1833.3333333333333
-0.69,0.565,1836.111111111111
-0.71,0.585,1838.888888888889
-0.705,0.625,1841.6666666666667
-0.705,0.625,1844.4444444444443
-0.715,0.63,1847.2222222222222
-0.715,0.625,1850.0
-0.72,0.65,1852.7777777777778
-0.715,0.66,1855.5555555555557
-0.705,0.685,1858.3333333333333
-0.69,0.69,1861.111111111111
-0.71,0.695,1863.888888888889
-0.725,0.7,1866.6666666666667
-0.725,0.735,1869.4444444444443
-0.715,0.77,1872.2222222222222
-0.7,0.795,1875.0
-0.695,0.79,1877.7777777777778
-0.73,0.795,1880.5555555555557
-0.74,0.795,1883.3333333333333
-0.715,0.81,1886.111111111111
-0.685,0.83,1888.888888888889
-0.66,0.84,1891.6666666666667
-0.65,0.83,1894.4444444444443
-0.65,0.815,1897.2222222222222
-0.67,0.81,1900.0
-0.645,0.835,1902.7777777777778
-0.63,0.845,1905.5555555555557
-0.605,0.845,1908.3333333333333
-0.595,0.835,1911.111111111111
-0.6,0.815,1913.888888888889
-0.63,0.78,1916.6666666666667
-0.605,0.79,1919.4444444444443
-0.57,0.79,1922.2222222222222
-0.535,0.785,1925.0
-0.52,0.75,1927.7777777777778
-0.515,0.71,1930.5555555555557
-0.525,0.68,1933.3333333333333
-0.505,0.68,1936.111111111111
-0.475,0.665,1938.888888888889
-0.44,0.65,1941.6666666666667
-0.43,0.62,1944.4444444444443
-0.42,0.585,1947.2222222222222
-0.43,0.555,1950.0
-0.41,0.535,1952.7777777777778
-0.385,0.535,1955.5555555555557
-0.355,0.51,1958.3333333333333
-0.34,0.465,1961.111111111111
-0.34,0.425,1963.888888888889
-0.355,0.415,1966.6666666666667
-0.34,0.39,1969.4444444444443
-0.32,0.385,1972.2222222222222
-0.31,0.37,1975.0
-0.295,0.34,1977.7777777777778
-0.285,0.31,1980.5555555555557
-0.315,0.295,1983.3333333333333
-0.305,0.29,1986.111111111111
-0.305,0.295,1988.888888888889
-0.275,0.29,1991.6666666666667
-0.285,0.275,1994.4444444444443
-0.28,0.235,1997.2222222222222
-0.29,0.205,2000.0
-0.285,0.17,2002.7777777777778
-0.275,0.17,2005.5555555555557
-0.235,0.16,2008.3333333333333
-0.245,0.155,2011.111111111111
-0.255,0.155,2013.888888888889
-0.28,0.14,2016.6666666666667
-0.28,0.135,2019.4444444444443
-0.285,0.155,2022.2222222222222
-0.26,0.155,2025.0
-0.26,0.13,2027.7777777777778
-0.26,0.125,2030.5555555555557
-0.255,0.13,2033.3333333333333
-0.25,0.125,2036.111111111111
-0.235,0.135,2038.888888888889
-0.225,0.145,2041.6666666666667
-0.22,0.135,2044.4444444444443
-0.225,0.13,2047.2222222222222
-0.235,0.12,2050.0
-0.235,0.125,2052.777777777778
-0.21,0.135,2055.5555555555557
-0.2,0.145,2058.3333333333335
-0.215,0.14,2061.1111111111113
-0.215,0.13,2063.8888888888887
-0.25,0.13,2066.6666666666665
-0.24,0.125,2069.4444444444443
-0.23,0.13,2072.222222222222
-0.225,0.14,2075.0
-0.225,0.135,2077.777777777778
-0.235,0.13,2080.5555555555557
-0.265,0.125,2083.3333333333335
-0.26,0.135,2086.1111111111113
-0.23,0.15,2088.8888888888887
-0.225,0.165,2091.6666666666665
-0.22,0.14,2094.4444444444443
-0.22,0.14,2097.222222222222
-0.24,0.13,2100.0
-0.225,0.14,2102.777777777778
-0.225,0.165,2105.5555555555557
-0.195,0.16,2108.3333333333335
-0.2,0.145,2111.1111111111113
-0.215,0.125,2113.8888888888887
-0.235,0.12,2116.6666666666665
-0.24,0.13,2119.4444444444443
-0.235,0.13,2122.222222222222
-0.205,0.16,2125.0
-0.195,0.145,2127.777777777778
-0.2,0.12,2130.5555555555557
-0.21,0.11,2133.3333333333335
-0.21,0.12,2136.1111111111113
-0.215,0.135,2138.8888888888887
-0.22,0.155,2141.6666666666665
-0.205,0.15,2144.4444444444443
-0.205,0.12,2147.222222222222
-0.215,0.12,2150.0
-0.215,0.135,2152.777777777778
-0.21,0.13,2155.5555555555557
-0.21,0.145,2158.3333333333335
-0.215,0.135,2161.1111111111113
-0.21,0.13,2163.8888888888887
-0.215,0.125,2166.6666666666665
-0.21,0.135,2169.4444444444443
-0.205,0.145,2172.222222222222
-0.185,0.145,2175.0
-0.185,0.13,2177.777777777778
-0.2,0.12,2180.5555555555557
-0.225,0.12,2183.3333333333335
-0.23,0.13,2186.1111111111113
-0.205,0.13,2188.8888888888887
-0.185,0.135,2191.6666666666665
-0.18,0.13,2194.4444444444443
-0.185,0.125,2197.222222222222
-0.205,0.12,2200.0
-0.205,0.12,2202.777777777778
-0.21,0.135,2205.5555555555557
-0.195,0.14,2208.3333333333335
-0.205,0.135,2211.1111111111113
-0.195,0.12,2213.8888888888887
-0.22,0.12,2216.6666666666665
-0.23,0.13,2219.4444444444443
-0.225,0.145,2222.222222222222
-0.215,0.14,2225.0
-0.21,0.135,2227.777777777778
-0.21,0.13,2230.5555555555557
-0.215,0.14,2233.3333333333335
-0.225,0.145,2236.1111111111113
-0.21,0.15,2238.8888888888887
-0.2,0.145,2241.6666666666665
-0.195,0.14,2244.4444444444443
-0.21,0.11,2247.222222222222
-0.23,0.085,2250.0
-0.22,0.105,2252.777777777778
-0.205,0.11,2255.5555555555557
-0.19,0.145,2258.3333333333335
-0.195,0.135,2261.1111111111113
-0.2,0.125,2263.8888888888887
-0.225,0.115,2266.6666666666665
-0.215,0.12,2269.4444444444443
-0.21,0.12,2272.222222222222
-0.185,0.135,2275.0
-0.19,0.125,2277.777777777778
-0.2,0.12,2280.5555555555557
-0.205,0.125,2283.3333333333335
-0.205,0.12,2286.1111111111113
-0.205,0.14,2288.8888888888887
-0.195,0.145,2291.6666666666665
-0.2,0.145,2294.4444444444443
-0.215,0.13,2297.222222222222
-0.205,0.135,2300.0
-0.215,0.135,2302.777777777778
-0.2,0.145,2305.5555555555557
-0.185,0.155,2308.3333333333335
-0.175,0.145,2311.1111111111113
-0.195,0.135,2313.8888888888887
-0.21,0.13,2316.6666666666665
-0.23,0.14,2319.4444444444443
-0.2,0.14,2322.222222222222
-0.195,0.145,2325.0
-0.185,0.13,2327.777777777778
-0.19,0.12,2330.5555555555557
-0.215,0.12,2333.3333333333335
-0.215,0.125,2336.1111111111113
-0.205,0.145,2338.8888888888887
-0.195,0.145,2341.6666666666665
-0.205,0.145,2344.4444444444443
-0.235,0.13,2347.222222222222
-0.235,0.12,2350.0
-0.24,0.13,2352.777777777778
-0.22,0.14,2355.5555555555557
-0.2,0.145,2358.3333333333335
-0.21,0.145,2361.1111111111113
-0.23,0.14,2363.8888888888887
-0.24,0.125,2366.6666666666665
-0.235,0.125,2369.4444444444443
-0.23,0.12,2372.222222222222
-0.2,0.13,2375.0
-0.195,0.115,2377.777777777778
-0.215,0.115,2380.5555555555557
-0.22,0.095,2383.3333333333335
-0.23,0.11,2386.1111111111113
-0.21,0.12,2388.8888888888887
-0.19,0.135,2391.6666666666665
-0.195,0.125,2394.4444444444443
-0.215,0.115,2397.222222222222
-0.225,0.115,2400.0
-0.225,0.12,2402.777777777778
-0.185,0.135,2405.5555555555557
-0.19,0.14,2408.3333333333335
-0.18,0.135,2411.1111111111113
-0.185,0.12,2413.8888888888887
-0.21,0.115,2416.6666666666665
-0.2,0.125,2419.4444444444443
-0.19,0.135,2422.222222222222
-0.165,0.155,2425.0
-0.18,0.135,2427.777777777778
-0.19,0.12,2430.5555555555557
-0.205,0.11,2433.3333333333335
-0.21,0.13,2436.1111111111113
-0.18,0.13,2438.8888888888887
-0.17,0.145,2441.6666666666665
-0.18,0.14,2444.4444444444443
-0.185,0.135,2447.222222222222
-0.195,0.13,2450.0
-0.205,0.135,2452.777777777778
-0.21,0.15,2455.5555555555557
-0.185,0.155,2458.3333333333335
-0.18,0.14,2461.1111111111113
-0.2,0.135,2463.8888888888887
-0.215,0.13,2466.6666666666665
-0.215,0.135,2469.4444444444443
-0.185,0.155,2472.222222222222
-0.16,0.155,2475.0
-0.165,0.14,2477.777777777778
-0.17,0.135,2480.5555555555557
-0.165,0.135,2483.3333333333335
-0.18,0.135,2486.1111111111113
-0.16,0.155,2488.8888888888887
-0.145,0.155,2491.6666666666665
-0.135,0.16,2494.4444444444443
-0.145,0.12,2497.222222222222
-0.155,0.13,2500.0
-0.16,0.135,2502.777777777778
-0.145,0.135,2505.5555555555557
-0.12,0.15,2508.3333333333335
-0.125,0.15,2511.1111111111113
-0.13,0.13,2513.8888888888887
-0.13,0.105,2516.6666666666665
-0.135,0.125,2519.4444444444443
-0.13,0.135,2522.222222222222
-0.115,0.135,2525.0
-0.095,0.135,2527.777777777778
-0.09,0.105,2530.5555555555557
-0.07,0.085,2533.3333333333335
-0.02,0.09,2536.1111111111113
0.045,0.095,2538.8888888888887
0.135,0.09,2541.6666666666665
0.22,0.07,2544.4444444444443
0.335,0.05,2547.222222222222
0.46,0.015,2550.0
0.615,0.0,2552.777777777778
0.78,-0.035,2555.5555555555557
0.97,-0.065,2558.3333333333335
1.145,-0.09,2561.1111111111113
1.275,-0.08,2563.8888888888887
1.375,-0.025,2566.6666666666665
1.395,0.075,2569.4444444444443
1.3,0.155,2572.222222222222
1.13,0.165,2575.0
0.855,0.16,2577.777777777778
0.565,0.155,2580.5555555555557
0.26,0.2,2583.3333333333335
-0.005,0.26,2586.1111111111113
-0.195,0.305,2588.8888888888887
-0.28,0.34,2591.6666666666665
-0.28,0.32,2594.4444444444443
-0.24,0.275,2597.222222222222
-0.215,0.225,2600.0
-0.21,0.205,2602.777777777778
-0.17,0.185,2605.5555555555557
-0.17,0.175,2608.3333333333335
-0.175,0.165,2611.1111111111113
-0.205,0.145,2613.8888888888887
-0.215,0.145,2616.6666666666665
-0.205,0.15,2619.4444444444443
-0.215,0.16,2622.222222222222
-0.205,0.15,2625.0
-0.225,0.12,2627.777777777778
-0.24,0.095,2630.5555555555557
-0.255,0.085,2633.3333333333335
-0.27,0.08,2636.1111111111113
-0.27,0.1,2638.8888888888887
-0.245,0.11,2641.6666666666665
-0.25,0.095,2644.4444444444443
-0.26,0.075,2647.222222222222
-0.28,0.09,2650.0
-0.28,0.105,2652.777777777778
-0.27,0.11,2655.5555555555557
-0.27,0.115,2658.3333333333335
-0.265,0.11,2661.1111111111113
-0.29,0.085,2663.8888888888887
-0.305,0.085,2666.6666666666665
-0.295,0.09,2669.4444444444443
-0.28,0.085,2672.222222222222
-0.255,0.09,2675.0
-0.265,0.085,2677.777777777778
-0.275,0.08,2680.5555555555557
-0.295,0.085,2683.3333333333335
-0.29,0.105,2686.1111111111113
-0.285,0.11,2688.8888888888887
-0.27,0.11,2691.6666666666665
-0.265,0.105,2694.4444444444443
-0.27,0.095,2697.222222222222
-0.28,0.075,2700.0
-0.28,0.095,2702.777777777778
-0.27,0.105,2705.5555555555557
-0.255,0.135,2708.3333333333335
-0.255,0.12,2711.1111111111113
-0.265,0.105,2713.8888888888887
-0.285,0.115,2716.6666666666665
-0.27,0.115,2719.4444444444443
-0.25,0.125,2722.222222222222
-0.235,0.125,2725.0
-0.235,0.125,2727.777777777778
-0.235,0.115,2730.5555555555557
-0.25,0.1,2733.3333333333335
-0.245,0.125,2736.1111111111113
-0.22,0.135,2738.8888888888887
-0.205,0.15,2741.6666666666665
-0.205,0.11,2744.4444444444443
-0.205,0.115,2747.222222222222
-0.2,0.105,2750.0
-0.215,0.12,2752.777777777778
-0.205,0.145,2755.5555555555557
-0.19,0.145,2758.3333333333335
-0.185,0.14,2761.1111111111113
-0.2,0.12,2763.8888888888887
-0.2,0.11,2766.6666666666665
-0.22,0.115,2769.4444444444443
-0.18,0.125,2772.222222222222
-0.165,0.1,2775.0
-0.175,0.075,2777.777777777778
-0.175,0.055,2780.5555555555557
-0.18,0.06,2783.3333333333335
-0.17,0.055,2786.1111111111113
-0.145,0.055,2788.8888888888887
-0.16,0.03,2791.6666666666665
-0.15,0.005,2794.4444444444443
-0.175,-0.01,2797.222222222222
-0.16,-0.005,2800.0
-0.145,0.01,2802.777777777778
-0.13,0.0,2805.5555555555557
-0.135,-0.01,2808.3333333333335
-0.15,-0.03,2811.1111111111113
-0.16,-0.035,2813.8888888888887
-0.165,-0.03,2816.6666666666665
-0.15,-0.03,2819.4444444444443
-0.14,-0.02,2822.222222222222
-0.125,-0.025,2825.0
-0.13,-0.05,2827.777777777778
-0.14,-0.045,2830.5555555555557
-0.115,-0.02,2833.3333333333335
-0.095,-0.02,2836.1111111111113
-0.08,-0.02,2838.8888888888887
-0.055,-0.03,2841.6666666666665
-0.05,-0.055,2844.4444444444443
-0.06,-0.065,2847.222222222222
-0.03,-0.05,2850.0
-0.005,-0.04,2852.777777777778
0.01,-0.045,2855.5555555555557
0.02,-0.06,2858.3333333333335
0.025,-0.085,2861.1111111111113
0.015,-0.08,2863.8888888888887
0.025,-0.065,2866.6666666666665
0.035,-0.035,2869.4444444444443
0.06,0.0,2872.222222222222
0.07,-0.015,2875.0
0.055,-0.02,2877.777777777778
0.035,-0.02,2880.5555555555557
0.025,-0.02,2883.3333333333335
0.04,-0.005,2886.1111111111113
0.055,0.01,2888.8888888888887
0.025,0.02,2891.6666666666665
0.005,0.015,2894.4444444444443
-0.005,0.01,2897.222222222222
-0.005,0.035,2900.0
0.0,0.05,2902.777777777778
0.005,0.065,2905.5555555555557
0.0,0.07,2908.3333333333335
-0.02,0.055,2911.1111111111113
-0.05,0.055,2913.8888888888887
-0.065,0.07,2916.6666666666665
-0.055,0.08,2919.4444444444443
-0.065,0.105,2922.222222222222
-0.08,0.095,2925.0
-0.095,0.09,2927.777777777778
-0.11,0.09,2930.5555555555557
-0.11,0.105,2933.3333333333335
-0.105,0.11,2936.1111111111113
-0.095,0.125,2938.8888888888887
-0.105,0.12,2941.6666666666665
-0.12,0.105,2944.4444444444443
-0.125,0.1,2947.222222222222
-0.135,0.1,2950.0
-0.125,0.125,2952.777777777778
-0.115,0.125,2955.5555555555557
-0.125,0.125,2958.3333333333335
-0.145,0.11,2961.1111111111113
-0.145,0.12,2963.8888888888887
-0.15,0.135,2966.6666666666665
-0.15,0.145,2969.4444444444443
-0.13,0.155,2972.222222222222
-0.135,0.14,2975.0
-0.145,0.135,2977.777777777778
-0.145,0.13,2980.5555555555557
-0.145,0.14,2983.3333333333335
-0.125,0.16,2986.1111111111113
-0.105,0.165,2988.8888888888887
-0.115,0.15,2991.6666666666665
-0.12,0.145,2994.4444444444443
-0.125,0.135,2997.222222222222
-0.135,0.15,3000.0
-0.11,0.16,3002.777777777778
-0.09,0.165,3005.5555555555557
-0.09,0.15,3008.3333333333335
-0.105,0.125,3011.1111111111113
-0.13,0.125,3013.8888888888887
-0.13,0.135,3016.6666666666665
-0.095,0.15,3019.4444444444443
-0.085,0.145,3022.222222222222
-0.095,0.13,3025.0
-0.115,0.12,3027.777777777778
-0.11,0.125,3030.5555555555557
-0.11,0.12,3033.3333333333335
-0.1,0.13,3036.1111111111113
-0.095,0.135,3038.8888888888887
-0.115,0.125,3041.6666666666665
-0.105,0.1,3044.4444444444443
-0.12,0.095,3047.222222222222
-0.125,0.11,3050.0
-0.11,0.14,3052.777777777778
-0.105,0.125,3055.5555555555557
-0.115,0.115,3058.3333333333335
-0.12,0.08,3061.1111111111113
-0.13,0.07,3063.8888888888887
-0.12,0.08,3066.6666666666665
-0.135,0.095,3069.4444444444443
-0.1,0.09,3072.222222222222
-0.125,0.085,3075.0
-0.14,0.075,3077.777777777778
-0.14,0.08,3080.5555555555557
-0.145,0.095,3083.3333333333335
-0.115,0.1,3086.1111111111113
-0.115,0.105,3088.8888888888887
-0.12,0.08,3091.6666666666665
-0.14,0.065,3094.4444444444443
-0.175,0.06,3097.222222222222
-0.18,0.09,3100.0
-0.175,0.095,3102.777777777778
-0.15,0.105,3105.5555555555557
-0.15,0.105,3108.3333333333335
-0.145,0.1,3111.1111111111113
-0.145,0.115,3113.8888888888887
-0.15,0.12,3116.6666666666665
-0.145,0.115,3119.4444444444443
-0.14,0.11,3122.222222222222
-0.14,0.1,3125.0
-0.16,0.09,3127.777777777778
-0.185,0.095,3130.5555555555557
-0.175,0.105,3133.3333333333335
-0.15,0.125,3136.1111111111113
-0.135,0.13,3138.8888888888887
-0.14,0.11,3141.6666666666665
-0.17,0.105,3144.4444444444443
-0.17,0.105,3147.222222222222
-0.165,0.125,3150.0
-0.155,0.135,3152.777777777778
-0.145,0.14,3155.5555555555557
-0.145,0.12,3158.3333333333335
-0.16,0.13,3161.1111111111113
-0.165,0.12,3163.8888888888887
-0.16,0.125,3166.6666666666665
-0.15,0.145,3169.4444444444443
-0.125,0.15,3172.222222222222
-0.13,0.125,3175.0
-0.16,0.125,3177.777777777778
-0.15,0.12,3180.5555555555557
-0.155,0.135,3183.3333333333335
-0.155,0.145,3186.1111111111113
-0.155,0.145,3188.8888888888887
-0.16,0.135,3191.6666666666665
-0.15,0.13,3194.4444444444443
-0.155,0.125,3197.222222222222
-0.15,0.15,3200.0
-0.15,0.165,3202.777777777778
-0.135,0.17,3205.5555555555557
-0.145,0.15,3208.3333333333335
-0.165,0.13,3211.1111111111113
-0.18,0.115,3213.8888888888887
-0.19,0.135,3216.6666666666665
-0.185,0.145,3219.4444444444443
-0.155,0.14,3222.222222222222
-0.165,0.135,3225.0
-0.165,0.115,3227.777777777778
-0.2,0.115,3230.5555555555557
-0.205,0.12,3233.3333333333335
-0.175,0.125,3236.1111111111113
-0.165,0.125,3238.8888888888887
-0.155,0.1,3241.6666666666665
-0.17,0.095,3244.4444444444443
-0.175,0.095,3247.222222222222
-0.195,0.105,3250.0
-0.165,0.11,3252.777777777778
-0.165,0.12,3255.5555555555557
-0.155,0.115,3258.3333333333335
-0.165,0.105,3261.1111111111113
-0.21,0.09,3263.8888888888887
-0.195,0.095,3266.6666666666665
-0.16,0.105,3269.4444444444443
-0.15,0.13,3272.222222222222
-0.165,0.12,3275.0
-0.165,0.115,3277.777777777778
-0.175,0.1,3280.5555555555557
-0.165,0.125,3283.3333333333335
-0.145,0.12,3286.1111111111113
-0.125,0.13,3288.8888888888887
-0.125,0.12,3291.6666666666665
-0.15,0.11,3294.4444444444443
-0.16,0.1,3297.222222222222
-0.175,0.125,3300.0
-0.145,0.135,3302.777777777778
-0.135,0.14,3305.5555555555557
-0.13,0.14,3308.3333333333335
-0.14,0.125,3311.1111111111113
-0.165,0.11,3313.8888888888887
-0.17,0.115,3316.6666666666665
-0.17,0.125,3319.4444444444443
-0.155,0.15,3322.222222222222
-0.145,0.145,3325.0
-0.15,0.12,3327.777777777778
-0.16,0.105,3330.5555555555557
-0.155,0.135,3333.3333333333335
-0.125,0.135,3336.1111111111113
-0.115,0.155,3338.8888888888887
-0.125,0.15,3341.6666666666665
-0.135,0.14,3344.4444444444443
-0.155,0.14,3347.222222222222
-0.155,0.16,3350.0
-0.135,0.17,3352.777777777778
-0.13,0.17,3355.5555555555557
-0.135,0.15,3358.3333333333335
-0.155,0.135,3361.1111111111113
-0.155,0.135,3363.8888888888887
-0.16,0.145,3366.6666666666665
-0.14,0.155,3369.4444444444443
-0.135,0.16,3372.222222222222
-0.13,0.155,3375.0
-0.135,0.135,3377.777777777778
-0.13,0.12,3380.5555555555557
-0.135,0.13,3383.3333333333335
-0.145,0.14,3386.1111111111113
-0.11,0.145,3388.8888888888887
-0.125,0.13,3391.6666666666665
-0.13,0.12,3394.4444444444443
-0.145,0.105,3397.222222222222
-0.13,0.13,3400.0
-0.09,0.135,3402.777777777778
-0.05,0.12,3405.5555555555557
-0.065,0.105,3408.3333333333335
-0.065,0.075,3411.1111111111113
-0.05,0.06,3413.8888888888887
-0.005,0.075,3416.6666666666665
0.07,0.08,3419.4444444444443
0.165,0.07,3422.222222222222
0.255,0.05,3425.0
0.36,0.02,3427.777777777778
0.485,0.0,3430.5555555555557
0.63,-0.025,3433.3333333333335
0.79,-0.045,3436.1111111111113
0.965,-0.055,3438.8888888888887
1.135,-0.06,3441.6666666666665
1.275,-0.04,3444.4444444444443
1.385,0.01,3447.222222222222
1.425,0.1,3450.0
1.385,0.17,3452.777777777778
1.26,0.205,3455.5555555555557
1.025,0.2,3458.3333333333335
0.745,0.18,3461.1111111111113
0.495,0.215,3463.8888888888887
0.245,0.275,3466.6666666666665
0.005,0.315,3469.4444444444443
-0.17,0.35,3472.222222222222
-0.265,0.355,3475.0
-0.275,0.335,3477.777777777778
-0.25,0.29,3480.5555555555557
-0.2,0.25,3483.3333333333335
-0.17,0.245,3486.1111111111113
-0.15,0.22,3488.8888888888887
-0.15,0.195,3491.6666666666665
-0.155,0.15,3494.4444444444443
-0.165,0.12,3497.222222222222
-0.16,0.115,3500.0
-0.18,0.115,3502.777777777778
-0.17,0.095,3505.5555555555557
-0.19,0.08,3508.3333333333335
-0.215,0.07,3511.1111111111113
-0.225,0.06,3513.8888888888887
-0.225,0.095,3516.6666666666665
-0.215,0.105,3519.4444444444443
-0.195,0.11,3522.222222222222
-0.2,0.1,3525.0
-0.215,0.085,3527.777777777778
-0.205,0.095,3530.5555555555557
-0.205,0.095,3533.3333333333335
-0.2,0.115,3536.1111111111113
-0.185,0.105,3538.8888888888887
-0.185,0.115,3541.6666666666665
-0.205,0.1,3544.4444444444443
-0.21,0.11,3547.222222222222
-0.22,0.13,3550.0
-0.21,0.14,3552.777777777778
-0.21,0.135,3555.5555555555557
-0.21,0.11,3558.3333333333335
-0.235,0.09,3561.1111111111113
-0.245,0.1,3563.8888888888887
-0.235,0.115,3566.6666666666665
-0.22,0.125,3569.4444444444443
-0.19,0.13,3572.222222222222
-0.19,0.12,3575.0
-0.195,0.12,3577.777777777778
-0.215,0.11,3580.5555555555557
-0.23,0.12,3583.3333333333335
-0.215,0.13,3586.1111111111113
-0.21,0.14,3588.8888888888887
-0.21,0.135,3591.6666666666665
-0.22,0.095,3594.4444444444443
-0.23,0.105,3597.222222222222
-0.23,0.105,3600.0
-0.215,0.125,3602.777777777778
-0.195,0.14,3605.5555555555557
-0.2,0.13,3608.3333333333335
-0.2,0.13,3611.1111111111113
-0.215,0.125,3613.8888888888887
-0.2,0.125,3616.6666666666665
-0.185,0.12,3619.4444444444443
-0.19,0.115,3622.222222222222
-0.2,0.115,3625.0
-0.205,0.105,3627.777777777778
-0.225,0.105,3630.5555555555557
-0.22,0.115,3633.3333333333335
-0.205,0.115,3636.1111111111113
-0.2,0.125,3638.8888888888887
-0.2,0.11,3641.6666666666665
-0.22,0.095,3644.4444444444443
-0.22,0.06,3647.222222222222
-0.2,0.06,3650.0
-0.17,0.065,3652.777777777778
-0.15,0.07,3655.5555555555557
-0.145,0.06,3658.3333333333335
-0.155,0.04,3661.1111111111113
-0.17,0.045,3663.8888888888887
-0.16,0.045,3666.6666666666665
-0.135,0.065,3669.4444444444443
-0.125,0.06,3672.222222222222
-0.115,0.04,3675.0
-0.125,0.04,3677.777777777778
-0.145,0.035,3680.5555555555557
-0.13,0.03,3683.3333333333335
-0.13,0.04,3686.1111111111113
-0.115,0.045,3688.8888888888887
-0.105,0.025,3691.6666666666665
-0.1,0.015,3694.4444444444443
-0.115,0.01,3697.222222222222
-0.11,0.02,3700.0
-0.1,0.015,3702.777777777778
-0.09,0.005,3705.5555555555557
-0.08,-0.015,3708.3333333333335
-0.09,-0.015,3711.1111111111113
-0.08,-0.01,3713.8888888888887
-0.08,0.005,3716.6666666666665
-0.065,0.01,3719.4444444444443
-0.06,0.01,3722.222222222222
-0.065,-0.01,3725.0
-0.075,-0.015,3727.777777777778
-0.08,-0.045,3730.5555555555557
-0.065,-0.025,3733.3333333333335
-0.065,-0.005,3736.1111111111113
-0.045,0.0,3738.8888888888887
-0.04,-0.02,3741.6666666666665
-0.045,-0.035,3744.4444444444443
-0.055,-0.055,3747.222222222222
-0.055,-0.04,3750.0
-0.04,-0.025,3752.777777777778
-0.035,-0.035,3755.5555555555557
-0.04,-0.04,3758.3333333333335
-0.05,-0.035,3761.1111111111113
-0.04,-0.04,3763.8888888888887
-0.035,-0.035,3766.6666666666665
-0.015,-0.035,3769.4444444444443
0.0,-0.015,3772.222222222222
-0.005,-0.035,3775.0
-0.035,-0.045,3777.777777777778
-0.05,-0.04,3780.5555555555557
-0.045,-0.04,3783.3333333333335
-0.03,-0.02,3786.1111111111113
-0.025,-0.015,3788.8888888888887
-0.035,-0.03,3791.6666666666665
-0.035,-0.035,3794.4444444444443
-0.065,-0.025,3797.222222222222
-0.065,0.01,3800.0
-0.065,0.025,3802.777777777778
-0.055,0.035,3805.5555555555557
-0.08,0.055,3808.3333333333335
-0.095,0.035,3811.1111111111113
-0.115,0.045,3813.8888888888887
-0.1,0.055,3816.6666666666665
-0.09,0.095,3819.4444444444443
-0.085,0.11,3822.222222222222
-0.085,0.11,3825.0
-0.11,0.125,3827.777777777778
-0.13,0.125,3830.5555555555557
-0.14,0.14,3833.3333333333335
-0.125,0.165,3836.1111111111113
-0.11,0.185,3838.8888888888887
-0.115,0.16,3841.6666666666665
-0.125,0.135,3844.4444444444443
-0.145,0.145,3847.222222222222
-0.15,0.175,3850.0
-0.14,0.195,3852.777777777778
-0.125,0.195,3855.5555555555557
-0.12,0.2,3858.3333333333335
-0.14,0.19,3861.1111111111113
-0.15,0.2,3863.8888888888887
-0.165,0.215,3866.6666666666665
-0.14,0.215,3869.4444444444443
-0.125,0.22,3872.222222222222
-0.13,0.21,3875.0
-0.13,0.21,3877.777777777778
-0.125,0.2,3880.5555555555557
-0.105,0.22,3883.3333333333335
-0.075,0.21,3886.1111111111113
-0.06,0.21,3888.8888888888887
-0.08,0.205,3891.6666666666665
-0.08,0.205,3894.4444444444443
-0.08,0.195,3897.222222222222
-0.055,0.195,3900.0
-0.02,0.215,3902.777777777778
0.015,0.225,3905.5555555555557
0.035,0.2,3908.3333333333335
0.055,0.205,3911.1111111111113
0.04,0.21,3913.8888888888887
0.04,0.23,3916.6666666666665
0.08,0.23,3919.4444444444443
0.135,0.23,3922.222222222222
0.175,0.21,3925.0
0.225,0.17,3927.777777777778
0.265,0.11,3930.5555555555557
0.335,0.02,3933.3333333333335
0.42,-0.045,3936.1111111111113
0.495,-0.11,3938.8888888888887
0.56,-0.19,3941.6666666666665
0.62,-0.27,3944.4444444444443
0.67,-0.35,3947.222222222222
0.735,-0.41,3950.0
0.825,-0.49,3952.777777777778
0.91,-0.59,3955.5555555555557
0.98,-0.69,3958.3333333333335
1.03,-0.78,3961.1111111111113
1.065,-0.855,3963.8888888888887
1.12,-0.89,3966.6666666666665
1.125,-0.915,3969.4444444444443
1.115,-0.915,3972.222222222222
1.1,-0.915,3975.0
1.085,-0.91,3977.777777777778
1.065,-0.905,3980.5555555555557
1.015,-0.905,3983.3333333333335
0.97,-0.89,3986.1111111111113
0.91,-0.875,3988.8888888888887
0.81,-0.87,3991.6666666666665
0.69,-0.85,3994.4444444444443
0.56,-0.805,3997.222222222222
0.445,-0.74,4000.0
0.345,-0.665,4002.777777777778
0.28,-0.615,4005.5555555555557
0.225,-0.555,4008.3333333333335
0.175,-0.505,4011.1111111111113
0.135,-0.455,4013.8888888888887
0.135,-0.405,4016.6666666666665
0.13,-0.355,4019.4444444444443
0.145,-0.29,4022.222222222222
0.15,-0.24,4025.0
0.145,-0.21,4027.777777777778
0.18,-0.17,4030.5555555555557
0.235,-0.115,4033.3333333333335
0.305,-0.085,4036.1111111111113
0.365,-0.065,4038.8888888888887
0.315,-0.06,4041.6666666666665
0.2,-0.06,4044.4444444444443
0.04,-0.03,4047.222222222222
-0.12,0.025,4050.0
-0.25,0.09,4052.777777777778
-0.305,0.145,4055.5555555555557
-0.36,0.2,4058.3333333333335
-0.385,0.24,4061.1111111111113
-0.415,0.285,4063.8888888888887
-0.445,0.3,4066.6666666666665
-0.47,0.32,4069.4444444444443
-0.465,0.345,4072.222222222222
-0.485,0.355,4075.0
-0.51,0.36,4077.777777777778
-0.54,0.37,4080.5555555555557
-0.57,0.38,4083.3333333333335
-0.56,0.41,4086.1111111111113
-0.56,0.42,4088.8888888888887
-0.575,0.41,4091.6666666666665
-0.585,0.405,4094.4444444444443
-0.595,0.395,4097.222222222223
-0.615,0.42,4100.0
-0.605,0.46,4102.777777777777
-0.6,0.48,4105.555555555556
-0.605,0.48,4108.333333333333
-0.615,0.47,4111.111111111111
-0.62,0.47,4113.888888888889
-0.62,0.495,4116.666666666667
-0.64,0.52,4119.444444444444
-0.64,0.545,4122.222222222223
-0.635,0.555,4125.0
-0.645,0.53,4127.777777777777
-0.675,0.54,4130.555555555556
-0.66,0.55,4133.333333333333
-0.645,0.57,4136.111111111111
-0.625,0.575,4138.888888888889
-0.635,0.575,4141.666666666667
-0.655,0.58,4144.444444444444
-0.66,0.585,4147.222222222223
-0.685,0.625,4150.0
-0.675,0.635,4152.777777777777
-0.665,0.635,4155.555555555556
-0.675,0.635,4158.333333333333
-0.695,0.635,4161.111111111111
-0.705,0.645,4163.888888888889
-0.72,0.675,4166.666666666667
-0.72,0.69,4169.444444444444
-0.71,0.71,4172.222222222223
-0.705,0.695,4175.0
-0.74,0.705,4177.777777777777
-0.75,0.7,4180.555555555556
-0.745,0.72,4183.333333333333
-0.745,0.745,4186.111111111111
-0.725,0.745,4188.888888888889
-0.725,0.755,4191.666666666667
-0.73,0.755,4194.444444444444
-0.73,0.765,4197.222222222223
-0.735,0.79,4200.0
-0.715,0.8,4202.777777777777
-0.705,0.79,4205.555555555556
-0.73,0.8,4208.333333333333
-0.735,0.795,4211.111111111111
-0.725,0.795,4213.888888888889
-0.73,0.81,4216.666666666667
-0.715,0.81,4219.444444444444
-0.67,0.815,4222.222222222223
-0.675,0.815,4225.0
-0.67,0.8,4227.777777777777
-0.665,0.79,4230.555555555556
-0.65,0.8,4233.333333333333
-0.625,0.77,4236.111111111111
-0.615,0.78,4238.888888888889
-0.61,0.76,4241.666666666667
-0.61,0.73,4244.444444444444
-0.595,0.71,4247.222222222223
-0.57,0.7,4250.0
-0.54,0.69,4252.777777777777
-0.52,0.66,4255.555555555556
-0.51,0.645,4258.333333333333
-0.495,0.595,4261.111111111111
-0.48,0.58,4263.888888888889
-0.48,0.56,4266.666666666667
-0.445,0.555,4269.444444444444
-0.405,0.53,4272.222222222223
-0.4,0.49,4275.0
-0.415,0.43,4277.777777777777
-0.405,0.43,4280.555555555556
-0.365,0.415,4283.333333333333
-0.35,0.395,4286.111111111111
-0.325,0.385,4288.888888888889
-0.31,0.36,4291.666666666667
-0.315,0.335,4294.444444444444
-0.335,0.305,4297.222222222223
-0.33,0.3,4300.0
-0.31,0.305,4302.777777777777
-0.27,0.295,4305.555555555556
-0.255,0.26,4308.333333333333
-0.265,0.24,4311.111111111111
-0.29,0.225,4313.888888888889
-0.285,0.23,4316.666666666667
-0.255,0.23,4319.444444444444
-0.24,0.225,4322.222222222223
-0.25,0.22,4325.0
-0.25,0.195,4327.777777777777
-0.255,0.17,4330.555555555556
-0.255,0.18,4333.333333333333
-0.255,0.19,4336.111111111111
-0.25,0.2,4338.888888888889
-0.235,0.185,4341.666666666667
-0.25,0.155,4344.444444444444
-0.255,0.155,4347.222222222223
-0.25,0.165,4350.0
-0.24,0.18,4352.777777777777
-0.225,0.185,4355.555555555556
-0.23,0.175,4358.333333333333
-0.26,0.165,4361.111111111111
-0.25,0.165,4363.888888888889
-0.245,0.175,4366.666666666667
-0.245,0.19,4369.444444444444
-0.22,0.19,4372.222222222223
-0.22,0.17,4375.0
-0.24,0.165,4377.777777777777
-0.255,0.155,4380.555555555556
-0.23,0.16,4383.333333333333
-0.215,0.18,4386.111111111111
-0.195,0.165,4388.888888888889
-0.21,0.14,4391.666666666667
-0.205,0.125,4394.444444444444
-0.205,0.11,4397.222222222223
-0.21,0.125,4400.0
-0.205,0.155,4402.777777777777
-0.195,0.16,4405.555555555556
-0.2,0.155,4408.333333333333
-0.215,0.13,4411.111111111111
-0.235,0.125,4413.888888888889
-0.235,0.13,4416.666666666667
-0.225,0.14,4419.444444444444
-0.21,0.16,4422.222222222223
-0.205,0.15,4425.0
-0.2,0.14,4427.777777777777
-0.225,0.13,4430.555555555556
-0.24,0.155,4433.333333333333
-0.22,0.165,4436.111111111111
-0.205,0.175,4438.888888888889
-0.2,0.16,4441.666666666667
-0.21,0.135,4444.444444444444
-0.23,0.14,4447.222222222223
-0.215,0.145,4450.0
-0.21,0.16,4452.777777777777
-0.18,0.175,4455.555555555556
-0.195,0.17,4458.333333333333
-0.23,0.15,4461.111111111111
-0.24,0.16,4463.888888888889
-0.225,0.17,4466.666666666667
-0.21,0.18,4469.444444444444
-0.2,0.19,4472.222222222223
-0.22,0.18,4475.0
-0.24,0.165,4477.777777777777
-0.235,0.165,4480.555555555556
-0.23,0.195,4483.333333333333
-0.225,0.185,4486.111111111111
-0.215,0.18,4488.888888888889
-0.23,0.18,4491.666666666667
-0.235,0.17,4494.444444444444
-0.24,0.16,4497.222222222223
-0.24,0.155,4500.0
-0.235,0.15,4502.777777777777
-0.235,0.145,4505.555555555556
-0.25,0.12,4508.333333333333
-0.255,0.115,4511.111111111111
-0.26,0.095,4513.888888888889
-0.245,0.11,4516.666666666667
-0.225,0.135,4519.444444444444
-0.2,0.13,4522.222222222223
-0.215,0.115,4525.0
-0.225,0.095,4527.777777777777
-0.235,0.085,4530.555555555556
-0.225,0.11,4533.333333333333
-0.21,0.12,4536.111111111111
-0.205,0.11,4538.888888888889
-0.215,0.11,4541.666666666667
-0.225,0.105,4544.444444444444
-0.235,0.1,4547.222222222223
-0.23,0.11,4550.0
-0.24,0.12,4552.777777777777
-0.215,0.125,4555.555555555556
-0.22,0.1,4558.333333333333
-0.225,0.07,4561.111111111111
-0.23,0.095,4563.888888888889
-0.22,0.105,4566.666666666667
-0.215,0.125,4569.444444444444
-0.19,0.13,4572.222222222223
-0.195,0.13,4575.0
-0.225,0.11,4577.777777777777
-0.245,0.115,4580.555555555556
-0.26,0.135,4583.333333333333
-0.245,0.155,4586.111111111111
-0.215,0.14,4588.888888888889
-0.215,0.135,4591.666666666667
-0.24,0.12,4594.444444444444
-0.28,0.135,4597.222222222223
-0.26,0.14,4600.0
-0.25,0.16,4602.777777777777
-0.24,0.155,4605.555555555556
-0.24,0.145,4608.333333333333
-0.235,0.145,4611.111111111111
-0.24,0.145,4613.888888888889
-0.235,0.15,4616.666666666667
-0.23,0.155,4619.444444444444
-0.215,0.155,4622.222222222223
-0.215,0.16,4625.0
-0.225,0.145,4627.777777777777
-0.235,0.14,4630.555555555556
-0.23,0.14,4633.333333333333
-0.22,0.15,4636.111111111111
-0.235,0.15,4638.888888888889
-0.24,0.14,4641.666666666667
-0.25,0.135,4644.444444444444
-0.245,0.135,4647.222222222223
-0.23,0.14,4650.0
-0.225,0.16,4652.777777777777
-0.21,0.16,4655.555555555556
-0.22,0.165,4658.333333333333
-0.235,0.14,4661.111111111111
-0.245,0.135,4663.888888888889
-0.245,0.15,4666.666666666667
-0.23,0.15,4669.444444444444
-0.22,0.135,4672.222222222223
-0.23,0.135,4675.0
-0.25,0.12,4677.777777777777
-0.24,0.12,4680.555555555556
-0.245,0.125,4683.333333333333
-0.225,0.125,4686.111111111111
-0.19,0.14,4688.888888888889
-0.195,0.135,4691.666666666667
-0.205,0.115,4694.444444444444
-0.23,0.115,4697.222222222223
-0.225,0.125,4700.0
-0.225,0.135,4702.777777777777
-0.19,0.13,4705.555555555556
-0.2,0.14,4708.333333333333
-0.225,0.11,4711.111111111111
-0.235,0.12,4713.888888888889
-0.235,0.12,4716.666666666667
-0.22,0.125,4719.444444444444
-0.24,0.13,4722.222222222223
-0.25,0.13,4725.0
-0.265,0.115,4727.777777777777
-0.265,0.14,4730.555555555556
-0.245,0.145,4733.333333333333
-0.23,0.155,4736.111111111111
-0.215,0.15,4738.888888888889
-0.225,0.125,4741.666666666667
-0.24,0.1,4744.444444444444
-0.24,0.11,4747.222222222223
-0.25,0.11,4750.0
-0.23,0.125,4752.777777777777
-0.215,0.12,4755.555555555556
-0.215,0.125,4758.333333333333
-0.23,0.105,4761.111111111111
-0.24,0.12,4763.888888888889
-0.245,0.125,4766.666666666667
-0.23,0.125,4769.444444444444
-0.23,0.11,4772.222222222223
-0.21,0.12,4775.0
-0.22,0.115,4777.777777777777
-0.235,0.12,4780.555555555556
-0.235,0.135,4783.333333333333
-0.22,0.165,4786.111111111111
-0.205,0.14,4788.888888888889
-0.225,0.135,4791.666666666667
-0.235,0.11,4794.444444444444
-0.25,0.115,4797.222222222223
-0.26,0.115,4800.0
-0.225,0.135,4802.777777777777
-0.215,0.135,4805.555555555556
-0.235,0.12,4808.333333333333
-0.24,0.11,4811.111111111111
-0.255,0.105,4813.888888888889
-0.245,0.11,4816.666666666667
-0.225,0.115,4819.444444444444
-0.205,0.115,4822.222222222223
-0.21,0.105,4825.0
-0.225,0.095,4827.777777777777
-0.24,0.105,4830.555555555556
-0.225,0.115,4833.333333333333
-0.205,0.125,4836.111111111111
-0.235,0.125,4838.888888888889
-0.255,0.125,4841.666666666667
-0.28,0.115,4844.444444444444
-0.275,0.11,4847.222222222223
-0.235,0.125,4850.0
-0.21,0.14,4852.777777777777
-0.21,0.15,4855.555555555556
-0.215,0.135,4858.333333333333
-0.21,0.125,4861.111111111111
-0.21,0.125,4863.888888888889
-0.21,0.14,4866.666666666667
-0.2,0.145,4869.444444444444
-0.18,0.145,4872.222222222223
-0.19,0.115,4875.0
-0.2,0.095,4877.777777777777
-0.22,0.09,4880.555555555556
-0.23,0.115,4883.333333333333
-0.205,0.125,4886.111111111111
-0.19,0.115,4888.888888888889
-0.21,0.115,4891.666666666667
-0.2,0.095,4894.444444444444
-0.225,0.11,4897.222222222223
-0.22,0.125,4900.0
-0.2,0.145,4902.777777777777
-0.195,0.15,4905.555555555556
-0.195,0.145,4908.333333333333
-0.215,0.12,4911.111111111111
-0.215,0.125,4913.888888888889
-0.215,0.145,4916.666666666667
-0.2,0.155,4919.444444444444
-0.21,0.14,4922.222222222223
-0.205,0.13,4925.0
-0.19,0.11,4927.777777777777
-0.21,0.125,4930.555555555556
-0.205,0.135,4933.333333333333
-0.205,0.155,4936.111111111111
-0.18,0.15,4938.888888888889
-0.19,0.135,4941.666666666667
-0.205,0.115,4944.444444444444
-0.2,0.13,4947.222222222223
-0.2,0.125,4950.0
-0.185,0.145,4952.777777777777
-0.16,0.145,4955.555555555556
-0.165,0.125,4958.333333333333
-0.17,0.105,4961.111111111111
-0.19,0.095,4963.888888888889
-0.19,0.1,4966.666666666667
-0.17,0.105,4969.444444444444
-0.155,0.095,4972.222222222223
-0.15,0.085,4975.0
-0.125,0.06,4977.777777777777
-0.095,0.045,4980.555555555556
-0.025,0.055,4983.333333333333
0.045,0.05,4986.111111111111
0.135,0.05,4988.888888888889
0.245,0.04,4991.666666666667
0.34,0.025,4994.444444444444
0.48,0.015,4997.222222222223
0.67,-0.03,5000.0
0.855,-0.05,5002.777777777777
1.03,-0.065,5005.555555555556
1.19,-0.08,5008.333333333333
1.285,-0.065,5011.111111111111
1.335,-0.005,5013.888888888889
1.275,0.08,5016.666666666667
1.13,0.12,5019.444444444444
0.905,0.105,5022.222222222223
0.635,0.11,5025.0
0.37,0.14,5027.777777777777
0.09,0.175,5030.555555555556
-0.135,0.215,5033.333333333333
-0.27,0.225,5036.111111111111
-0.29,0.235,5038.888888888889
-0.26,0.2,5041.666666666667
-0.23,0.155,5044.444444444444
-0.225,0.12,5047.222222222223
-0.195,0.11,5050.0
-0.2,0.11,5052.777777777777
-0.21,0.115,5055.555555555556
-0.2,0.11,5058.333333333333
-0.225,0.095,5061.111111111111
-0.23,0.085,5063.888888888889
-0.22,0.095,5066.666666666667
-0.22,0.12,5069.444444444444
-0.23,0.13,5072.222222222223
-0.25,0.125,5075.0
-0.285,0.12,5077.777777777777
-0.275,0.115,5080.555555555556
-0.275,0.115,5083.333333333333
-0.26,0.135,5086.111111111111
-0.26,0.13,5088.888888888889
-0.275,0.12,5091.666666666667
-0.29,0.095,5094.444444444444
-0.295,0.11,5097.222222222223
-0.29,0.12,5100.0
-0.275,0.14,5102.777777777777
-0.265,0.14,5105.555555555556
-0.265,0.13,5108.333333333333
-0.285,0.115,5111.111111111111
-0.3,0.12,5113.888888888889
-0.29,0.155,5116.666666666667
-0.28,0.16,5119.444444444444
-0.27,0.155,5122.222222222223
-0.265,0.13,5125.0
-0.275,0.115,5127.777777777777
-0.315,0.12,5130.555555555556
-0.33,0.135,5133.333333333333
-0.305,0.165,5136.111111111111
-0.29,0.165,5138.888888888889
-0.3,0.15,5141.666666666667
-0.31,0.15,5144.444444444444
-0.33,0.145,5147.222222222223
-0.335,0.155,5150.0
-0.295,0.16,5152.777777777777
-0.28,0.155,5155.555555555556
-0.295,0.14,5158.333333333333
-0.3,0.115,5161.111111111111
-0.31,0.115,5163.888888888889
-0.3,0.12,5166.666666666667
-0.285,0.115,5169.444444444444
-0.26,0.105,5172.222222222223
-0.26,0.085,5175.0
-0.285,0.09,5177.777777777777
-0.275,0.095,5180.555555555556
-0.27,0.12,5183.333333333333
-0.255,0.12,5186.111111111111
-0.245,0.125,5188.888888888889
-0.245,0.1,5191.666666666667
-0.26,0.095,5194.444444444444
-0.275,0.085,5197.222222222223
-0.27,0.08,5200.0
-0.26,0.105,5202.777777777777
-0.245,0.11,5205.555555555556
-0.23,0.095,5208.333333333333
-0.235,0.07,5211.111111111111
-0.245,0.075,5213.888888888889
-0.23,0.09,5216.666666666667
-0.24,0.095,5219.444444444444
-0.195,0.09,5222.222222222223
-0.205,0.075,5225.0
-0.205,0.07,5227.777777777777
-0.21,0.075,5230.555555555556
-0.195,0.07,5233.333333333333
-0.165,0.075,5236.111111111111
-0.14,0.08,5238.888888888889
-0.145,0.065,5241.666666666667
-0.15,0.055,5244.444444444444
-0.16,0.03,5247.222222222223
-0.165,0.04,5250.0
-0.145,0.035,5252.777777777777
-0.13,0.045,5255.555555555556
-0.13,0.02,5258.333333333333
-0.145,0.005,5261.111111111111
-0.135,0.005,5263.888888888889
-0.12,0.01,5266.666666666667
-0.11,0.01,5269.444444444444
-0.09,0.0,5272.222222222223
-0.095,-0.02,5275.0
-0.11,-0.04,5277.777777777777
-0.1,-0.04,5280.555555555556
-0.085,-0.04,5283.333333333333
-0.075,-0.04,5286.111111111111
-0.075,-0.04,5288.888888888889
-0.065,-0.05,5291.666666666667
-0.07,-0.06,5294.444444444444
-0.07,-0.055,5297.222222222223
-0.065,-0.06,5300.0
-0.035,-0.055,5302.777777777777
-0.015,-0.05,5305.555555555556
-0.02,-0.08,5308.333333333333
-0.025,-0.085,5311.111111111111
-0.025,-0.09,5313.888888888889
-0.03,-0.06,5316.666666666667
-0.015,-0.04,5319.444444444444
0.015,-0.035,5322.222222222223
0.02,-0.05,5325.0
-0.005,-0.05,5327.777777777777
-0.01,-0.02,5330.555555555556
-0.025,0.005,5333.333333333333
-0.025,0.03,5336.111111111111
-0.03,0.035,5338.888888888889
-0.04,0.03,5341.666666666667
-0.05,0.02,5344.444444444444
-0.07,0.05,5347.222222222223
-0.08,0.08,5350.0
-0.075,0.095,5352.777777777777
-0.06,0.09,5355.555555555556
-0.075,0.09,5358.333333333333
-0.1,0.075,5361.111111111111
-0.12,0.1,5363.888888888889
-0.13,0.125,5366.666666666667
-0.125,0.145,5369.444444444444
-0.115,0.14,5372.222222222223
-0.135,0.135,5375.0
-0.155,0.12,5377.777777777777
-0.175,0.125,5380.555555555556
-0.175,0.14,5383.333333333333
-0.155,0.16,5386.111111111111
-0.15,0.155,5388.888888888889
-0.155,0.15,5391.666666666667
-0.16,0.135,5394.444444444444
-0.17,0.13,5397.222222222223
-0.175,0.15,5400.0
-0.17,0.17,5402.777777777777
-0.155,0.18,5405.555555555556
-0.175,0.165,5408.333333333333
-0.18,0.155,5411.111111111111
-0.19,0.13,5413.888888888889
-0.195,0.12,5416.666666666667
-0.185,0.12,5419.444444444444
-0.165,0.125,5422.222222222223
-0.165,0.11,5425.0
-0.195,0.095,5427.777777777777
-0.195,0.1,5430.555555555556
-0.19,0.105,5433.333333333333
-0.17,0.115,5436.111111111111
-0.155,0.1,5438.888888888889
-0.175,0.095,5441.666666666667
-0.185,0.085,5444.444444444444
-0.175,0.075,5447.222222222223
-0.17,0.09,5450.0
-0.155,0.095,5452.777777777777
-0.14,0.09,5455.555555555556
-0.135,0.085,5458.333333333333
-0.155,0.075,5461.111111111111
-0.16,0.085,5463.888888888889
-0.14,0.085,5466.666666666667
-0.14,0.09,5469.444444444444
-0.145,0.1,5472.222222222223
-0.145,0.095,5475.0
-0.165,0.08,5477.777777777777
-0.165,0.09,5480.555555555556
-0.175,0.105,5483.333333333333
-0.16,0.11,5486.111111111111
-0.135,0.105,5488.888888888889
-0.12,0.09,5491.666666666667
-0.145,0.085,5494.444444444444
-0.15,0.095,5497.222222222223
-0.13,0.09,5500.0
-0.13,0.115,5502.777777777777
-0.1,0.115,5505.555555555556
-0.11,0.115,5508.333333333333
-0.125,0.09,5511.111111111111
-0.14,0.095,5513.888888888889
-0.15,0.095,5516.666666666667
-0.13,0.115,5519.444444444444
-0.15,0.1,5522.222222222223
-0.16,0.1,5525.0
-0.18,0.085,5527.777777777777
-0.18,0.09,5530.555555555556
-0.18,0.1,5533.333333333333
-0.16,0.11,5536.111111111111
-0.15,0.105,5538.888888888889
-0.16,0.095,5541.666666666667
-0.155,0.085,5544.444444444444
-0.165,0.095,5547.222222222223
-0.16,0.095,5550.0
-0.165,0.11,5552.777777777777
-0.15,0.115,5555.555555555556
-0.16,0.12,5558.333333333333
-0.165,0.095,5561.111111111111
-0.185,0.085,5563.888888888889
-0.17,0.085,5566.666666666667
-0.16,0.115,5569.444444444444
-0.15,0.105,5572.222222222223
-0.16,0.11,5575.0
-0.185,0.085,5577.777777777777
-0.19,0.095,5580.555555555556
-0.21,0.095,5583.333333333333
-0.19,0.105,5586.111111111111
-0.18,0.115,5588.888888888889
-0.17,0.105,5591.666666666667
-0.185,0.095,5594.444444444444
-0.2,0.1,5597.222222222223
-0.185,0.1,5600.0
-0.17,0.115,5602.777777777777
-0.17,0.11,5605.555555555556
-0.175,0.09,5608.333333333333
-0.18,0.095,5611.111111111111
-0.2,0.1,5613.888888888889
-0.175,0.105,5616.666666666667
-0.165,0.125,5619.444444444444
-0.15,0.11,5622.222222222223
-0.155,0.09,5625.0
-0.16,0.08,5627.777777777777
-0.185,0.095,5630.555555555556
-0.185,0.11,5633.333333333333
-0.165,0.13,5636.111111111111
-0.16,0.12,5638.888888888889
-0.155,0.105,5641.666666666667
-0.16,0.08,5644.444444444444
-0.18,0.09,5647.222222222223
-0.165,0.11,5650.0
-0.17,0.115,5652.777777777777
-0.155,0.105,5655.555555555556
-0.17,0.105,5658.333333333333
-0.19,0.105,5661.111111111111
-0.195,0.115,5663.888888888889
-0.19,0.135,5666.666666666667
-0.17,0.125,5669.444444444444
-0.15,0.13,5672.222222222223
-0.14,0.11,5675.0
-0.16,0.095,5677.777777777777
-0.19,0.1,5680.555555555556
-0.2,0.105,5683.333333333333
-0.185,0.12,5686.111111111111
-0.155,0.13,5688.888888888889
-0.15,0.11,5691.666666666667
-0.155,0.09,5694.444444444444
-0.175,0.085,5697.222222222223
-0.155,0.09,5700.0
-0.105,0.095,5702.777777777777
-0.03,0.085,5705.555555555556
0.03,0.06,5708.333333333333
0.105,0.05,5711.111111111111
0.2,0.035,5713.888888888889
0.3,0.045,5716.666666666667
0.46,0.035,5719.444444444444
0.645,-0.005,5722.222222222223
0.835,-0.055,5725.0
1.0,-0.1,5727.777777777777
1.165,-0.085,5730.555555555556
1.295,-0.05,5733.333333333333
1.335,0.045,5736.111111111111
1.25,0.14,5738.888888888889
1.01,0.175,5741.666666666667
0.7,0.145,5744.444444444444
0.355,0.17,5747.222222222223
0.055,0.245,5750.0
-0.2,0.32,5752.777777777777
-0.34,0.365,5755.555555555556
-0.375,0.355,5758.333333333333
-0.325,0.32,5761.111111111111
-0.29,0.26,5763.888888888889
-0.25,0.205,5766.666666666667
-0.2,0.165,5769.444444444444
-0.17,0.14,5772.222222222223
-0.18,0.085,5775.0
-0.205,0.08,5777.777777777777
-0.225,0.085,5780.555555555556
-0.22,0.08,5783.333333333333
-0.21,0.1,5786.111111111111
-0.22,0.1,5788.888888888889
-0.235,0.1,5791.666666666667
-0.25,0.09,5794.444444444444
-0.265,0.1,5797.222222222223
-0.265,0.12,5800.0
-0.26,0.13,5802.777777777777
-0.245,0.13,5805.555555555556
-0.24,0.11,5808.333333333333
-0.25,0.1,5811.111111111111
-0.265,0.1,5813.888888888889
-0.265,0.11,5816.666666666667
-0.27,0.13,5819.444444444444
-0.26,0.115,5822.222222222223
-0.285,0.125,5825.0
-0.29,0.115,5827.777777777777
-0.285,0.105,5830.555555555556
-0.28,0.11,5833.333333333333
-0.265,0.115,5836.111111111111
-0.26,0.1,5838.888888888889
-0.255,0.09,5841.666666666667
-0.285,0.08,5844.444444444444
-0.29,0.09,5847.222222222223
-0.305,0.11,5850.0
-0.3,0.135,5852.777777777777
-0.28,0.12,5855.555555555556
-0.28,0.11,5858.333333333333
-0.295,0.1,5861.111111111111
-0.285,0.095,5863.888888888889
-0.27,0.12,5866.666666666667
-0.26,0.125,5869.444444444444
-0.25,0.11,5872.222222222223
-0.255,0.095,5875.0
-0.26,0.09,5877.777777777777
-0.25,0.085,5880.555555555556
-0.245,0.065,5883.333333333333
-0.24,0.095,5886.111111111111
-0.215,0.085,5888.888888888889
-0.22,0.07,5891.666666666667
-0.25,0.055,5894.444444444444
-0.23,0.065,5897.222222222223
-0.23,0.07,5900.0
-0.215,0.07,5902.777777777777
-0.205,0.075,5905.555555555556
-0.215,0.06,5908.333333333333
-0.22,0.05,5911.111111111111
-0.235,0.035,5913.888888888889
-0.235,0.03,5916.666666666667
-0.215,0.04,5919.444444444444
-0.19,0.025,5922.222222222223
-0.17,0.02,5925.0
-0.17,0.005,5927.777777777777
-0.185,0.005,5930.555555555556
-0.205,0.015,5933.333333333333
-0.205,0.03,5936.111111111111
-0.175,0.04,5938.888888888889
-0.165,0.02,5941.666666666667
-0.16,-0.005,5944.444444444444
-0.16,-0.04,5947.222222222223
-0.16,-0.03,5950.0
-0.135,-0.005,5952.777777777777
-0.125,-0.01,5955.555555555556
-0.125,-0.02,5958.333333333333
-0.12,-0.05,5961.111111111111
-0.11,-0.06,5963.888888888889
-0.115,-0.055,5966.666666666667
-0.095,-0.045,5969.444444444444
-0.075,-0.06,5972.222222222223
-0.075,-0.065,5975.0
-0.11,-0.09,5977.777777777777
-0.12,-0.09,5980.555555555556
-0.105,-0.08,5983.333333333333
-0.065,-0.075,5986.111111111111
-0.06,-0.09,5988.888888888889
-0.07,-0.09,5991.666666666667
-0.065,-0.095,5994.444444444444
-0.09,-0.1,5997.222222222223
-0.085,-0.095,6000.0
-0.06,-0.1,6002.777777777777
-0.04,-0.09,6005.555555555556
-0.04,-0.095,6008.333333333333
-0.065,-0.105,6011.111111111111
-0.07,-0.105,6013.888888888889
-0.055,-0.09,6016.666666666667
-0.065,-0.075,6019.444444444444
-0.05,-0.065,6022.222222222223
-0.045,-0.05,6025.0
-0.06,-0.05,6027.777777777777
-0.09,-0.04,6030.555555555556
-0.095,-0.015,6033.333333333333
-0.095,0.02,6036.111111111111
-0.1,0.015,6038.888888888889
-0.115,0.035,6041.666666666667
-0.13,0.025,6044.444444444444
-0.155,0.03,6047.222222222223
-0.155,0.055,6050.0
-0.14,0.08,6052.777777777777
-0.145,0.085,6055.555555555556
-0.14,0.075,6058.333333333333
-0.16,0.085,6061.111111111111
-0.18,0.1,6063.888888888889
-0.19,0.105,6066.666666666667
-0.185,0.125,6069.444444444444
-0.185,0.145,6072.222222222223
-0.19,0.14,6075.0
-0.21,0.13,6077.777777777777
-0.215,0.14,6080.555555555556
-0.2,0.16,6083.333333333333
-0.2,0.195,6086.111111111111
-0.2,0.2,6088.888888888889
-0.205,0.205,6091.666666666667
-0.23,0.195,6094.444444444444
-0.23,0.19,6097.222222222223
-0.215,0.185,6100.0
-0.21,0.19,6102.777777777777
-0.195,0.2,6105.555555555556
-0.185,0.195,6108.333333333333
-0.2,0.185,6111.111111111111
-0.205,0.185,6113.888888888889
-0.23,0.205,6116.666666666667
-0.215,0.215,6119.444444444444
-0.2,0.205,6122.222222222223
-0.19,0.19,6125.0
-0.185,0.165,6127.777777777777
-0.19,0.17,6130.555555555556
-0.17,0.185,6133.333333333333
-0.17,0.185,6136.111111111111
-0.16,0.175,6138.888888888889
-0.175,0.165,6141.666666666667
-0.185,0.15,6144.444444444444
-0.185,0.16,6147.222222222223
-0.175,0.17,6150.0
-0.175,0.175,6152.777777777777
-0.145,0.18,6155.555555555556
-0.175,0.14,6158.333333333333
-0.185,0.13,6161.111111111111
-0.2,0.13,6163.888888888889
-0.215,0.13,6166.666666666667
-0.175,0.16,6169.444444444444
-0.17,0.14,6172.222222222223
-0.175,0.125,6175.0
-0.18,0.1,6177.777777777777
-0.19,0.085,6180.555555555556
-0.195,0.11,6183.333333333333
-0.19,0.115,6186.111111111111
-0.19,0.12,6188.888888888889
-0.2,0.11,6191.666666666667
-0.195,0.105,6194.444444444444
-0.205,0.115,6197.222222222223
-0.195,0.12,6200.0
-0.175,0.12,6202.777777777777
-0.16,0.105,6205.555555555556
-0.17,0.1,6208.333333333333
-0.205,0.085,6211.111111111111
-0.195,0.1,6213.888888888889
-0.21,0.12,6216.666666666667
-0.185,0.14,6219.444444444444
-0.17,0.13,6222.222222222223
-0.185,0.125,6225.0
-0.205,0.1,6227.777777777777
-0.215,0.105,6230.555555555556
-0.19,0.125,6233.333333333333
-0.175,0.15,6236.111111111111
-0.165,0.15,6238.888888888889
-0.175,0.155,6241.666666666667
-0.185,0.13,6244.444444444444
-0.185,0.15,6247.222222222223
-0.185,0.16,6250.0
-0.19,0.175,6252.777777777777
-0.165,0.145,6255.555555555556
-0.18,0.12,6258.333333333333
-0.2,0.12,6261.111111111111
-0.225,0.125,6263.888888888889
-0.205,0.14,6266.666666666667
-0.19,0.165,6269.444444444444
-0.18,0.145,6272.222222222223
-0.18,0.155,6275.0
-0.185,0.135,6277.777777777777
-0.19,0.14,6280.555555555556
-0.205,0.15,6283.333333333333
-0.18,0.145,6286.111111111111
-0.19,0.145,6288.888888888889
-0.19,0.125,6291.666666666667
-0.215,0.12,6294.444444444444
-0.235,0.135,6297.222222222223
-0.215,0.135,6300.0
-0.195,0.145,6302.777777777777
-0.17,0.14,6305.555555555556
-0.18,0.13,6308.333333333333
-0.19,0.115,6311.111111111111
-0.205,0.12,6313.888888888889
-0.21,0.13,6316.666666666667
-0.19,0.15,6319.444444444444
-0.185,0.145,6322.222222222223
-0.21,0.13,6325.0
-0.22,0.125,6327.777777777777
-0.23,0.13,6330.555555555556
-0.235,0.145,6333.333333333333
-0.215,0.16,6336.111111111111
-0.19,0.17,6338.888888888889
-0.215,0.15,6341.666666666667
-0.235,0.125,6344.444444444444
-0.22,0.12,6347.222222222223
-0.21,0.135,6350.0
-0.205,0.155,6352.777777777777
-0.2,0.15,6355.555555555556
-0.185,0.12,6358.333333333333
-0.2,0.09,6361.111111111111
-0.21,0.105,6363.888888888889
-0.22,0.135,6366.666666666667
-0.21,0.155,6369.444444444444
-0.2,0.16,6372.222222222223
-0.2,0.155,6375.0
-0.185,0.13,6377.777777777777
-0.21,0.14,6380.555555555556
-0.21,0.145,6383.333333333333
-0.205,0.155,6386.111111111111
-0.185,0.155,6388.888888888889
-0.195,0.155,6391.666666666667
-0.19,0.15,6394.444444444444
-0.2,0.15,6397.222222222223
-0.205,0.155,6400.0
-0.205,0.15,6402.777777777777
-0.2,0.155,6405.555555555556
-0.19,0.14,6408.333333333333
-0.2,0.12,6411.111111111111
-0.195,0.12,6413.888888888889
-0.2,0.12,6416.666666666667
-0.195,0.145,6419.444444444444
-0.195,0.14,6422.222222222223
-0.2,0.15,6425.0
-0.22,0.145,6427.777777777777
-0.2,0.135,6430.555555555556
-0.18,0.14,6433.333333333333
-0.175,0.16,6436.111111111111
-0.16,0.16,6438.888888888889
-0.18,0.155,6441.666666666667
-0.195,0.135,6444.444444444444
-0.205,0.145,6447.222222222223
-0.2,0.155,6450.0
-0.175,0.165,6452.777777777777
-0.145,0.145,6455.555555555556
-0.16,0.14,6458.333333333333
-0.17,0.13,6461.111111111111
-0.19,0.13,6463.888888888889
-0.185,0.14,6466.666666666667
-0.16,0.14,6469.444444444444
-0.165,0.14,6472.222222222223
-0.17,0.12,6475.0
-0.18,0.13,6477.777777777777
-0.185,0.135,6480.555555555556
-0.165,0.14,6483.333333333333
-0.145,0.16,6486.111111111111
-0.135,0.145,6488.888888888889
-0.145,0.115,6491.666666666667
-0.165,0.115,6494.444444444444
-0.15,0.115,6497.222222222223
-0.17,0.135,6500.0
-0.155,0.14,6502.777777777777
-0.165,0.135,6505.555555555556
-0.145,0.105,6508.333333333333
-0.145,0.08,6511.111111111111
-0.115,0.075,6513.888888888889
-0.045,0.075,6516.666666666667
0.04,0.09,6519.444444444444
0.13,0.07,6522.222222222223
0.215,0.06,6525.0
0.32,0.02,6527.777777777777
0.455,0.01,6530.555555555556
0.625,-0.01,6533.333333333333
0.82,-0.035,6536.111111111111
1.035,-0.055,6538.888888888889
1.215,-0.06,6541.666666666667
1.34,-0.035,6544.444444444444
1.4,0.05,6547.222222222223
1.35,0.15,6550.0
1.195,0.195,6552.777777777777
0.935,0.185,6555.555555555556
0.64,0.17,6558.333333333333
0.325,0.195,6561.111111111111
0.01,0.26,6563.888888888889
-0.245,0.325,6566.666666666667
-0.355,0.365,6569.444444444444
-0.35,0.355,6572.222222222223
-0.275,0.31,6575.0
-0.265,0.23,6577.777777777777
-0.245,0.195,6580.555555555556
-0.225,0.17,6583.333333333333
-0.2,0.165,6586.111111111111
-0.185,0.145,6588.888888888889
-0.22,0.13,6591.666666666667
-0.23,0.13,6594.444444444444
-0.24,0.13,6597.222222222223
-0.25,0.14,6600.0
-0.23,0.145,6602.777777777777
-0.23,0.145,6605.555555555556
-0.26,0.115,6608.333333333333
-0.265,0.115,6611.111111111111
-0.295,0.13,6613.888888888889
-0.27,0.13,6616.666666666667
-0.26,0.15,6619.444444444444
-0.25,0.145,6622.222222222223
-0.265,0.125,6625.0
-0.28,0.1,6627.777777777777
-0.28,0.105,6630.555555555556
-0.29,0.1,6633.333333333333
-0.26,0.105,6636.111111111111
-0.245,0.11,6638.888888888889
-0.27,0.11,6641.666666666667
-0.275,0.105,6644.444444444444
-0.29,0.1,6647.222222222223
-0.27,0.09,6650.0
-0.26,0.11,6652.777777777777
-0.245,0.1,6655.555555555556
-0.25,0.1,6658.333333333333
-0.26,0.1,6661.111111111111
-0.265,0.11,6663.888888888889
-0.27,0.125,6666.666666666667
-0.255,0.135,6669.444444444444
-0.26,0.13,6672.222222222223
-0.265,0.13,6675.0
-0.275,0.125,6677.777777777777
-0.285,0.11,6680.555555555556
-0.295,0.115,6683.333333333333
-0.28,0.13,6686.111111111111
-0.25,0.125,6688.888888888889
-0.24,0.11,6691.666666666667
-0.24,0.09,6694.444444444444
-0.265,0.08,6697.222222222223
-0.26,0.1,6700.0
-0.245,0.125,6702.777777777777
-0.23,0.115,6705.555555555556
-0.235,0.115,6708.333333333333
-0.24,0.105,6711.111111111111
-0.235,0.105,6713.888888888889
-0.23,0.115,6716.666666666667
-0.235,0.12,6719.444444444444
-0.22,0.1,6722.222222222223
-0.2,0.095,6725.0
-0.215,0.075,6727.777777777777
-0.235,0.095,6730.555555555556
-0.22,0.1,6733.333333333333
-0.215,0.105,6736.111111111111
-0.195,0.08,6738.888888888889
-0.2,0.06,6741.666666666667
-0.215,0.045,6744.444444444444
-0.225,0.05,6747.222222222223
-0.19,0.05,6750.0
-0.15,0.045,6752.777777777777
-0.12,0.035,6755.555555555556
-0.125,0.0,6758.333333333333
-0.14,-0.025,6761.111111111111
-0.14,-0.025,6763.888888888889
-0.135,-0.015,6766.666666666667
-0.11,-0.01,6769.444444444444
-0.08,-0.02,6772.222222222223
-0.095,-0.04,6775.0
-0.1,-0.07,6777.777777777777
-0.1,-0.07,6780.555555555556
-0.095,-0.07,6783.333333333333
-0.07,-0.06,6786.111111111111
-0.045,-0.07,6788.888888888889
-0.05,-0.085,6791.666666666667
-0.09,-0.1,6794.444444444444
-0.065,-0.085,6797.222222222223
-0.06,-0.08,6800.0
-0.05,-0.075,6802.777777777777
-0.04,-0.095,6805.555555555556
-0.03,-0.095,6808.333333333333
-0.04,-0.085,6811.111111111111
-0.055,-0.1,6813.888888888889
-0.035,-0.075,6816.666666666667
-0.04,-0.06,6819.444444444444
-0.015,-0.075,6822.222222222223
-0.03,-0.075,6825.0
-0.045,-0.09,6827.777777777777
-0.05,-0.07,6830.555555555556
-0.04,-0.045,6833.333333333333
-0.04,-0.025,6836.111111111111
-0.045,-0.025,6838.888888888889
-0.045,-0.02,6841.666666666667
-0.055,-0.025,6844.444444444444
-0.07,-0.02,6847.222222222223
-0.08,0.0,6850.0
-0.08,0.02,6852.777777777777
-0.09,0.04,6855.555555555556
-0.1,0.035,6858.333333333333
-0.125,0.025,6861.111111111111
-0.135,0.035,6863.888888888889
-0.13,0.065,6866.666666666667
-0.105,0.09,6869.444444444444
-0.09,0.095,6872.222222222223
-0.13,0.08,6875.0
-0.165,0.075,6877.777777777777
-0.185,0.095,6880.555555555556
-0.18,0.12,6883.333333333333
-0.17,0.15,6886.111111111111
-0.17,0.14,6888.888888888889
-0.17,0.13,6891.666666666667
-0.18,0.12,6894.444444444444
-0.19,0.13,6897.222222222223
-0.185,0.145,6900.0
-0.195,0.145,6902.777777777777
-0.18,0.135,6905.555555555556
-0.185,0.125,6908.333333333333
-0.195,0.115,6911.111111111111
-0.19,0.135,6913.888888888889
-0.185,0.14,6916.666666666667
-0.165,0.165,6919.444444444444
-0.135,0.155,6922.222222222223
-0.145,0.155,6925.0
-0.145,0.13,6927.777777777777
-0.145,0.13,6930.555555555556
-0.105,0.14,6933.333333333333
-0.055,0.155,6936.111111111111
-0.005,0.17,6938.888888888889
0.005,0.165,6941.666666666667
0.005,0.17,6944.444444444444
0.03,0.195,6947.222222222223
0.065,0.205,6950.0
0.14,0.205,6952.777777777777
0.215,0.17,6955.555555555556
0.275,0.095,6958.333333333333
0.345,-0.005,6961.111111111111
0.395,-0.08,6963.888888888889
0.47,-0.135,6966.666666666667
0.57,-0.205,6969.444444444444
0.645,-0.265,6972.222222222223
0.705,-0.355,6975.0
0.75,-0.43,6977.777777777777
0.82,-0.535,6980.555555555556
0.915,-0.625,6983.333333333333
1.035,-0.71,6986.111111111111
1.12,-0.815,6988.888888888889
1.16,-0.905,6991.666666666667
1.17,-0.965,6994.444444444444
1.145,-0.965,6997.222222222223
1.125,-0.94,7000.0
1.12,-0.92,7002.777777777777
1.105,-0.95,7005.555555555556
1.055,-0.985,7008.333333333333
0.98,-1.01,7011.111111111111
0.89,-1.01,7013.888888888889
0.785,-0.99,7016.666666666667
0.67,-0.94,7019.444444444444
0.555,-0.92,7022.222222222223
0.425,-0.89,7025.0
0.29,-0.855,7027.777777777777
0.17,-0.79,7030.555555555556
0.075,-0.72,7033.333333333333
0.015,-0.62,7036.111111111111
-0.01,-0.56,7038.888888888889
-0.025,-0.505,7041.666666666667
-0.055,-0.435,7044.444444444444
-0.075,-0.38,7047.222222222223
-0.085,-0.31,7050.0
-0.045,-0.25,7052.777777777777
0.025,-0.2,7055.555555555556
0.1,-0.15,7058.333333333333
0.165,-0.12,7061.111111111111
0.215,-0.095,7063.888888888889
0.22,-0.065,7066.666666666667
0.15,-0.03,7069.444444444444
0.025,0.01,7072.222222222223
-0.14,0.045,7075.0
-0.285,0.085,7077.777777777777
-0.35,0.15,7080.555555555556
-0.405,0.225,7083.333333333333
-0.41,0.285,7086.111111111111
-0.425,0.315,7088.888888888889
-0.43,0.345,7091.666666666667
-0.47,0.345,7094.444444444444
-0.505,0.37,7097.222222222223
-0.515,0.395,7100.0
-0.51,0.415,7102.777777777777
-0.5,0.415,7105.555555555556
-0.52,0.4,7108.333333333333
-0.56,0.395,7111.111111111111
-0.58,0.4,7113.888888888889
-0.575,0.42,7116.666666666667
-0.56,0.44,7119.444444444444
-0.56,0.445,7122.222222222223
-0.585,0.44,7125.0
-0.605,0.425,7127.777777777777
-0.615,0.44,7130.555555555556
-0.61,0.46,7133.333333333333
-0.61,0.49,7136.111111111111
-0.605,0.475,7138.888888888889
-0.625,0.48,7141.666666666667
-0.63,0.48,7144.444444444444
-0.66,0.48,7147.222222222223
-0.645,0.51,7150.0
-0.65,0.52,7152.777777777777
-0.64,0.525,7155.555555555556
-0.67,0.505,7158.333333333333
-0.67,0.505,7161.111111111111
-0.695,0.525,7163.888888888889
-0.695,0.545,7166.666666666667
-0.68,0.56,7169.444444444444
-0.665,0.575,7172.222222222223
-0.67,0.555,7175.0
-0.69,0.545,7177.777777777777
-0.71,0.575,7180.555555555556
-0.69,0.595,7183.333333333333
-0.695,0.63,7186.111111111111
-0.69,0.635,7188.888888888889
-0.7,0.635,7191.666666666667
-0.72,0.64,7194.444444444444
-0.725,0.65,7197.222222222223
-0.72,0.685,7200.0
-0.7,0.71,7202.777777777777
-0.69,0.7,7205.555555555556
-0.685,0.705,7208.333333333333
-0.705,0.715,7211.111111111111
-0.705,0.725,7213.888888888889
-0.695,0.735,7216.666666666667
-0.675,0.77,7219.444444444444
-0.67,0.78,7222.222222222223
-0.66,0.775,7225.0
-0.675,0.775,7227.777777777777
-0.65,0.785,7230.555555555556
-0.635,0.805,7233.333333333333
-0.605,0.825,7236.111111111111
-0.6,0.825,7238.888888888889
-0.61,0.8,7241.666666666667
-0.6,0.79,7244.444444444444
-0.6,0.785,7247.222222222223
-0.57,0.79,7250.0
-0.555,0.8,7252.777777777777
-0.525,0.785,7255.555555555556
-0.515,0.755,7258.333333333333
-0.52,0.74,7261.111111111111
-0.515,0.73,7263.888888888889
-0.5,0.725,7266.666666666667
-0.47,0.715,7269.444444444444
-0.435,0.705,7272.222222222223
-0.43,0.655,7275.0
-0.41,0.64,7277.777777777777
-0.4,0.62,7280.555555555556
-0.375,0.6,7283.333333333333
-0.36,0.59,7286.111111111111
-0.35,0.56,7288.888888888889
-0.325,0.535,7291.666666666667
-0.33,0.49,7294.444444444444
-0.335,0.48,7297.222222222223
-0.305,0.46,7300.0
-0.29,0.45,7302.777777777777
-0.28,0.405,7305.555555555556
-0.305,0.385,7308.333333333333
-0.315,0.355,7311.111111111111
-0.315,0.345,7313.888888888889
-0.305,0.34,7316.666666666667
-0.305,0.335,7319.444444444444
-0.29,0.305,7322.222222222223
-0.29,0.29,7325.0
-0.305,0.26,7327.777777777777
-0.315,0.255,7330.555555555556
-0.31,0.245,7333.333333333333
-0.305,0.255,7336.111111111111
-0.295,0.245,7338.888888888889
-0.295,0.23,7341.666666666667
-0.305,0.21,7344.444444444444
-0.335,0.2,7347.222222222223
-0.335,0.215,7350.0
-0.31,0.21,7352.777777777777
-0.32,0.21,7355.555555555556
-0.33,0.18,7358.333333333333
-0.325,0.185,7361.111111111111
-0.32,0.185,7363.888888888889
-0.3,0.195,7366.666666666667
-0.28,0.205,7369.444444444444
-0.28,0.18,7372.222222222223
-0.27,0.165,7375.0
-0.295,0.15,7377.777777777777
-0.29,0.165,7380.555555555556
-0.29,0.18,7383.333333333333
-0.265,0.21,7386.111111111111
-0.255,0.195,7388.888888888889
-0.245,0.17,7391.666666666667
-0.265,0.14,7394.444444444444
-0.27,0.14,7397.222222222223
-0.28,0.155,7400.0
-0.275,0.165,7402.777777777777
-0.255,0.16,7405.555555555556
-0.26,0.15,7408.333333333333
-0.25,0.13,7411.111111111111
-0.26,0.14,7413.888888888889
-0.265,0.16,7416.666666666667
-0.24,0.165,7419.444444444444
-0.235,0.15,7422.222222222223
-0.235,0.14,7425.0
-0.275,0.135,7427.777777777777
-0.285,0.135,7430.555555555556
-0.285,0.13,7433.333333333333
-0.255,0.155,7436.111111111111
-0.23,0.155,7438.888888888889
-0.23,0.155,7441.666666666667
-0.25,0.135,7444.444444444444
-0.265,0.145,7447.222222222223
-0.26,0.15,7450.0
-0.26,0.155,7452.777777777777
-0.255,0.15,7455.555555555556
-0.26,0.155,7458.333333333333
-0.265,0.14,7461.111111111111
-0.265,0.155,7463.888888888889
-0.26,0.165,7466.666666666667
-0.255,0.19,7469.444444444444
-0.235,0.19,7472.222222222223
-0.24,0.175,7475.0
-0.255,0.165,7477.777777777777
-0.26,0.17,7480.555555555556
-0.275,0.185,7483.333333333333
-0.25,0.19,7486.111111111111
-0.245,0.17,7488.888888888889
-0.245,0.13,7491.666666666667
-0.26,0.12,7494.444444444444
-0.265,0.115,7497.222222222223
-0.25,0.115,7500.0
-0.24,0.125,7502.777777777777
-0.245,0.13,7505.555555555556
-0.245,0.125,7508.333333333333
-0.25,0.115,7511.111111111111
-0.275,0.12,7513.888888888889
-0.265,0.13,7516.666666666667
-0.26,0.155,7519.444444444444
-0.255,0.15,7522.222222222223
-0.255,0.14,7525.0
-0.265,0.145,7527.777777777777
-0.275,0.135,7530.555555555556
-0.26,0.14,7533.333333333333
-0.255,0.155,7536.111111111111
-0.24,0.15,7538.888888888889
-0.255,0.145,7541.666666666667
-0.255,0.145,7544.444444444444
-0.255,0.155,7547.222222222223
-0.26,0.16,7550.0
-0.245,0.17,7552.777777777777
-0.24,0.165,7555.555555555556
-0.255,0.145,7558.333333333333
-0.27,0.145,7561.111111111111
-0.28,0.13,7563.888888888889
-0.265,0.155,7566.666666666667
-0.25,0.17,7569.444444444444
-0.24,0.155,7572.222222222223
-0.245,0.145,7575.0
-0.27,0.14,7577.777777777777
-0.265,0.14,7580.555555555556
-0.255,0.155,7583.333333333333
-0.245,0.155,7586.111111111111
-0.235,0.135,7588.888888888889
-0.245,0.12,7591.666666666667
-0.25,0.135,7594.444444444444
-0.27,0.15,7597.222222222223
-0.265,0.155,7600.0
-0.24,0.18,7602.777777777777
-0.235,0.19,7605.555555555556
-0.245,0.175,7608.333333333333
-0.28,0.16,7611.111111111111
-0.265,0.16,7613.888888888889
-0.27,0.185,7616.666666666667
-0.26,0.2,7619.444444444444
-0.245,0.175,7622.222222222223
-0.24,0.155,7625.0
-0.26,0.135,7627.777777777777
-0.265,0.14,7630.555555555556
-0.275,0.135,7633.333333333333
-0.25,0.135,7636.111111111111
-0.25,0.145,7638.888888888889
-0.245,0.145,7641.666666666667
-0.255,0.135,7644.444444444444
-0.255,0.12,7647.222222222223
-0.26,0.13,7650.0
-0.255,0.15,7652.777777777777
-0.25,0.145,7655.555555555556
-0.265,0.125,7658.333333333333
-0.285,0.105,7661.111111111111
-0.3,0.125,7663.888888888889
-0.26,0.145,7666.666666666667
-0.25,0.165,7669.444444444444
-0.24,0.16,7672.222222222223
-0.235,0.145,7675.0
-0.24,0.145,7677.777777777777
-0.25,0.14,7680.555555555556
-0.25,0.165,7683.333333333333
-0.255,0.175,7686.111111111111
-0.245,0.175,7688.888888888889
-0.245,0.16,7691.666666666667
-0.25,0.155,7694.444444444444
-0.255,0.165,7697.222222222223
-0.25,0.175,7700.0
-0.24,0.185,7702.777777777777
-0.23,0.19,7705.555555555556
-0.24,0.175,7708.333333333333
-0.25,0.17,7711.111111111111
-0.255,0.175,7713.888888888889
-0.27,0.18,7716.666666666667
-0.26,0.19,7719.444444444444
-0.245,0.185,7722.222222222223
-0.25,0.175,7725.0
-0.265,0.17,7727.777777777777
-0.275,0.155,7730.555555555556
-0.26,0.17,7733.333333333333
-0.24,0.19,7736.111111111111
-0.23,0.19,7738.888888888889
-0.24,0.16,7741.666666666667
-0.245,0.135,7744.444444444444
-0.265,0.12,7747.222222222223
-0.265,0.135,7750.0
-0.24,0.145,7752.777777777777
-0.23,0.14,7755.555555555556
-0.215,0.13,7758.333333333333
-0.24,0.115,7761.111111111111
-0.245,0.11,7763.888888888889
-0.245,0.115,7766.666666666667
-0.235,0.14,7769.444444444444
-0.215,0.135,7772.222222222223
-0.225,0.125,7775.0
-0.24,0.1,7777.777777777777
-0.255,0.11,7780.555555555556
-0.24,0.125,7783.333333333333
-0.24,0.145,7786.111111111111
-0.215,0.135,7788.888888888889
-0.21,0.13,7791.666666666667
-0.23,0.105,7794.444444444444
-0.235,0.13,7797.222222222223
-0.205,0.145,7800.0
-0.18,0.14,7802.777777777777
-0.18,0.125,7805.555555555556
-0.19,0.115,7808.333333333333
-0.2,0.1,7811.111111111111
-0.19,0.095,7813.888888888889
-0.15,0.095,7816.666666666667
-0.11,0.105,7819.444444444444
-0.03,0.085,7822.222222222223
0.035,0.065,7825.0
0.1,0.05,7827.777777777777
0.225,0.055,7830.555555555556
0.39,0.05,7833.333333333333
0.57,0.02,7836.111111111111
0.775,-0.025,7838.888888888889
0.97,-0.075,7841.666666666667
1.105,-0.1,7844.444444444444
1.235,-0.06,7847.222222222223
1.32,0.06,7850.0
1.295,0.155,7852.777777777777
1.145,0.205,7855.555555555556
0.86,0.205,7858.333333333333
0.525,0.21,7861.111111111111
0.185,0.245,7863.888888888889
-0.105,0.29,7866.666666666667
-0.305,0.33,7869.444444444444
-0.385,0.32,7872.222222222223
-0.37,0.295,7875.0
-0.33,0.25,7877.777777777777
-0.29,0.2,7880.555555555556
-0.26,0.155,7883.333333333333
-0.235,0.145,7886.111111111111
-0.23,0.12,7888.888888888889
-0.275,0.115,7891.666666666667
-0.29,0.115,7894.444444444444
-0.315,0.11,7897.222222222223
-0.285,0.13,7900.0
-0.305,0.14,7902.777777777777
-0.275,0.135,7905.555555555556
-0.3,0.12,7908.333333333333
-0.305,0.115,7911.111111111111
-0.31,0.13,7913.888888888889
-0.315,0.13,7916.666666666667
-0.3,0.15,7919.444444444444
-0.305,0.145,7922.222222222223
-0.31,0.13,7925.0
-0.32,0.12,7927.777777777777
-0.325,0.125,7930.555555555556
-0.305,0.135,7933.333333333333
-0.32,0.135,7936.111111111111
-0.305,0.145,7938.888888888889
-0.325,0.14,7941.666666666667
-0.32,0.145,7944.444444444444
-0.31,0.15,7947.222222222223
-0.3,0.16,7950.0
-0.3,0.165,7952.777777777777
-0.295,0.16,7955.555555555556
-0.315,0.145,7958.333333333333
-0.315,0.12,7961.111111111111
-0.32,0.105,7963.888888888889
-0.32,0.11,7966.666666666667
-0.32,0.135,7969.444444444444
-0.3,0.13,7972.222222222223
-0.31,0.12,7975.0
-0.325,0.115,7977.777777777777
-0.325,0.11,7980.555555555556
-0.32,0.13,7983.333333333333
-0.32,0.15,7986.111111111111
-0.32,0.14,7988.888888888889
-0.315,0.13,7991.666666666667
-0.33,0.12,7994.444444444444
-0.34,0.125,7997.222222222223
-0.32,0.135,8000.0
-0.31,0.14,8002.777777777777
-0.3,0.15,8005.555555555556
-0.3,0.135,8008.333333333333
-0.325,0.12,8011.111111111111
-0.32,0.11,8013.888888888889
-0.3,0.12,8016.666666666667
-0.28,0.14,8019.444444444444
-0.265,0.13,8022.222222222223
-0.275,0.125,8025.0
-0.28,0.11,8027.777777777777
-0.28,0.12,8030.555555555556
-0.275,0.12,8033.333333333333
-0.25,0.13,8036.111111111111
-0.235,0.105,8038.888888888889
-0.24,0.07,8041.666666666667
-0.255,0.07,8044.444444444444
-0.255,0.075,8047.222222222223
-0.26,0.075,8050.0
-0.245,0.08,8052.777777777777
-0.225,0.065,8055.555555555556
-0.21,0.04,8058.333333333333
-0.21,0.03,8061.111111111111
-0.2,0.035,8063.888888888889
-0.175,0.035,8066.666666666667
-0.145,0.04,8069.444444444444
-0.15,0.02,8072.222222222223
-0.145,-0.01,8075.0
-0.15,-0.035,8077.777777777777
-0.17,-0.025,8080.555555555556
-0.175,-0.015,8083.333333333333
-0.155,-0.005,8086.111111111111
-0.15,-0.015,8088.888888888889
-0.17,-0.035,8091.666666666667
-0.15,-0.06,8094.444444444444
-0.16,-0.045,8097.222222222223
-0.155,-0.045,8100.0
-0.14,-0.045,8102.777777777777
-0.125,-0.05,8105.555555555556
-0.11,-0.06,8108.333333333333
-0.11,-0.08,8111.111111111111
-0.11,-0.075,8113.888888888889
-0.095,-0.075,8116.666666666667
-0.09,-0.07,8119.444444444444
-0.075,-0.08,8122.222222222223
-0.09,-0.075,8125.0
-0.085,-0.085,8127.777777777777
-0.105,-0.065,8130.555555555556
-0.105,-0.06,8133.333333333333
-0.07,-0.055,8136.111111111111
-0.055,-0.08,8138.888888888889
-0.06,-0.07,8141.666666666667
-0.075,-0.08,8144.444444444444
-0.085,-0.055,8147.222222222223
-0.085,-0.035,8150.0
-0.075,-0.005,8152.777777777777
-0.05,0.0,8155.555555555556
-0.055,-0.005,8158.333333333333
-0.08,0.005,8161.111111111111
-0.095,0.015,8163.888888888889
-0.105,0.035,8166.666666666667
-0.11,0.06,8169.444444444444
-0.09,0.065,8172.222222222223
-0.115,0.075,8175.0
-0.125,0.09,8177.777777777777
-0.15,0.095,8180.555555555556
-0.145,0.125,8183.333333333333
-0.145,0.14,8186.111111111111
-0.155,0.14,8188.888888888889
-0.18,0.15,8191.666666666667
-0.2,0.15,8194.444444444445
-0.22,0.135,8197.222222222223
-0.215,0.15,8200.0
-0.195,0.165,8202.777777777777
-0.195,0.165,8205.555555555555
-0.21,0.14,8208.333333333334
-0.245,0.125,8211.111111111111
-0.25,0.14,8213.888888888889
-0.245,0.145,8216.666666666666
-0.24,0.145,8219.444444444445
-0.24,0.135,8222.222222222223
-0.25,0.12,8225.0
-0.25,0.125,8227.777777777777
-0.26,0.135,8230.555555555555
-0.25,0.14,8233.333333333334
-0.23,0.155,8236.111111111111
-0.235,0.16,8238.888888888889
-0.23,0.14,8241.666666666666
-0.255,0.125,8244.444444444445
-0.25,0.125,8247.222222222223
-0.25,0.155,8250.0
-0.225,0.17,8252.777777777777
-0.23,0.17,8255.555555555555
-0.22,0.15,8258.333333333334
-0.245,0.125,8261.111111111111
-0.255,0.135,8263.888888888889
-0.25,0.135,8266.666666666666
-0.225,0.17,8269.444444444445
-0.205,0.155,8272.222222222223
-0.21,0.14,8275.0
-0.225,0.12,8277.777777777777
-0.235,0.125,8280.555555555555
-0.22,0.145,8283.333333333334
-0.22,0.155,8286.111111111111
-0.2,0.15,8288.888888888889
-0.215,0.135,8291.666666666666
-0.2,0.125,8294.444444444445
-0.215,0.135,8297.222222222223
-0.2,0.145,8300.0
-0.18,0.165,8302.777777777777
-0.17,0.175,8305.555555555555
-0.17,0.17,8308.333333333334
-0.195,0.155,8311.111111111111
-0.21,0.15,8313.888888888889
-0.215,0.16,8316.666666666666
-0.19,0.155,8319.444444444445
-0.195,0.13,8322.222222222223
-0.205,0.13,8325.0
-0.215,0.125,8327.777777777777
-0.21,0.13,8330.555555555555
-0.195,0.155,8333.333333333334
-0.175,0.165,8336.111111111111
-0.155,0.15,8338.888888888889
-0.165,0.12,8341.666666666666
-0.205,0.105,8344.444444444445
-0.2,0.105,8347.222222222223
-0.195,0.105,8350.0
-0.195,0.135,8352.777777777777
-0.2,0.12,8355.555555555555
-0.2,0.105,8358.333333333334
-0.21,0.09,8361.111111111111
-0.21,0.09,8363.888888888889
-0.21,0.105,8366.666666666666
-0.2,0.135,8369.444444444445
-0.2,0.125,8372.222222222223
-0.22,0.11,8375.0
-0.225,0.095,8377.777777777777
-0.22,0.115,8380.555555555555
-0.215,0.115,8383.333333333334
-0.19,0.12,8386.111111111111
-0.205,0.12,8388.888888888889
-0.215,0.12,8391.666666666666
-0.245,0.115,8394.444444444445
-0.245,0.11,8397.222222222223
-0.23,0.13,8400.0
-0.215,0.135,8402.777777777777
-0.19,0.13,8405.555555555555
-0.19,0.135,8408.333333333334
-0.21,0.115,8411.111111111111
-0.22,0.125,8413.888888888889
-0.23,0.13,8416.666666666666
-0.23,0.15,8419.444444444445
-0.2,0.155,8422.222222222223
-0.195,0.135,8425.0
-0.21,0.125,8427.777777777777
-0.215,0.115,8430.555555555555
-0.205,0.13,8433.333333333334
-0.205,0.145,8436.111111111111
-0.205,0.14,8438.888888888889
-0.205,0.14,8441.666666666666
-0.225,0.115,8444.444444444445
-0.23,0.13,8447.222222222223
-0.225,0.12,8450.0
-0.205,0.135,8452.777777777777
-0.185,0.135,8455.555555555555
-0.195,0.125,8458.333333333334
-0.195,0.115,8461.111111111111
-0.195,0.105,8463.888888888889
-0.185,0.12,8466.666666666666
-0.195,0.135,8469.444444444445
-0.18,0.105,8472.222222222223
-0.18,0.08,8475.0
-0.155,0.06,8477.777777777777
-0.12,0.055,8480.555555555555
-0.04,0.08,8483.333333333334
0.035,0.08,8486.111111111111
0.13,0.06,8488.888888888889
0.235,0.03,8491.666666666666
0.39,0.02,8494.444444444445
0.545,0.01,8497.222222222223
0.76,-0.025,8500.0
0.99,-0.035,8502.777777777777
1.165,-0.04,8505.555555555555
1.32,-0.03,8508.333333333334
1.39,0.01,8511.111111111111
1.365,0.115,8513.888888888889
1.255,0.18,8516.666666666666
1.065,0.21,8519.444444444445
0.805,0.19,8522.222222222223
0.5,0.175,8525.0
0.195,0.205,8527.777777777777
-0.11,0.275,8530.555555555555
-0.34,0.33,8533.333333333334
-0.46,0.365,8536.111111111111
-0.465,0.385,8538.888888888889
-0.415,0.355,8541.666666666666
-0.365,0.31,8544.444444444445
-0.335,0.26,8547.222222222223
-0.305,0.225,8550.0
-0.265,0.22,8552.777777777777
-0.265,0.17,8555.555555555555
-0.26,0.14,8558.333333333334
-0.29,0.12,8561.111111111111
-0.285,0.09,8563.888888888889
-0.29,0.105,8566.666666666666
-0.28,0.12,8569.444444444445
-0.28,0.125,8572.222222222223
-0.285,0.115,8575.0
-0.305,0.115,8577.777777777777
-0.31,0.115,8580.555555555555
-0.31,0.13,8583.333333333334
-0.305,0.14,8586.111111111111
-0.295,0.125,8588.888888888889
-0.305,0.11,8591.666666666666
-0.33,0.12,8594.444444444445
-0.345,0.115,8597.222222222223
-0.315,0.13,8600.0
-0.305,0.13,8602.777777777777
-0.31,0.135,8605.555555555555
-0.315,0.11,8608.333333333334
-0.33,0.095,8611.111111111111
-0.34,0.1,8613.888888888889
-0.325,0.12,8616.666666666666
-0.325,0.125,8619.444444444445
-0.3,0.12,8622.222222222223
-0.32,0.115,8625.0
-0.33,0.1,8627.777777777777
-0.34,0.105,8630.555555555555
-0.325,0.135,8633.333333333334
-0.31,0.145,8636.111111111111
-0.315,0.14,8638.888888888889
-0.32,0.11,8641.666666666666
-0.315,0.09,8644.444444444445
-0.335,0.09,8647.222222222223
-0.335,0.11,8650.0
-0.325,0.11,8652.777777777777
-0.31,0.11,8655.555555555555
-0.325,0.09,8658.333333333334
-0.335,0.08,8661.111111111111
-0.325,0.08,8663.888888888889
-0.3,0.105,8666.666666666666
-0.285,0.12,8669.444444444445
-0.295,0.11,8672.222222222223
-0.31,0.105,8675.0
-0.33,0.085,8677.777777777777
-0.315,0.075,8680.555555555555
-0.325,0.075,8683.333333333334
-0.31,0.085,8686.111111111111
-0.285,0.085,8688.888888888889
-0.3,0.07,8691.666666666666
-0.325,0.06,8694.444444444445
-0.325,0.065,8697.222222222223
-0.32,0.075,8700.0
-0.31,0.07,8702.777777777777
-0.295,0.08,8705.555555555555
-0.305,0.05,8708.333333333334
-0.315,0.04,8711.111111111111
-0.295,0.035,8713.888888888889
-0.28,0.04,8716.666666666666
-0.27,0.05,8719.444444444445
-0.245,0.045,8722.222222222223
-0.24,0.025,8725.0
-0.245,-0.005,8727.777777777777
-0.245,0.01,8730.555555555555
-0.225,-0.025,8733.333333333334
-0.225,-0.03,8736.111111111111
-0.22,-0.045,8738.888888888889
-0.23,-0.055,8741.666666666666
-0.225,-0.065,8744.444444444445
-0.215,-0.07,8747.222222222223
-0.205,-0.065,8750.0
-0.18,-0.04,8752.777777777777
-0.175,-0.06,8755.555555555555
-0.19,-0.08,8758.333333333334
-0.195,-0.1,8761.111111111111
-0.185,-0.095,8763.888888888889
-0.17,-0.08,8766.666666666666
-0.15,-0.09,8769.444444444445
-0.14,-0.1,8772.222222222223
-0.14,-0.12,8775.0
-0.15,-0.115,8777.777777777777
-0.15,-0.11,8780.555555555555
-0.15,-0.125,8783.333333333334
-0.13,-0.105,8786.111111111111
-0.125,-0.115,8788.888888888889
-0.12,-0.12,8791.666666666666
-0.155,-0.125,8794.444444444445
-0.135,-0.105,8797.222222222223
-0.115,-0.095,8800.0
-0.105,-0.055,8802.777777777777
-0.11,-0.065,8805.555555555555
-0.125,-0.065,8808.333333333334
-0.14,-0.075,8811.111111111111
-0.15,-0.055,8813.888888888889
-0.15,-0.025,8816.666666666666
-0.165,0.0,8819.444444444445
-0.16,0.005,8822.222222222223
-0.17,0.01,8825.0
-0.19,0.01,8827.777777777777
-0.21,0.035,8830.555555555555
-0.2,0.06,8833.333333333334
-0.2,0.085,8836.111111111111
-0.21,0.09,8838.888888888889
-0.235,0.08,8841.666666666666
-0.265,0.07,8844.444444444445
-0.275,0.09,8847.222222222223
-0.245,0.12,8850.0
-0.24,0.13,8852.777777777777
-0.26,0.135,8855.555555555555
-0.265,0.125,8858.333333333334
-0.285,0.14,8861.111111111111
-0.31,0.16,8863.888888888889
-0.305,0.195,8866.666666666666
-0.275,0.195,8869.444444444445
-0.26,0.195,8872.222222222223
-0.27,0.175,8875.0
-0.285,0.165,8877.777777777777
-0.305,0.175,8880.555555555555
-0.31,0.185,8883.333333333334
-0.3,0.19,8886.111111111111
-0.29,0.19,8888.888888888889
-0.3,0.185,8891.666666666666
-0.3,0.165,8894.444444444445
-0.305,0.175,8897.222222222223
-0.295,0.175,8900.0
-0.28,0.185,8902.777777777777
-0.265,0.18,8905.555555555555
-0.29,0.185,8908.333333333334
-0.29,0.155,8911.111111111111
-0.285,0.165,8913.888888888889
-0.28,0.165,8916.666666666666
-0.275,0.175,8919.444444444445
-0.26,0.17,8922.222222222223
-0.27,0.17,8925.0
-0.295,0.145,8927.777777777777
-0.285,0.155,8930.555555555555
-0.275,0.175,8933.333333333334
-0.255,0.17,8936.111111111111
-0.25,0.175,8938.888888888889
-0.26,0.17,8941.666666666666
-0.275,0.155,8944.444444444445
-0.24,0.155,8947.222222222223
-0.245,0.165,8950.0
-0.235,0.17,8952.777777777777
-0.235,0.16,8955.555555555555
-0.24,0.135,8958.333333333334
-0.255,0.13,8961.111111111111
-0.27,0.14,8963.888888888889
-0.255,0.15,8966.666666666666
-0.245,0.155,8969.444444444445
-0.235,0.15,8972.222222222223
-0.24,0.14,8975.0
-0.265,0.115,8977.777777777777
-0.265,0.125,8980.555555555555
-0.255,0.135,8983.333333333334
-0.245,0.15,8986.111111111111
-0.23,0.145,8988.888888888889
-0.245,0.125,8991.666666666666
-0.265,0.12,8994.444444444445
-0.255,0.12,8997.222222222223
-0.245,0.135,9000.0
-0.245,0.155,9002.777777777777
-0.235,0.155,9005.555555555555
-0.255,0.13,9008.333333333334
-0.275,0.11,9011.111111111111
-0.265,0.13,9013.888888888889
-0.265,0.14,9016.666666666666
-0.245,0.15,9019.444444444445
-0.24,0.135,9022.222222222223
-0.25,0.135,9025.0
-0.265,0.13,9027.777777777777
-0.26,0.145,9030.555555555555
-0.265,0.15,9033.333333333334
-0.255,0.16,9036.111111111111
-0.24,0.15,9038.888888888889
-0.26,0.145,9041.666666666666
-0.285,0.14,9044.444444444445
-0.29,0.145,9047.222222222223
-0.285,0.155,9050.0
-0.275,0.175,9052.777777777777
-0.28,0.165,9055.555555555555
-0.27,0.155,9058.333333333334
-0.285,0.145,9061.111111111111
-0.29,0.15,9063.888888888889
-0.265,0.17,9066.666666666666
-0.255,0.195,9069.444444444445
-0.255,0.18,9072.222222222223
-0.265,0.16,9075.0
-0.28,0.14,9077.777777777777
-0.29,0.155,9080.555555555555
-0.295,0.165,9083.333333333334
-0.275,0.175,9086.111111111111
-0.275,0.175,9088.888888888889
-0.295,0.155,9091.666666666666
-0.3,0.15,9094.444444444445
-0.305,0.145,9097.222222222223
-0.29,0.15,9100.0
-0.26,0.165,9102.777777777777
-0.26,0.14,9105.555555555555
-0.285,0.13,9108.333333333334
-0.305,0.115,9111.111111111111
-0.315,0.125,9113.888888888889
-0.295,0.14,9116.666666666666
-0.265,0.15,9119.444444444445
-0.255,0.14,9122.222222222223
-0.27,0.125,9125.0
-0.285,0.12,9127.777777777777
-0.29,0.125,9130.555555555555
-0.295,0.13,9133.333333333334
-0.285,0.13,9136.111111111111
-0.28,0.125,9138.888888888889
-0.29,0.115,9141.666666666666
-0.3,0.12,9144.444444444445
-0.29,0.135,9147.222222222223
-0.285,0.15,9150.0
-0.26,0.15,9152.777777777777
-0.255,0.14,9155.555555555555
-0.275,0.125,9158.333333333334
-0.28,0.12,9161.111111111111
-0.305,0.135,9163.888888888889
-0.28,0.15,9166.666666666666
-0.28,0.16,9169.444444444445
-0.25,0.16,9172.222222222223
-0.26,0.145,9175.0
-0.28,0.15,9177.777777777777
-0.275,0.155,9180.555555555555
-0.29,0.15,9183.333333333334
-0.265,0.175,9186.111111111111
-0.26,0.17,9188.888888888889
-0.27,0.155,9191.666666666666
-0.29,0.13,9194.444444444445
-0.295,0.15,9197.222222222223
-0.275,0.17,9200.0
-0.26,0.175,9202.777777777777
-0.255,0.18,9205.555555555555
-0.26,0.16,9208.333333333334
-0.28,0.15,9211.111111111111
-0.29,0.145,9213.888888888889
-0.28,0.165,9216.666666666666
-0.27,0.175,9219.444444444445
-0.255,0.18,9222.222222222223
-0.275,0.17,9225.0
-0.305,0.16,9227.777777777777
-0.29,0.155,9230.555555555555
-0.28,0.17,9233.333333333334
-0.275,0.18,9236.111111111111
-0.26,0.17,9238.888888888889
-0.29,0.155,9241.666666666666
-0.305,0.14,9244.444444444445
-0.305,0.145,9247.222222222223
-0.285,0.17,9250.0
-0.265,0.16,9252.777777777777
-0.26,0.165,9255.555555555555
-0.275,0.135,9258.333333333334
-0.29,0.13,9261.111111111111
-0.285,0.14,9263.888888888889
-0.29,0.155,9266.666666666666
-0.285,0.165,9269.444444444445
-0.28,0.15,9272.222222222223
-0.285,0.125,9275.0
-0.3,0.12,9277.777777777777
-0.315,0.125,9280.555555555555
-0.29,0.14,9283.333333333334
-0.275,0.155,9286.111111111111
-0.265,0.14,9288.888888888889
-0.27,0.13,9291.666666666666
-0.275,0.125,9294.444444444445
-0.27,0.135,9297.222222222223
-0.27,0.145,9300.0
-0.27,0.145,9302.777777777777
-0.27,0.145,9305.555555555555
-0.265,0.14,9308.333333333334
-0.265,0.13,9311.111111111111
-0.26,0.14,9313.888888888889
-0.265,0.155,9316.666666666666
-0.255,0.15,9319.444444444445
-0.255,0.165,9322.222222222223
-0.255,0.145,9325.0
-0.27,0.155,9327.777777777777
-0.27,0.16,9330.555555555555
-0.26,0.17,9333.333333333334
-0.26,0.175,9336.111111111111
-0.255,0.16,9338.888888888889
-0.265,0.14,9341.666666666666
-0.27,0.135,9344.444444444445
-0.27,0.15,9347.222222222223
-0.255,0.185,9350.0
-0.25,0.19,9352.777777777777
-0.25,0.165,9355.555555555555
-0.245,0.16,9358.333333333334
-0.26,0.14,9361.111111111111
-0.265,0.145,9363.888888888889
-0.265,0.15,9366.666666666666
-0.25,0.165,9369.444444444445
-0.25,0.165,9372.222222222223
-0.25,0.145,9375.0
-0.26,0.145,9377.777777777777
-0.26,0.145,9380.555555555555
-0.25,0.155,9383.333333333334
-0.255,0.18,9386.111111111111
-0.245,0.17,9388.888888888889
-0.25,0.165,9391.666666666666
-0.26,0.145,9394.444444444445
-0.245,0.125,9397.222222222223
-0.24,0.14,9400.0
-0.245,0.145,9402.777777777777
-0.25,0.15,9405.555555555555
-0.25,0.145,9408.333333333334
-0.26,0.14,9411.111111111111
-0.26,0.14,9413.888888888889
-0.245,0.155,9416.666666666666
-0.225,0.16,9419.444444444445
-0.22,0.155,9422.222222222223
-0.225,0.145,9425.0
-0.245,0.13,9427.777777777777
-0.25,0.15,9430.555555555555
-0.24,0.16,9433.333333333334
-0.23,0.165,9436.111111111111
-0.23,0.165,9438.888888888889
-0.245,0.15,9441.666666666666
-0.25,0.145,9444.444444444445
-0.24,0.15,9447.222222222223
-0.225,0.16,9450.0
-0.21,0.17,9452.777777777777
-0.2,0.15,9455.555555555555
-0.22,0.145,9458.333333333334
-0.235,0.13,9461.111111111111
-0.23,0.155,9463.888888888889
-0.235,0.175,9466.666666666666
-0.22,0.19,9469.444444444445
-0.23,0.175,9472.222222222223
-0.225,0.16,9475.0
-0.23,0.155,9477.777777777777
-0.23,0.16,9480.555555555555
-0.235,0.17,9483.333333333334
-0.225,0.17,9486.111111111111
-0.22,0.16,9488.888888888889
-0.22,0.145,9491.666666666666
-0.235,0.125,9494.444444444445
-0.23,0.14,9497.222222222223
-0.195,0.155,9500.0
-0.18,0.16,9502.777777777777
-0.195,0.15,9505.555555555555
-0.22,0.135,9508.333333333334
-0.235,0.13,9511.111111111111
-0.23,0.125,9513.888888888889
-0.215,0.135,9516.666666666666
-0.2,0.135,9519.444444444445
-0.195,0.135,9522.222222222223
-0.185,0.125,9525.0
-0.19,0.11,9527.777777777777
-0.195,0.115,9530.555555555555
-0.2,0.14,9533.333333333334
-0.19,0.145,9536.111111111111
-0.195,0.125,9538.888888888889
-0.2,0.1,9541.666666666666
-0.21,0.1,9544.444444444445
-0.21,0.125,9547.222222222223
-0.205,0.14,9550.0
-0.185,0.135,9552.777777777777
-0.19,0.13,9555.555555555555
-0.185,0.12,9558.333333333334
-0.195,0.115,9561.111111111111
-0.2,0.105,9563.888888888889
-0.195,0.12,9566.666666666666
-0.195,0.12,9569.444444444445
-0.18,0.125,9572.222222222223
-0.2,0.12,9575.0
-0.2,0.1,9577.777777777777
-0.21,0.11,9580.555555555555
-0.2,0.12,9583.333333333334
-0.185,0.135,9586.111111111111
-0.175,0.135,9588.888888888889
-0.175,0.115,9591.666666666666
-0.19,0.11,9594.444444444445
-0.19,0.11,9597.222222222223
-0.18,0.125,9600.0
-0.17,0.14,9602.777777777777
-0.18,0.14,9605.555555555555
-0.21,0.125,9608.333333333334
-0.21,0.115,9611.111111111111
-0.205,0.115,9613.888888888889
-0.195,0.13,9616.666666666666
-0.16,0.14,9619.444444444445
-0.15,0.135,9622.222222222223
-0.17,0.12,9625.0
-0.175,0.105,9627.777777777777
-0.185,0.115,9630.555555555555
-0.185,0.125,9633.333333333334
-0.18,0.145,9636.111111111111
-0.18,0.14,9638.888888888889
-0.19,0.14,9641.666666666666
-0.19,0.125,9644.444444444445
-0.195,0.135,9647.222222222223
-0.18,0.145,9650.0
-0.175,0.165,9652.777777777777
-0.175,0.145,9655.555555555555
-0.17,0.13,9658.333333333334
-0.185,0.12,9661.111111111111
-0.18,0.13,9663.888888888889
-0.18,0.15,9666.666666666666
-0.155,0.145,9669.444444444445
-0.165,0.135,9672.222222222223
-0.17,0.125,9675.0
-0.185,0.1,9677.777777777777
-0.2,0.11,9680.555555555555
-0.175,0.135,9683.333333333334
-0.155,0.16,9686.111111111111
-0.15,0.165,9688.888888888889
-0.135,0.145,9691.666666666666
-0.165,0.12,9694.444444444445
-0.15,0.125,9697.222222222223
-0.155,0.125,9700.0
-0.145,0.14,9702.777777777777
-0.135,0.135,9705.555555555555
-0.15,0.125,9708.333333333334
-0.16,0.125,9711.111111111111
-0.16,0.14,9713.888888888889
-0.155,0.155,9716.666666666666
-0.135,0.16,9719.444444444445
-0.14,0.15,9722.222222222223
-0.14,0.13,9725.0
-0.155,0.12,9727.777777777777
-0.16,0.12,9730.555555555555
-0.135,0.11,9733.333333333334
-0.115,0.115,9736.111111111111
-0.105,0.12,9738.888888888889
-0.13,0.1,9741.666666666666
-0.13,0.095,9744.444444444445
-0.115,0.1,9747.222222222223
-0.11,0.105,9750.0
-0.105,0.095,9752.777777777777
-0.105,0.085,9755.555555555555
-0.09,0.055,9758.333333333334
-0.07,0.04,9761.111111111111
-0.015,0.035,9763.888888888889
0.085,0.025,9766.666666666666
0.185,0.03,9769.444444444445
0.31,0.015,9772.222222222223
0.43,-0.005,9775.0
0.555,-0.035,9777.777777777777
0.705,-0.07,9780.555555555555
0.885,-0.085,9783.333333333334
1.045,-0.1,9786.111111111111
1.185,-0.115,9788.888888888889
1.32,-0.115,9791.666666666666
1.37,-0.07,9794.444444444445
1.34,0.005,9797.222222222223
1.19,0.07,9800.0
0.95,0.105,9802.777777777777
0.655,0.1,9805.555555555555
0.36,0.125,9808.333333333334
0.08,0.155,9811.111111111111
-0.135,0.2,9813.888888888889
-0.26,0.23,9816.666666666666
-0.26,0.21,9819.444444444445
-0.235,0.18,9822.222222222223
-0.18,0.145,9825.0
-0.17,0.11,9827.777777777777
-0.16,0.11,9830.555555555555
-0.175,0.12,9833.333333333334
-0.19,0.125,9836.111111111111
-0.17,0.115,9838.888888888889
-0.175,0.1,9841.666666666666
-0.195,0.085,9844.444444444445
-0.205,0.09,9847.222222222223
-0.2,0.11,9850.0
-0.195,0.125,9852.777777777777
-0.205,0.125,9855.555555555555
-0.22,0.11,9858.333333333334
-0.24,0.105,9861.111111111111
-0.24,0.125,9863.888888888889
-0.225,0.14,9866.666666666666
-0.21,0.145,9869.444444444445
-0.21,0.13,9872.222222222223
-0.24,0.1,9875.0
-0.25,0.095,9877.777777777777
-0.245,0.115,9880.555555555555
-0.235,0.14,9883.333333333334
-0.21,0.155,9886.111111111111
-0.205,0.13,9888.888888888889
-0.235,0.115,9891.666666666666
-0.25,0.11,9894.444444444445
-0.255,0.11,9897.222222222223
-0.235,0.125,9900.0
-0.225,0.125,9902.777777777777
-0.23,0.125,9905.555555555555
-0.24,0.115,9908.333333333334
-0.26,0.1,9911.111111111111
-0.25,0.11,9913.888888888889
-0.255,0.115,9916.666666666666
-0.235,0.14,9919.444444444445
-0.225,0.13,9922.222222222223
-0.24,0.09,9925.0
-0.26,0.09,9927.777777777777
-0.26,0.115,9930.555555555555
-0.25,0.12,9933.333333333334
-0.25,0.155,9936.111111111111
-0.235,0.14,9938.888888888889
-0.265,0.12,9941.666666666666
-0.265,0.105,9944.444444444445
-0.245,0.125,9947.222222222223
-0.25,0.135,9950.0
-0.215,0.14,9952.777777777777
-0.225,0.12,9955.555555555555
-0.245,0.105,9958.333333333334
-0.245,0.12,9961.111111111111
-0.235,0.135,9963.888888888889
-0.205,0.15,9966.666666666666
-0.185,0.145,9969.444444444445
-0.17,0.12,9972.222222222223
-0.2,0.095,9975.0
-0.195,0.08,9977.777777777777
-0.2,0.07,9980.555555555555
-0.18,0.075,9983.333333333334
-0.165,0.09,9986.111111111111
-0.16,0.085,9988.888888888889
-0.155,0.06,9991.666666666666
-0.145,0.055,9994.444444444445
-0.145,0.055,9997.222222222223
-0.14,0.06,10000.0
-0.125,0.06,10002.777777777777
-0.125,0.045,10005.555555555555
-0.12,0.045,10008.333333333334
-0.125,0.025,10011.111111111111
-0.115,0.025,10013.888888888889
-0.1,0.03,10016.666666666666
-0.085,0.05,10019.444444444445
-0.065,0.035,10022.222222222223
-0.08,0.0,10025.0
-0.075,-0.005,10027.777777777777
-0.06,0.0,10030.555555555555
-0.04,0.005,10033.333333333334
-0.02,0.01,10036.111111111111
-0.02,0.0,10038.888888888889
-0.01,-0.005,10041.666666666666
-0.03,-0.025,10044.444444444445
-0.035,-0.015,10047.222222222223
-0.005,-0.01,10050.0
0.01,-0.015,10052.777777777777
0.005,-0.025,10055.555555555555
-0.005,-0.04,10058.333333333334
-0.01,-0.04,10061.111111111111
0.0,-0.035,10063.888888888889
0.005,-0.025,10066.666666666666
0.03,-0.03,10069.444444444445
0.025,-0.04,10072.222222222223
0.02,-0.045,10075.0
0.01,-0.05,10077.777777777777
0.0,-0.025,10080.555555555555
0.005,-0.03,10083.333333333334
0.025,-0.02,10086.111111111111
0.04,-0.035,10088.888888888889
0.025,-0.04,10091.666666666666
0.005,-0.045,10094.444444444445
0.0,-0.03,10097.222222222223
0.01,-0.015,10100.0
0.015,0.0,10102.777777777777
0.025,-0.01,10105.555555555555
0.0,-0.02,10108.333333333334
-0.02,-0.02,10111.111111111111
-0.02,-0.025,10113.888888888889
-0.025,0.0,10116.666666666666
-0.005,0.015,10119.444444444445
-0.035,0.015,10122.222222222223
-0.05,0.01,10125.0
-0.07,0.005,10127.777777777777
-0.07,0.04,10130.555555555555
-0.06,0.05,10133.333333333334
-0.065,0.065,10136.111111111111
-0.085,0.07,10138.888888888889
-0.09,0.045,10141.666666666666
-0.115,0.045,10144.444444444445
-0.125,0.055,10147.222222222223
-0.12,0.075,10150.0
-0.11,0.09,10152.777777777777
-0.125,0.085,10155.555555555555
-0.135,0.08,10158.333333333334
-0.16,0.075,10161.111111111111
-0.155,0.085,10163.888888888889
-0.135,0.105,10166.666666666666
-0.135,0.12,10169.444444444445
-0.14,0.125,10172.222222222223
-0.15,0.115,10175.0
-0.175,0.13,10177.777777777777
-0.18,0.13,10180.555555555555
-0.165,0.15,10183.333333333334
-0.16,0.15,10186.111111111111
-0.155,0.155,10188.888888888889
-0.16,0.135,10191.666666666666
-0.19,0.135,10194.444444444445
-0.17,0.145,10197.222222222223
-0.16,0.155,10200.0
-0.15,0.17,10202.777777777777
-0.145,0.16,10205.555555555555
-0.165,0.14,10208.333333333334
-0.185,0.135,10211.111111111111
-0.195,0.145,10213.888888888889
-0.19,0.155,10216.666666666666
-0.155,0.165,10219.444444444445
-0.16,0.14,10222.222222222223
-0.19,0.12,10225.0
-0.21,0.12,10227.777777777777
-0.205,0.14,10230.555555555555
-0.195,0.155,10233.333333333334
-0.18,0.155,10236.111111111111
-0.185,0.145,10238.888888888889
-0.18,0.13,10241.666666666666
-0.185,0.12,10244.444444444445
-0.19,0.115,10247.222222222223
-0.175,0.13,10250.0
-0.17,0.135,10252.777777777777
-0.16,0.125,10255.555555555555
-0.16,0.11,10258.333333333334
-0.165,0.105,10261.111111111111
-0.165,0.11,10263.888888888889
-0.16,0.125,10266.666666666666
-0.14,0.13,10269.444444444445
-0.135,0.12,10272.222222222223
-0.14,0.1,10275.0
-0.16,0.085,10277.777777777777
-0.165,0.11,10280.555555555555
-0.16,0.115,10283.333333333334
-0.145,0.12,10286.111111111111
-0.135,0.12,10288.888888888889
-0.14,0.11,10291.666666666666
-0.15,0.095,10294.444444444445
-0.145,0.1,10297.222222222223
-0.125,0.095,10300.0
-0.115,0.11,10302.777777777777
-0.12,0.105,10305.555555555555
-0.135,0.08,10308.333333333334
-0.165,0.085,10311.111111111111
-0.15,0.1,10313.888888888889
-0.15,0.11,10316.666666666666
-0.14,0.12,10319.444444444445
-0.14,0.115,10322.222222222223
-0.15,0.1,10325.0
-0.155,0.115,10327.777777777777
-0.16,0.12,10330.555555555555
-0.145,0.12,10333.333333333334
-0.155,0.135,10336.111111111111
-0.15,0.12,10338.888888888889
-0.16,0.125,10341.666666666666
-0.15,0.105,10344.444444444445
-0.155,0.105,10347.222222222223
-0.15,0.12,10350.0
-0.15,0.12,10352.777777777777
-0.15,0.105,10355.555555555555
-0.155,0.085,10358.333333333334
-0.17,0.075,10361.111111111111
-0.175,0.08,10363.888888888889
-0.16,0.11,10366.666666666666
-0.15,0.115,10369.444444444445
-0.145,0.12,10372.222222222223
-0.155,0.105,10375.0
-0.16,0.095,10377.777777777777
-0.17,0.09,10380.555555555555
-0.165,0.1,10383.333333333334
-0.14,0.105,10386.111111111111
-0.165,0.1,10388.888888888889
-0.175,0.075,10391.666666666666
-0.21,0.07,10394.444444444445
-0.185,0.07,10397.222222222223
-0.19,0.09,10400.0
-0.18,0.105,10402.777777777777
-0.175,0.1,10405.555555555555
-0.18,0.1,10408.333333333334
-0.21,0.09,10411.111111111111
-0.205,0.09,10413.888888888889
-0.205,0.11,10416.666666666666
-0.19,0.105,10419.444444444445
-0.205,0.1,10422.222222222223
-0.215,0.09,10425.0
-0.23,0.08,10427.777777777777
-0.215,0.095,10430.555555555555
-0.205,0.1,10433.333333333334
-0.19,0.11,10436.111111111111
-0.2,0.1,10438.888888888889
-0.205,0.09,10441.666666666666
-0.235,0.085,10444.444444444445
-0.235,0.08,10447.222222222223
-0.225,0.09,10450.0
-0.2,0.095,10452.777777777777
-0.205,0.1,10455.555555555555
-0.2,0.08,10458.333333333334
-0.21,0.095,10461.111111111111
-0.205,0.095,10463.888888888889
-0.215,0.125,10466.666666666666
-0.195,0.135,10469.444444444445
-0.2,0.125,10472.222222222223
-0.185,0.11,10475.0
-0.19,0.11,10477.777777777777
-0.21,0.11,10480.555555555555
-0.195,0.13,10483.333333333334
-0.185,0.15,10486.111111111111
-0.175,0.15,10488.888888888889
-0.18,0.13,10491.666666666666
-0.185,0.13,10494.444444444445
-0.165,0.135,10497.222222222223
-0.15,0.125,10500.0
-0.13,0.155,10502.777777777777
-0.145,0.15,10505.555555555555
-0.145,0.13,10508.333333333334
-0.145,0.12,10511.111111111111
-0.135,0.115,10513.888888888889
-0.075,0.11,10516.666666666666
-0.04,0.095,10519.444444444445
0.015,0.075,10522.222222222223
0.08,0.06,10525.0
0.14,0.06,10527.777777777777
0.26,0.065,10530.555555555555
0.425,0.06,10533.333333333334
0.59,0.02,10536.111111111111
0.755,-0.03,10538.888888888889
0.92,-0.08,10541.666666666666
1.065,-0.115,10544.444444444445
1.225,-0.095,10547.222222222223
1.345,-0.035,10550.0
1.385,0.035,10552.777777777777
1.305,0.105,10555.555555555555
1.12,0.115,10558.333333333334
0.865,0.12,10561.111111111111
0.565,0.14,10563.888888888889
0.265,0.195,10566.666666666666
-0.03,0.255,10569.444444444445
-0.275,0.29,10572.222222222223
-0.425,0.29,10575.0
-0.465,0.285,10577.777777777777
-0.395,0.27,10580.555555555555
-0.325,0.23,10583.333333333334
-0.275,0.2,10586.111111111111
-0.265,0.16,10588.888888888889
-0.26,0.115,10591.666666666666
-0.27,0.085,10594.444444444445
-0.29,0.085,10597.222222222223
-0.275,0.09,10600.0
-0.26,0.115,10602.777777777777
-0.26,0.11,10605.555555555555
-0.275,0.095,10608.333333333334
-0.29,0.085,10611.111111111111
-0.285,0.1,10613.888888888889
-0.28,0.125,10616.666666666666
-0.275,0.125,10619.444444444445
-0.29,0.13,10622.222222222223
-0.29,0.13,10625.0
-0.305,0.105,10627.777777777777
-0.305,0.125,10630.555555555555
-0.285,0.135,10633.333333333334
-0.27,0.15,10636.111111111111
-0.26,0.14,10638.888888888889
-0.27,0.125,10641.666666666666
-0.285,0.115,10644.444444444445
-0.28,0.115,10647.222222222223
-0.285,0.12,10650.0
-0.275,0.125,10652.777777777777
-0.3,0.13,10655.555555555555
-0.315,0.11,10658.333333333334
-0.315,0.1,10661.111111111111
-0.315,0.12,10663.888888888889
-0.295,0.145,10666.666666666666
-0.27,0.145,10669.444444444445
-0.27,0.135,10672.222222222223
-0.28,0.12,10675.0
-0.285,0.125,10677.777777777777
-0.285,0.135,10680.555555555555
-0.265,0.135,10683.333333333334
-0.245,0.135,10686.111111111111
-0.255,0.105,10688.888888888889
-0.275,0.08,10691.666666666666
-0.29,0.075,10694.444444444445
-0.285,0.09,10697.222222222223
-0.27,0.095,10700.0
-0.25,0.11,10702.777777777777
-0.255,0.08,10705.555555555555
-0.28,0.065,10708.333333333334
-0.295,0.055,10711.111111111111
-0.295,0.075,10713.888888888889
-0.275,0.075,10716.666666666666
-0.265,0.085,10719.444444444445
-0.265,0.07,10722.222222222223
-0.285,0.05,10725.0
-0.305,0.035,10727.777777777777
-0.295,0.065,10730.555555555555
-0.28,0.07,10733.333333333334
-0.265,0.07,10736.111111111111
-0.255,0.055,10738.888888888889
-0.255,0.045,10741.666666666666
-0.27,0.02,10744.444444444445
-0.26,0.04,10747.222222222223
-0.25,0.05,10750.0
-0.23,0.06,10752.777777777777
-0.225,0.05,10755.555555555555
-0.235,0.03,10758.333333333334
-0.235,0.035,10761.111111111111
-0.22,0.03,10763.888888888889
-0.195,0.04,10766.666666666666
-0.18,0.035,10769.444444444445
-0.19,0.015,10772.222222222223
-0.2,0.0,10775.0
-0.2,-0.01,10777.777777777777
-0.17,-0.005,10780.555555555555
-0.155,0.01,10783.333333333334
-0.13,0.01,10786.111111111111
-0.13,-0.005,10788.888888888889
-0.13,-0.025,10791.666666666666
-0.145,-0.03,10794.444444444445
-0.14,-0.035,10797.222222222223
-0.115,-0.035,10800.0
-0.105,-0.035,10802.777777777777
-0.085,-0.06,10805.555555555555
-0.075,-0.075,10808.333333333334
-0.075,-0.11,10811.111111111111
-0.075,-0.1,10813.888888888889
-0.075,-0.09,10816.666666666666
-0.045,-0.085,10819.444444444445
-0.03,-0.095,10822.222222222223
-0.025,-0.11,10825.0
-0.035,-0.125,10827.777777777777
-0.045,-0.13,10830.555555555555
-0.04,-0.125,10833.333333333334
-0.04,-0.13,10836.111111111111
-0.03,-0.145,10838.888888888889
-0.055,-0.145,10841.666666666666
-0.08,-0.145,10844.444444444445
-0.07,-0.125,10847.222222222223
-0.065,-0.11,10850.0
-0.055,-0.085,10852.777777777777
-0.065,-0.09,10855.555555555555
-0.095,-0.085,10858.333333333334
-0.105,-0.075,10861.111111111111
-0.12,-0.055,10863.888888888889
-0.11,-0.035,10866.666666666666
-0.115,-0.02,10869.444444444445
-0.125,-0.03,10872.222222222223
-0.14,-0.02,10875.0
-0.16,-0.005,10877.777777777777
-0.165,0.015,10880.555555555555
-0.15,0.04,10883.333333333334
-0.17,0.07,10886.111111111111
-0.165,0.065,10888.888888888889
-0.205,0.085,10891.666666666666
-0.23,0.08,10894.444444444445
-0.245,0.09,10897.222222222223
-0.24,0.11,10900.0
-0.225,0.125,10902.777777777777
-0.225,0.12,10905.555555555555
-0.26,0.12,10908.333333333334
-0.28,0.115,10911.111111111111
-0.285,0.12,10913.888888888889
-0.28,0.13,10916.666666666666
-0.275,0.15,10919.444444444445
-0.26,0.16,10922.222222222223
-0.28,0.145,10925.0
-0.305,0.145,10927.777777777777
-0.315,0.15,10930.555555555555
-0.305,0.165,10933.333333333334
-0.285,0.18,10936.111111111111
-0.29,0.175,10938.888888888889
-0.3,0.165,10941.666666666666
-0.315,0.165,10944.444444444445
-0.31,0.165,10947.222222222223
-0.29,0.17,10950.0
-0.285,0.18,10952.777777777777
-0.305,0.18,10955.555555555555
-0.295,0.165,10958.333333333334
-0.295,0.15,10961.111111111111
-0.295,0.165,10963.888888888889
-0.29,0.185,10966.666666666666
-0.28,0.185,10969.444444444445
-0.28,0.185,10972.222222222223
-0.285,0.16,10975.0
-0.295,0.165,10977.777777777777
-0.285,0.175,10980.555555555555
-0.265,0.175,10983.333333333334
-0.265,0.185,10986.111111111111
-0.27,0.165,10988.888888888889
-0.285,0.145,10991.666666666666
-0.29,0.13,10994.444444444445
-0.285,0.16,10997.222222222223
-0.265,0.155,11000.0
-0.245,0.17,11002.777777777777
-0.245,0.16,11005.555555555555
-0.26,0.145,11008.333333333334
-0.265,0.135,11011.111111111111
-0.275,0.14,11013.888888888889
-0.245,0.155,11016.666666666666
-0.23,0.165,11019.444444444445
-0.245,0.15,11022.222222222223
-0.255,0.13,11025.0
-0.27,0.11,11027.777777777777
-0.27,0.11,11030.555555555555
-0.255,0.12,11033.333333333334
-0.245,0.135,11036.111111111111
-0.24,0.125,11038.888888888889
-0.245,0.11,11041.666666666666
-0.25,0.095,11044.444444444445
-0.24,0.125,11047.222222222223
-0.235,0.12,11050.0
-0.225,0.12,11052.777777777777
-0.245,0.11,11055.555555555555
-0.255,0.105,11058.333333333334
-0.27,0.095,11061.111111111111
-0.265,0.105,11063.888888888889
-0.24,0.12,11066.666666666666
-0.245,0.115,11069.444444444445
-0.255,0.11,11072.222222222223
-0.275,0.1,11075.0
-0.28,0.105,11077.777777777777
-0.275,0.105,11080.555555555555
-0.245,0.135,11083.333333333334
-0.25,0.155,11086.111111111111
-0.24,0.135,11088.888888888889
-0.255,0.13,11091.666666666666
-0.27,0.13,11094.444444444445
-0.275,0.135,11097.222222222223
-0.265,0.16,11100.0
-0.25,0.17,11102.777777777777
-0.24,0.175,11105.555555555555
-0.265,0.15,11108.333333333334
-0.27,0.15,11111.111111111111
-0.275,0.15,11113.888888888889
-0.275,0.17,11116.666666666666
-0.255,0.17,11119.444444444445
-0.255,0.165,11122.222222222223
-0.265,0.14,11125.0
-0.275,0.135,11127.777777777777
-0.285,0.145,11130.555555555555
-0.29,0.165,11133.333333333334
-0.27,0.185,11136.111111111111
-0.275,0.15,11138.888888888889
-0.285,0.13,11141.666666666666
-0.295,0.11,11144.444444444445
-0.295,0.13,11147.222222222223
-0.295,0.125,11150.0
-0.28,0.125,11152.777777777777
-0.28,0.115,11155.555555555555
-0.285,0.085,11158.333333333334
-0.305,0.085,11161.111111111111
-0.275,0.085,11163.888888888889
-0.275,0.095,11166.666666666666
-0.265,0.11,11169.444444444445
-0.28,0.105,11172.222222222223
-0.29,0.095,11175.0
-0.285,0.085,11177.777777777777
-0.275,0.095,11180.555555555555
-0.265,0.115,11183.333333333334
-0.255,0.115,11186.111111111111
-0.265,0.11,11188.888888888889
-0.27,0.09,11191.666666666666
-0.29,0.09,11194.444444444445
-0.295,0.11,11197.222222222223
-0.28,0.115,11200.0
-0.275,0.11,11202.777777777777
-0.295,0.1,11205.555555555555
-0.3,0.1,11208.333333333334
-0.3,0.1,11211.111111111111
-0.295,0.125,11213.888888888889
-0.295,0.135,11216.666666666666
-0.28,0.145,11219.444444444445
-0.275,0.125,11222.222222222223
-0.29,0.115,11225.0
-0.285,0.12,11227.777777777777
-0.29,0.125,11230.555555555555
-0.29,0.15,11233.333333333334
-0.265,0.155,11236.111111111111
-0.27,0.16,11238.888888888889
-0.28,0.135,11241.666666666666
-0.27,0.13,11244.444444444445
-0.275,0.135,11247.222222222223
-0.27,0.16,11250.0
-0.26,0.175,11252.777777777777
-0.255,0.16,11255.555555555555
-0.265,0.14,11258.333333333334
-0.285,0.125,11261.111111111111
-0.28,0.145,11263.888888888889
-0.27,0.155,11266.666666666666
-0.265,0.15,11269.444444444445
-0.265,0.14,11272.222222222223
-0.27,0.135,11275.0
-0.285,0.12,11277.777777777777
-0.275,0.145,11280.555555555555
-0.265,0.15,11283.333333333334
-0.26,0.15,11286.111111111111
-0.275,0.135,11288.888888888889
-0.285,0.125,11291.666666666666
-0.29,0.115,11294.444444444445
-0.295,0.12,11297.222222222223
-0.285,0.15,11300.0
-0.25,0.14,11302.777777777777
-0.255,0.12,11305.555555555555
-0.27,0.12,11308.333333333334
-0.28,0.11,11311.111111111111
-0.285,0.115,11313.888888888889
-0.275,0.125,11316.666666666666
-0.27,0.125,11319.444444444445
-0.275,0.11,11322.222222222223
-0.27,0.12,11325.0
-0.27,0.115,11327.777777777777
-0.255,0.11,11330.555555555555
-0.25,0.13,11333.333333333334
-0.24,0.14,11336.111111111111
-0.25,0.135,11338.888888888889
-0.255,0.115,11341.666666666666
-0.28,0.14,11344.444444444445
-0.28,0.135,11347.222222222223
-0.275,0.15,11350.0
-0.255,0.15,11352.777777777777
-0.24,0.13,11355.555555555555
-0.26,0.13,11358.333333333334
-0.26,0.125,11361.111111111111
-0.26,0.125,11363.888888888889
-0.255,0.145,11366.666666666666
-0.235,0.16,11369.444444444445
-0.235,0.125,11372.222222222223
-0.25,0.115,11375.0
-0.27,0.11,11377.777777777777
-0.265,0.14,11380.555555555555
-0.25,0.155,11383.333333333334
-0.23,0.155,11386.111111111111
-0.225,0.155,11388.888888888889
-0.24,0.125,11391.666666666666
-0.245,0.12,11394.444444444445
-0.235,0.135,11397.222222222223
-0.215,0.15,11400.0
-0.205,0.16,11402.777777777777
-0.19,0.15,11405.555555555555
-0.21,0.12,11408.333333333334
-0.225,0.1,11411.111111111111
-0.23,0.11,11413.888888888889
-0.22,0.125,11416.666666666666
-0.19,0.11,11419.444444444445
-0.18,0.1,11422.222222222223
-0.195,0.08,11425.0
-0.21,0.075,11427.777777777777
-0.205,0.075,11430.555555555555
-0.17,0.065,11433.333333333334
-0.115,0.055,11436.111111111111
-0.03,0.04,11438.888888888889
0.01,0.03,11441.666666666666
0.105,0.015,11444.444444444445
0.225,0.025,11447.222222222223
0.36,0.02,11450.0
0.53,-0.015,11452.777777777777
0.715,-0.04,11455.555555555555
0.885,-0.105,11458.333333333334
1.03,-0.135,11461.111111111111
1.21,-0.105,11463.888888888889
