MLII,V1,time_ms
-0.14,-0.375,0.0
-0.14,-0.375,2.7777777777777777
-0.14,-0.375,5.555555555555555
-0.14,-0.375,8.333333333333334
-0.14,-0.375,11.11111111111111
-0.14,-0.375,13.88888888888889
-0.14,-0.375,16.666666666666668
-0.14,-0.375,19.444444444444443
-0.14,-0.35,22.22222222222222
-0.115,-0.355,25.0
-0.14,-0.37,27.77777777777778
-0.14,-0.385,30.555555555555557
-0.155,-0.385,33.333333333333336
-0.145,-0.365,36.111111111111114
-0.13,-0.36,38.888888888888886
-0.11,-0.36,41.666666666666664
-0.125,-0.36,44.44444444444444
-0.125,-0.375,47.22222222222222
-0.13,-0.36,50.0
-0.125,-0.35,52.77777777777778
-0.1,-0.335,55.55555555555556
-0.075,-0.32,58.333333333333336
-0.075,-0.32,61.111111111111114
-0.07,-0.34,63.888888888888886
-0.075,-0.325,66.66666666666667
-0.07,-0.32,69.44444444444444
-0.06,-0.295,72.22222222222223
-0.025,-0.28,75.0
-0.02,-0.285,77.77777777777777
-0.005,-0.29,80.55555555555556
0.005,-0.3,83.33333333333333
0.05,-0.31,86.11111111111111
0.115,-0.33,88.88888888888889
0.16,-0.36,91.66666666666667
0.17,-0.38,94.44444444444444
0.175,-0.38,97.22222222222223
0.165,-0.39,100.0
0.17,-0.38,102.77777777777777
0.15,-0.38,105.55555555555556
0.185,-0.38,108.33333333333333
0.135,-0.385,111.11111111111111
0.105,-0.39,113.88888888888889
0.08,-0.39,116.66666666666667
0.065,-0.365,119.44444444444444
0.06,-0.355,122.22222222222223
0.06,-0.345,125.0
0.015,-0.38,127.77777777777777
-0.025,-0.395,130.55555555555554
-0.07,-0.405,133.33333333333334
-0.09,-0.395,136.11111111111111
-0.12,-0.375,138.88888888888889
-0.13,-0.385,141.66666666666666
-0.12,-0.395,144.44444444444446
-0.15,-0.415,147.22222222222223
-0.17,-0.4,150.0
-0.175,-0.395,152.77777777777777
-0.165,-0.39,155.55555555555554
-0.145,-0.385,158.33333333333334
-0.155,-0.4,161.11111111111111
-0.16,-0.395,163.88888888888889
-0.16,-0.385,166.66666666666666
-0.15,-0.375,169.44444444444446
-0.14,-0.38,172.22222222222223
-0.12,-0.385,175.0
-0.14,-0.395,177.77777777777777
-0.155,-0.39,180.55555555555554
-0.155,-0.375,183.33333333333334
-0.135,-0.335,186.11111111111111
-0.13,-0.285,188.88888888888889
-0.11,-0.245,191.66666666666666
-0.105,-0.255,194.44444444444446
-0.13,-0.33,197.22222222222223
-0.14,-0.44,200.0
-0.14,-0.585,202.77777777777777
-0.14,-0.79,205.55555555555554
-0.1,-1.025,208.33333333333334
0.02,-1.21,211.11111111111111
0.18,-1.345,213.88888888888889
0.38,-1.38,216.66666666666666
0.605,-1.31,219.44444444444446
0.79,-1.195,222.22222222222223
0.895,-1.075,225.0
0.84,-0.93,227.77777777777777
0.59,-0.78,230.55555555555554
0.225,-0.635,233.33333333333334
-0.055,-0.475,236.11111111111111
-0.185,-0.36,238.88888888888889
-0.19,-0.31,241.66666666666666
-0.195,-0.295,244.44444444444446
-0.16,-0.29,247.22222222222223
-0.135,-0.295,250.0
-0.125,-0.28,252.77777777777777
-0.1,-0.275,255.55555555555554
-0.1,-0.28,258.3333333333333
-0.12,-0.29,261.1111111111111
-0.135,-0.305,263.8888888888889
-0.155,-0.29,266.6666666666667
-0.15,-0.285,269.44444444444446
-0.125,-0.285,272.22222222222223
-0.105,-0.295,275.0
-0.1,-0.3,277.77777777777777
-0.115,-0.305,280.55555555555554
-0.125,-0.305,283.3333333333333
-0.12,-0.295,286.1111111111111
-0.1,-0.295,288.8888888888889
-0.095,-0.29,291.6666666666667
-0.105,-0.3,294.44444444444446
-0.115,-0.33,297.22222222222223
-0.12,-0.32,300.0
-0.11,-0.305,302.77777777777777
-0.105,-0.29,305.55555555555554
-0.095,-0.295,308.3333333333333
-0.095,-0.305,311.1111111111111
-0.11,-0.315,313.8888888888889
-0.11,-0.32,316.6666666666667
-0.105,-0.305,319.44444444444446
-0.09,-0.295,322.22222222222223
-0.085,-0.31,325.0
-0.09,-0.31,327.77777777777777
-0.115,-0.32,330.55555555555554
-0.105,-0.325,333.3333333333333
-0.09,-0.305,336.1111111111111
-0.085,-0.3,338.8888888888889
-0.085,-0.285,341.6666666666667
-0.085,-0.31,344.44444444444446
-0.09,-0.315,347.22222222222223
-0.1,-0.31,350.0
-0.095,-0.295,352.77777777777777
-0.08,-0.285,355.55555555555554
-0.06,-0.285,358.3333333333333
-0.075,-0.295,361.1111111111111
-0.08,-0.315,363.8888888888889
-0.085,-0.32,366.6666666666667
-0.075,-0.3,369.44444444444446
-0.07,-0.285,372.22222222222223
-0.055,-0.29,375.0
-0.07,-0.305,377.77777777777777
-0.085,-0.3,380.55555555555554
-0.08,-0.31,383.3333333333333
-0.085,-0.295,386.1111111111111
-0.055,-0.3,388.8888888888889
-0.04,-0.29,391.6666666666667
-0.05,-0.295,394.44444444444446
-0.065,-0.305,397.22222222222223
-0.06,-0.305,400.0
-0.065,-0.295,402.77777777777777
-0.05,-0.285,405.55555555555554
-0.035,-0.29,408.3333333333333
-0.045,-0.29,411.1111111111111
-0.045,-0.29,413.8888888888889
-0.045,-0.305,416.6666666666667
-0.045,-0.29,419.44444444444446
-0.03,-0.27,422.22222222222223
-0.035,-0.265,425.0
-0.02,-0.285,427.77777777777777
-0.04,-0.295,430.55555555555554
-0.05,-0.31,433.3333333333333
-0.055,-0.29,436.1111111111111
-0.03,-0.28,438.8888888888889
-0.025,-0.27,441.6666666666667
-0.03,-0.29,444.44444444444446
-0.055,-0.3,447.22222222222223
-0.055,-0.295,450.0
-0.05,-0.28,452.77777777777777
-0.04,-0.27,455.55555555555554
-0.04,-0.29,458.3333333333333
-0.05,-0.295,461.1111111111111
-0.065,-0.3,463.8888888888889
-0.085,-0.295,466.6666666666667
-0.08,-0.295,469.44444444444446
-0.08,-0.28,472.22222222222223
-0.07,-0.285,475.0
-0.07,-0.31,477.77777777777777
-0.08,-0.315,480.55555555555554
-0.09,-0.315,483.3333333333333
-0.09,-0.31,486.1111111111111
-0.095,-0.31,488.8888888888889
-0.09,-0.3,491.6666666666667
-0.09,-0.31,494.44444444444446
-0.115,-0.32,497.22222222222223
-0.135,-0.33,500.0
-0.115,-0.325,502.77777777777777
-0.105,-0.32,505.55555555555554
-0.1,-0.33,508.3333333333333
-0.11,-0.335,511.1111111111111
-0.125,-0.34,513.8888888888889
-0.14,-0.335,516.6666666666666
-0.14,-0.33,519.4444444444445
-0.12,-0.32,522.2222222222222
-0.115,-0.33,525.0
-0.13,-0.345,527.7777777777778
-0.135,-0.36,530.5555555555555
-0.15,-0.36,533.3333333333334
-0.145,-0.34,536.1111111111111
-0.13,-0.325,538.8888888888889
-0.13,-0.335,541.6666666666666
-0.145,-0.34,544.4444444444445
-0.15,-0.375,547.2222222222222
-0.16,-0.36,550.0
-0.15,-0.35,552.7777777777778
-0.13,-0.335,555.5555555555555
-0.125,-0.335,558.3333333333334
-0.125,-0.35,561.1111111111111
-0.155,-0.37,563.8888888888889
-0.155,-0.36,566.6666666666666
-0.155,-0.35,569.4444444444445
-0.14,-0.34,572.2222222222222
-0.125,-0.35,575.0
-0.13,-0.355,577.7777777777778
-0.135,-0.37,580.5555555555555
-0.15,-0.36,583.3333333333334
-0.155,-0.345,586.1111111111111
-0.135,-0.34,588.8888888888889
-0.13,-0.34,591.6666666666666
-0.135,-0.35,594.4444444444445
-0.14,-0.365,597.2222222222222
-0.165,-0.36,600.0
-0.15,-0.36,602.7777777777778
-0.135,-0.34,605.5555555555555
-0.125,-0.33,608.3333333333334
-0.145,-0.35,611.1111111111111
-0.15,-0.36,613.8888888888889
-0.16,-0.365,616.6666666666666
-0.155,-0.355,619.4444444444445
-0.135,-0.345,622.2222222222222
-0.14,-0.35,625.0
-0.15,-0.355,627.7777777777778
-0.145,-0.375,630.5555555555555
-0.16,-0.365,633.3333333333334
-0.155,-0.36,636.1111111111111
-0.15,-0.335,638.8888888888889
-0.13,-0.35,641.6666666666666
-0.125,-0.365,644.4444444444445
-0.145,-0.385,647.2222222222222
-0.15,-0.375,650.0
-0.145,-0.365,652.7777777777778
-0.135,-0.36,655.5555555555555
-0.12,-0.355,658.3333333333334
-0.13,-0.36,661.1111111111111
-0.13,-0.37,663.8888888888889
-0.15,-0.38,666.6666666666666
-0.13,-0.355,669.4444444444445
-0.125,-0.365,672.2222222222222
-0.11,-0.35,675.0
-0.12,-0.365,677.7777777777778
-0.135,-0.385,680.5555555555555
-0.14,-0.385,683.3333333333334
-0.13,-0.355,686.1111111111111
-0.115,-0.35,688.8888888888889
-0.105,-0.36,691.6666666666666
-0.11,-0.365,694.4444444444445
-0.115,-0.375,697.2222222222222
-0.125,-0.38,700.0
-0.125,-0.36,702.7777777777778
-0.105,-0.355,705.5555555555555
-0.1,-0.34,708.3333333333334
-0.105,-0.355,711.1111111111111
-0.11,-0.365,713.8888888888889
-0.12,-0.375,716.6666666666666
-0.11,-0.365,719.4444444444445
-0.1,-0.35,722.2222222222222
-0.08,-0.355,725.0
-0.085,-0.36,727.7777777777778
-0.12,-0.385,730.5555555555555
-0.11,-0.38,733.3333333333334
-0.105,-0.37,736.1111111111111
-0.105,-0.355,738.8888888888889
-0.09,-0.36,741.6666666666666
-0.085,-0.375,744.4444444444445
-0.105,-0.38,747.2222222222222
-0.12,-0.365,750.0
-0.105,-0.365,752.7777777777778
-0.105,-0.355,755.5555555555555
-0.09,-0.355,758.3333333333334
-0.09,-0.365,761.1111111111111
-0.115,-0.39,763.8888888888889
-0.13,-0.38,766.6666666666666
-0.11,-0.37,769.4444444444445
-0.095,-0.355,772.2222222222222
-0.085,-0.355,775.0
-0.095,-0.365,777.7777777777778
-0.095,-0.385,780.5555555555555
-0.12,-0.38,783.3333333333334
-0.1,-0.37,786.1111111111111
-0.09,-0.35,788.8888888888889
-0.1,-0.36,791.6666666666666
-0.095,-0.37,794.4444444444445
-0.105,-0.38,797.2222222222222
-0.11,-0.385,800.0
-0.1,-0.37,802.7777777777778
-0.09,-0.355,805.5555555555555
-0.07,-0.36,808.3333333333334
-0.085,-0.37,811.1111111111111
-0.095,-0.365,813.8888888888889
-0.11,-0.375,816.6666666666666
-0.09,-0.365,819.4444444444445
-0.085,-0.35,822.2222222222222
-0.075,-0.34,825.0
-0.085,-0.36,827.7777777777778
-0.095,-0.375,830.5555555555555
-0.125,-0.36,833.3333333333334
-0.09,-0.34,836.1111111111111
-0.07,-0.325,838.8888888888889
-0.055,-0.32,841.6666666666666
-0.06,-0.325,844.4444444444445
-0.045,-0.335,847.2222222222222
-0.055,-0.32,850.0
-0.05,-0.31,852.7777777777778
-0.02,-0.29,855.5555555555555
-0.005,-0.285,858.3333333333334
0.0,-0.295,861.1111111111111
0.02,-0.29,863.8888888888889
0.02,-0.285,866.6666666666666
0.05,-0.29,869.4444444444445
0.115,-0.31,872.2222222222222
0.175,-0.34,875.0
0.2,-0.38,877.7777777777778
0.2,-0.4,880.5555555555555
0.18,-0.41,883.3333333333334
0.2,-0.4,886.1111111111111
0.205,-0.385,888.8888888888889
0.19,-0.385,891.6666666666666
0.145,-0.395,894.4444444444445
0.115,-0.4,897.2222222222222
0.095,-0.385,900.0
0.075,-0.36,902.7777777777778
0.07,-0.35,905.5555555555555
0.065,-0.37,908.3333333333334
0.02,-0.385,911.1111111111111
-0.02,-0.395,913.8888888888889
-0.075,-0.395,916.6666666666666
-0.085,-0.405,919.4444444444445
-0.105,-0.395,922.2222222222222
-0.1,-0.395,925.0
-0.12,-0.41,927.7777777777778
-0.16,-0.41,930.5555555555555
-0.16,-0.405,933.3333333333334
-0.155,-0.395,936.1111111111111
-0.145,-0.395,938.8888888888889
-0.13,-0.395,941.6666666666666
-0.145,-0.4,944.4444444444445
-0.155,-0.41,947.2222222222222
-0.15,-0.41,950.0
-0.145,-0.41,952.7777777777778
-0.135,-0.39,955.5555555555555
-0.115,-0.38,958.3333333333334
-0.12,-0.375,961.1111111111111
-0.115,-0.375,963.8888888888889
-0.125,-0.34,966.6666666666666
-0.13,-0.29,969.4444444444445
-0.115,-0.27,972.2222222222222
-0.105,-0.3,975.0
-0.1,-0.395,977.7777777777778
-0.115,-0.55,980.5555555555555
-0.155,-0.755,983.3333333333334
-0.14,-0.99,986.1111111111111
-0.04,-1.18,988.8888888888889
0.14,-1.325,991.6666666666666
0.365,-1.34,994.4444444444445
0.57,-1.285,997.2222222222222
0.735,-1.16,1000.0
0.805,-0.995,1002.7777777777778
0.725,-0.83,1005.5555555555555
0.465,-0.665,1008.3333333333334
0.15,-0.54,1011.1111111111111
-0.075,-0.435,1013.8888888888889
-0.175,-0.37,1016.6666666666666
-0.175,-0.34,1019.4444444444445
-0.14,-0.31,1022.2222222222222
-0.11,-0.31,1025.0
-0.105,-0.33,1027.7777777777778
-0.135,-0.345,1030.5555555555557
-0.155,-0.36,1033.3333333333333
-0.16,-0.34,1036.111111111111
-0.13,-0.33,1038.888888888889
-0.12,-0.33,1041.6666666666667
-0.12,-0.35,1044.4444444444443
-0.14,-0.365,1047.2222222222222
-0.15,-0.36,1050.0
-0.16,-0.35,1052.7777777777778
-0.14,-0.34,1055.5555555555557
-0.12,-0.345,1058.3333333333333
-0.125,-0.345,1061.111111111111
-0.135,-0.375,1063.888888888889
-0.16,-0.355,1066.6666666666667
-0.155,-0.35,1069.4444444444443
-0.125,-0.34,1072.2222222222222
-0.11,-0.34,1075.0
-0.12,-0.355,1077.7777777777778
-0.13,-0.37,1080.5555555555557
-0.12,-0.375,1083.3333333333333
-0.105,-0.375,1086.111111111111
-0.1,-0.355,1088.888888888889
-0.075,-0.36,1091.6666666666667
-0.075,-0.37,1094.4444444444443
-0.08,-0.39,1097.2222222222222
-0.095,-0.39,1100.0
-0.085,-0.37,1102.7777777777778
-0.075,-0.36,1105.5555555555557
-0.055,-0.365,1108.3333333333333
-0.055,-0.36,1111.111111111111
-0.075,-0.375,1113.888888888889
-0.07,-0.375,1116.6666666666667
-0.075,-0.36,1119.4444444444443
-0.08,-0.345,1122.2222222222222
-0.07,-0.34,1125.0
-0.085,-0.36,1127.7777777777778
-0.1,-0.365,1130.5555555555557
-0.11,-0.34,1133.3333333333333
-0.1,-0.335,1136.111111111111
-0.115,-0.325,1138.888888888889
-0.085,-0.335,1141.6666666666667
-0.085,-0.33,1144.4444444444443
-0.105,-0.365,1147.2222222222222
-0.11,-0.35,1150.0
-0.12,-0.335,1152.7777777777778
-0.12,-0.325,1155.5555555555557
-0.105,-0.315,1158.3333333333333
-0.115,-0.325,1161.111111111111
-0.12,-0.33,1163.888888888889
-0.135,-0.325,1166.6666666666667
-0.105,-0.32,1169.4444444444443
-0.1,-0.3,1172.2222222222222
-0.085,-0.305,1175.0
-0.095,-0.305,1177.7777777777778
-0.115,-0.315,1180.5555555555557
-0.115,-0.315,1183.3333333333333
-0.12,-0.3,1186.111111111111
-0.11,-0.295,1188.888888888889
-0.095,-0.31,1191.6666666666667
-0.095,-0.32,1194.4444444444443
-0.105,-0.325,1197.2222222222222
-0.12,-0.32,1200.0
-0.11,-0.3,1202.7777777777778
-0.1,-0.285,1205.5555555555557
-0.085,-0.28,1208.3333333333333
-0.105,-0.3,1211.111111111111
-0.12,-0.31,1213.888888888889
-0.125,-0.31,1216.6666666666667
-0.12,-0.315,1219.4444444444443
-0.13,-0.295,1222.2222222222222
-0.115,-0.31,1225.0
-0.125,-0.31,1227.7777777777778
-0.15,-0.325,1230.5555555555557
-0.175,-0.33,1233.3333333333333
-0.17,-0.32,1236.111111111111
-0.14,-0.305,1238.888888888889
-0.145,-0.315,1241.6666666666667
-0.155,-0.33,1244.4444444444443
-0.175,-0.35,1247.2222222222222
-0.185,-0.34,1250.0
-0.205,-0.335,1252.7777777777778
-0.21,-0.335,1255.5555555555557
-0.19,-0.34,1258.3333333333333
-0.2,-0.345,1261.111111111111
-0.21,-0.365,1263.888888888889
-0.22,-0.365,1266.6666666666667
-0.23,-0.36,1269.4444444444443
-0.21,-0.335,1272.2222222222222
-0.19,-0.355,1275.0
-0.195,-0.355,1277.7777777777778
-0.21,-0.38,1280.5555555555557
-0.24,-0.36,1283.3333333333333
-0.235,-0.365,1286.111111111111
-0.235,-0.35,1288.888888888889
-0.21,-0.365,1291.6666666666667
-0.22,-0.365,1294.4444444444443
-0.225,-0.365,1297.2222222222222
-0.245,-0.365,1300.0
-0.235,-0.355,1302.7777777777778
-0.225,-0.355,1305.5555555555557
-0.22,-0.35,1308.3333333333333
-0.235,-0.35,1311.111111111111
-0.245,-0.365,1313.888888888889
-0.26,-0.375,1316.6666666666667
-0.255,-0.35,1319.4444444444443
-0.245,-0.35,1322.2222222222222
-0.23,-0.36,1325.0
-0.23,-0.37,1327.7777777777778
-0.25,-0.385,1330.5555555555557
-0.27,-0.375,1333.3333333333333
-0.25,-0.36,1336.111111111111
-0.25,-0.35,1338.888888888889
-0.26,-0.36,1341.6666666666667
-0.26,-0.365,1344.4444444444443
-0.275,-0.375,1347.2222222222222
-0.29,-0.36,1350.0
-0.285,-0.365,1352.7777777777778
-0.265,-0.35,1355.5555555555557
-0.26,-0.355,1358.3333333333333
-0.255,-0.37,1361.111111111111
-0.265,-0.38,1363.888888888889
-0.275,-0.38,1366.6666666666667
-0.265,-0.37,1369.4444444444443
-0.27,-0.365,1372.2222222222222
-0.265,-0.365,1375.0
-0.255,-0.385,1377.7777777777778
-0.265,-0.395,1380.5555555555557
-0.28,-0.38,1383.3333333333333
-0.265,-0.365,1386.111111111111
-0.265,-0.36,1388.888888888889
-0.25,-0.375,1391.6666666666667
-0.26,-0.385,1394.4444444444443
-0.27,-0.4,1397.2222222222222
-0.27,-0.4,1400.0
-0.255,-0.375,1402.7777777777778
-0.245,-0.35,1405.5555555555557
-0.225,-0.365,1408.3333333333333
-0.225,-0.375,1411.111111111111
-0.26,-0.395,1413.888888888889
-0.265,-0.39,1416.6666666666667
-0.26,-0.39,1419.4444444444443
-0.255,-0.38,1422.2222222222222
-0.245,-0.395,1425.0
-0.235,-0.395,1427.7777777777778
-0.27,-0.405,1430.5555555555557
-0.25,-0.405,1433.3333333333333
-0.25,-0.395,1436.111111111111
-0.225,-0.375,1438.888888888889
-0.225,-0.39,1441.6666666666667
-0.225,-0.4,1444.4444444444443
-0.235,-0.415,1447.2222222222222
-0.245,-0.41,1450.0
-0.24,-0.4,1452.7777777777778
-0.23,-0.385,1455.5555555555557
-0.225,-0.39,1458.3333333333333
-0.235,-0.415,1461.111111111111
-0.24,-0.425,1463.888888888889
-0.25,-0.415,1466.6666666666667
-0.245,-0.4,1469.4444444444443
-0.245,-0.39,1472.2222222222222
-0.19,-0.39,1475.0
-0.215,-0.4,1477.7777777777778
-0.215,-0.415,1480.5555555555557
-0.235,-0.41,1483.3333333333333
-0.225,-0.395,1486.111111111111
-0.225,-0.405,1488.888888888889
-0.22,-0.39,1491.6666666666667
-0.2,-0.405,1494.4444444444443
-0.22,-0.43,1497.2222222222222
-0.23,-0.43,1500.0
-0.235,-0.41,1502.7777777777778
-0.22,-0.395,1505.5555555555557
-0.205,-0.405,1508.3333333333333
-0.205,-0.405,1511.111111111111
-0.195,-0.415,1513.888888888889
-0.23,-0.42,1516.6666666666667
-0.205,-0.4,1519.4444444444443
-0.2,-0.39,1522.2222222222222
-0.19,-0.385,1525.0
-0.195,-0.405,1527.7777777777778
-0.215,-0.42,1530.5555555555557
-0.215,-0.415,1533.3333333333333
-0.2,-0.4,1536.111111111111
-0.19,-0.38,1538.888888888889
-0.17,-0.39,1541.6666666666667
-0.175,-0.4,1544.4444444444443
-0.185,-0.42,1547.2222222222222
-0.21,-0.425,1550.0
-0.19,-0.405,1552.7777777777778
-0.185,-0.385,1555.5555555555557
-0.185,-0.39,1558.3333333333333
-0.19,-0.4,1561.111111111111
-0.185,-0.415,1563.888888888889
-0.2,-0.42,1566.6666666666667
-0.2,-0.39,1569.4444444444443
-0.18,-0.39,1572.2222222222222
-0.18,-0.395,1575.0
-0.175,-0.405,1577.7777777777778
-0.2,-0.41,1580.5555555555557
-0.195,-0.41,1583.3333333333333
-0.2,-0.385,1586.111111111111
-0.19,-0.385,1588.888888888889
-0.19,-0.385,1591.6666666666667
-0.175,-0.4,1594.4444444444443
-0.18,-0.405,1597.2222222222222
-0.2,-0.41,1600.0
-0.195,-0.4,1602.7777777777778
-0.165,-0.38,1605.5555555555557
-0.155,-0.38,1608.3333333333333
-0.175,-0.405,1611.111111111111
-0.195,-0.405,1613.888888888889
-0.195,-0.395,1616.6666666666667
-0.185,-0.39,1619.4444444444443
-0.165,-0.375,1622.2222222222222
-0.15,-0.385,1625.0
-0.145,-0.375,1627.7777777777778
-0.15,-0.385,1630.5555555555557
-0.17,-0.365,1633.3333333333333
-0.15,-0.345,1636.111111111111
-0.135,-0.33,1638.888888888889
-0.105,-0.33,1641.6666666666667
-0.11,-0.335,1644.4444444444443
-0.11,-0.355,1647.2222222222222
-0.1,-0.355,1650.0
-0.08,-0.345,1652.7777777777778
-0.055,-0.335,1655.5555555555557
-0.015,-0.35,1658.3333333333333
0.0,-0.38,1661.111111111111
0.02,-0.415,1663.888888888889
0.03,-0.43,1666.6666666666667
0.055,-0.44,1669.4444444444443
0.065,-0.415,1672.2222222222222
0.09,-0.425,1675.0
0.09,-0.44,1677.7777777777778
0.065,-0.45,1680.5555555555557
0.045,-0.435,1683.3333333333333
0.05,-0.42,1686.111111111111
0.03,-0.405,1688.888888888889
0.03,-0.395,1691.6666666666667
-0.01,-0.395,1694.4444444444443
-0.025,-0.41,1697.2222222222222
-0.05,-0.395,1700.0
-0.07,-0.39,1702.7777777777778
-0.09,-0.385,1705.5555555555557
-0.09,-0.395,1708.3333333333333
-0.145,-0.39,1711.111111111111
-0.175,-0.415,1713.888888888889
-0.185,-0.415,1716.6666666666667
-0.205,-0.42,1719.4444444444443
-0.205,-0.385,1722.2222222222222
-0.2,-0.395,1725.0
-0.2,-0.42,1727.7777777777778
-0.2,-0.42,1730.5555555555557
-0.21,-0.425,1733.3333333333333
-0.215,-0.395,1736.111111111111
-0.2,-0.39,1738.888888888889
-0.19,-0.38,1741.6666666666667
-0.19,-0.395,1744.4444444444443
-0.195,-0.405,1747.2222222222222
-0.205,-0.4,1750.0
-0.185,-0.365,1752.7777777777778
-0.18,-0.33,1755.5555555555557
-0.17,-0.31,1758.3333333333333
-0.165,-0.33,1761.111111111111
-0.18,-0.35,1763.888888888889
-0.19,-0.43,1766.6666666666667
-0.195,-0.505,1769.4444444444443
-0.21,-0.61,1772.2222222222222
-0.23,-0.775,1775.0
-0.215,-0.945,1777.7777777777778
-0.145,-1.105,1780.5555555555557
-0.005,-1.2,1783.3333333333333
0.19,-1.22,1786.111111111111
0.415,-1.17,1788.888888888889
0.615,-1.075,1791.6666666666667
0.695,-0.96,1794.4444444444443
0.58,-0.835,1797.2222222222222
0.275,-0.69,1800.0
-0.02,-0.535,1802.7777777777778
-0.195,-0.415,1805.5555555555557
-0.26,-0.35,1808.3333333333333
-0.25,-0.325,1811.111111111111
-0.245,-0.335,1813.888888888889
-0.205,-0.325,1816.6666666666667
-0.165,-0.305,1819.4444444444443
-0.155,-0.29,1822.2222222222222
-0.14,-0.295,1825.0
-0.155,-0.305,1827.7777777777778
-0.18,-0.325,1830.5555555555557
-0.195,-0.325,1833.3333333333333
-0.19,-0.305,1836.111111111111
-0.185,-0.305,1838.888888888889
-0.165,-0.3,1841.6666666666667
-0.19,-0.315,1844.4444444444443
-0.18,-0.325,1847.2222222222222
-0.2,-0.325,1850.0
-0.185,-0.3,1852.7777777777778
-0.175,-0.295,1855.5555555555557
-0.17,-0.29,1858.3333333333333
-0.175,-0.305,1861.111111111111
-0.175,-0.32,1863.888888888889
-0.18,-0.305,1866.6666666666667
-0.16,-0.295,1869.4444444444443
-0.16,-0.3,1872.2222222222222
-0.15,-0.28,1875.0
-0.15,-0.295,1877.7777777777778
-0.155,-0.3,1880.5555555555557
-0.16,-0.315,1883.3333333333333
-0.155,-0.29,1886.111111111111
-0.145,-0.29,1888.888888888889
-0.125,-0.29,1891.6666666666667
-0.135,-0.305,1894.4444444444443
-0.15,-0.315,1897.2222222222222
-0.155,-0.305,1900.0
-0.15,-0.295,1902.7777777777778
-0.135,-0.29,1905.5555555555557
-0.12,-0.285,1908.3333333333333
-0.12,-0.29,1911.111111111111
-0.13,-0.305,1913.888888888889
-0.145,-0.305,1916.6666666666667
-0.13,-0.29,1919.4444444444443
-0.125,-0.28,1922.2222222222222
-0.12,-0.29,1925.0
-0.115,-0.29,1927.7777777777778
-0.125,-0.315,1930.5555555555557
-0.145,-0.305,1933.3333333333333
-0.135,-0.3,1936.111111111111
-0.13,-0.28,1938.888888888889
-0.11,-0.295,1941.6666666666667
-0.115,-0.295,1944.4444444444443
-0.11,-0.31,1947.2222222222222
-0.135,-0.31,1950.0
-0.13,-0.295,1952.7777777777778
-0.105,-0.29,1955.5555555555557
-0.09,-0.285,1958.3333333333333
-0.1,-0.295,1961.111111111111
-0.11,-0.305,1963.888888888889
-0.125,-0.3,1966.6666666666667
-0.1,-0.29,1969.4444444444443
-0.09,-0.275,1972.2222222222222
-0.085,-0.27,1975.0
-0.095,-0.285,1977.7777777777778
-0.095,-0.305,1980.5555555555557
-0.095,-0.295,1983.3333333333333
-0.1,-0.285,1986.111111111111
-0.095,-0.28,1988.888888888889
-0.085,-0.28,1991.6666666666667
-0.075,-0.29,1994.4444444444443
-0.1,-0.305,1997.2222222222222
-0.095,-0.3,2000.0
-0.095,-0.295,2002.7777777777778
-0.085,-0.275,2005.5555555555557
-0.08,-0.29,2008.3333333333333
-0.08,-0.29,2011.111111111111
-0.11,-0.315,2013.888888888889
-0.135,-0.315,2016.6666666666667
-0.12,-0.295,2019.4444444444443
-0.12,-0.285,2022.2222222222222
-0.105,-0.285,2025.0
-0.115,-0.305,2027.7777777777778
-0.135,-0.31,2030.5555555555557
-0.145,-0.305,2033.3333333333333
-0.16,-0.31,2036.111111111111
-0.135,-0.3,2038.888888888889
-0.14,-0.3,2041.6666666666667
-0.16,-0.305,2044.4444444444443
-0.165,-0.32,2047.2222222222222
-0.185,-0.315,2050.0
-0.17,-0.31,2052.777777777778
-0.16,-0.305,2055.5555555555557
-0.15,-0.3,2058.3333333333335
-0.16,-0.325,2061.1111111111113
-0.155,-0.325,2063.8888888888887
-0.175,-0.32,2066.6666666666665
-0.175,-0.31,2069.4444444444443
-0.15,-0.295,2072.222222222222
-0.145,-0.295,2075.0
-0.155,-0.31,2077.777777777778
-0.155,-0.32,2080.5555555555557
-0.18,-0.32,2083.3333333333335
-0.16,-0.305,2086.1111111111113
-0.165,-0.295,2088.8888888888887
-0.15,-0.305,2091.6666666666665
-0.155,-0.32,2094.4444444444443
-0.17,-0.315,2097.222222222222
-0.185,-0.325,2100.0
-0.17,-0.305,2102.777777777778
-0.17,-0.285,2105.5555555555557
-0.16,-0.29,2108.3333333333335
-0.165,-0.32,2111.1111111111113
-0.18,-0.32,2113.8888888888887
-0.19,-0.325,2116.6666666666665
-0.185,-0.32,2119.4444444444443
-0.155,-0.305,2122.222222222222
-0.155,-0.31,2125.0
-0.175,-0.31,2127.777777777778
-0.19,-0.325,2130.5555555555557
-0.19,-0.32,2133.3333333333335
-0.18,-0.3,2136.1111111111113
-0.175,-0.305,2138.8888888888887
-0.16,-0.315,2141.6666666666665
-0.16,-0.315,2144.4444444444443
-0.185,-0.345,2147.222222222222
-0.185,-0.325,2150.0
-0.195,-0.325,2152.777777777778
-0.17,-0.31,2155.5555555555557
-0.17,-0.305,2158.3333333333335
-0.175,-0.33,2161.1111111111113
-0.185,-0.33,2163.8888888888887
-0.185,-0.335,2166.6666666666665
-0.185,-0.34,2169.4444444444443
-0.17,-0.31,2172.222222222222
-0.155,-0.31,2175.0
-0.165,-0.315,2177.777777777778
-0.17,-0.345,2180.5555555555557
-0.19,-0.34,2183.3333333333335
-0.18,-0.325,2186.1111111111113
-0.17,-0.31,2188.8888888888887
-0.16,-0.33,2191.6666666666665
-0.155,-0.335,2194.4444444444443
-0.175,-0.345,2197.222222222222
-0.18,-0.34,2200.0
-0.18,-0.33,2202.777777777778
-0.155,-0.325,2205.5555555555557
-0.16,-0.315,2208.3333333333335
-0.16,-0.325,2211.1111111111113
-0.165,-0.345,2213.8888888888887
-0.165,-0.345,2216.6666666666665
-0.155,-0.325,2219.4444444444443
-0.15,-0.31,2222.222222222222
-0.125,-0.32,2225.0
-0.13,-0.345,2227.777777777778
-0.155,-0.345,2230.5555555555557
-0.17,-0.345,2233.3333333333335
-0.165,-0.33,2236.1111111111113
-0.15,-0.315,2238.8888888888887
-0.13,-0.32,2241.6666666666665
-0.145,-0.325,2244.4444444444443
-0.155,-0.335,2247.222222222222
-0.17,-0.34,2250.0
-0.16,-0.33,2252.777777777778
-0.155,-0.325,2255.5555555555557
-0.145,-0.32,2258.3333333333335
-0.145,-0.345,2261.1111111111113
-0.17,-0.355,2263.8888888888887
-0.165,-0.345,2266.6666666666665
-0.15,-0.33,2269.4444444444443
-0.145,-0.31,2272.222222222222
-0.14,-0.32,2275.0
-0.145,-0.33,2277.777777777778
-0.155,-0.34,2280.5555555555557
-0.175,-0.34,2283.3333333333335
-0.16,-0.33,2286.1111111111113
-0.14,-0.31,2288.8888888888887
-0.115,-0.325,2291.6666666666665
-0.135,-0.33,2294.4444444444443
-0.15,-0.335,2297.222222222222
-0.15,-0.34,2300.0
-0.15,-0.34,2302.777777777778
-0.125,-0.31,2305.5555555555557
-0.115,-0.305,2308.3333333333335
-0.115,-0.31,2311.1111111111113
-0.13,-0.34,2313.8888888888887
-0.15,-0.325,2316.6666666666665
-0.14,-0.315,2319.4444444444443
-0.14,-0.315,2322.222222222222
-0.12,-0.3,2325.0
-0.115,-0.295,2327.777777777778
-0.115,-0.31,2330.5555555555557
-0.11,-0.305,2333.3333333333335
-0.1,-0.28,2336.1111111111113
-0.07,-0.27,2338.8888888888887
-0.05,-0.265,2341.6666666666665
-0.045,-0.27,2344.4444444444443
-0.04,-0.28,2347.222222222222
-0.06,-0.265,2350.0
-0.04,-0.26,2352.777777777778
-0.005,-0.25,2355.5555555555557
0.055,-0.25,2358.3333333333335
0.11,-0.305,2361.1111111111113
0.14,-0.32,2363.8888888888887
0.155,-0.34,2366.6666666666665
0.16,-0.315,2369.4444444444443
0.15,-0.305,2372.222222222222
0.17,-0.315,2375.0
0.16,-0.33,2377.777777777778
0.125,-0.345,2380.5555555555557
0.095,-0.34,2383.3333333333335
0.08,-0.335,2386.1111111111113
0.065,-0.31,2388.8888888888887
0.085,-0.32,2391.6666666666665
0.065,-0.32,2394.4444444444443
0.02,-0.345,2397.222222222222
-0.025,-0.345,2400.0
-0.07,-0.335,2402.777777777778
-0.095,-0.335,2405.5555555555557
-0.11,-0.33,2408.3333333333335
-0.13,-0.335,2411.1111111111113
-0.165,-0.36,2413.8888888888887
-0.175,-0.355,2416.6666666666665
-0.185,-0.34,2419.4444444444443
-0.165,-0.335,2422.222222222222
-0.15,-0.335,2425.0
-0.155,-0.345,2427.777777777778
-0.175,-0.355,2430.5555555555557
-0.18,-0.345,2433.3333333333335
-0.16,-0.325,2436.1111111111113
-0.17,-0.315,2438.8888888888887
-0.14,-0.305,2441.6666666666665
-0.13,-0.29,2444.4444444444443
-0.145,-0.3,2447.222222222222
-0.16,-0.31,2450.0
-0.16,-0.38,2452.777777777778
-0.16,-0.505,2455.5555555555557
-0.16,-0.69,2458.3333333333335
-0.145,-0.865,2461.1111111111113
-0.065,-1.005,2463.8888888888887
0.115,-1.07,2466.6666666666665
0.36,-1.06,2469.4444444444443
0.575,-1.005,2472.222222222222
0.735,-0.945,2475.0
0.795,-0.875,2477.777777777778
0.76,-0.785,2480.5555555555557
0.56,-0.7,2483.3333333333335
0.31,-0.58,2486.1111111111113
0.05,-0.47,2488.8888888888887
-0.12,-0.395,2491.6666666666665
-0.215,-0.34,2494.4444444444443
-0.245,-0.31,2497.222222222222
-0.23,-0.265,2500.0
-0.19,-0.255,2502.777777777778
-0.15,-0.235,2505.5555555555557
-0.12,-0.23,2508.3333333333335
-0.12,-0.245,2511.1111111111113
-0.155,-0.25,2513.8888888888887
-0.17,-0.255,2516.6666666666665
-0.165,-0.23,2519.4444444444443
-0.15,-0.215,2522.222222222222
-0.14,-0.235,2525.0
-0.16,-0.245,2527.777777777778
-0.16,-0.26,2530.5555555555557
-0.16,-0.255,2533.3333333333335
-0.16,-0.245,2536.1111111111113
-0.15,-0.225,2538.8888888888887
-0.14,-0.22,2541.6666666666665
-0.14,-0.23,2544.4444444444443
-0.155,-0.24,2547.222222222222
-0.155,-0.25,2550.0
-0.155,-0.235,2552.777777777778
-0.14,-0.225,2555.5555555555557
-0.13,-0.225,2558.3333333333335
-0.125,-0.235,2561.1111111111113
-0.125,-0.24,2563.8888888888887
-0.135,-0.245,2566.6666666666665
-0.14,-0.23,2569.4444444444443
-0.12,-0.215,2572.222222222222
-0.12,-0.215,2575.0
-0.115,-0.24,2577.777777777778
-0.12,-0.255,2580.5555555555557
-0.125,-0.235,2583.3333333333335
-0.12,-0.23,2586.1111111111113
-0.1,-0.225,2588.8888888888887
-0.09,-0.23,2591.6666666666665
-0.095,-0.235,2594.4444444444443
-0.11,-0.26,2597.222222222222
-0.105,-0.245,2600.0
-0.12,-0.235,2602.777777777778
-0.1,-0.225,2605.5555555555557
-0.095,-0.225,2608.3333333333335
-0.11,-0.225,2611.1111111111113
-0.105,-0.25,2613.8888888888887
-0.125,-0.245,2616.6666666666665
-0.11,-0.225,2619.4444444444443
-0.105,-0.22,2622.222222222222
-0.085,-0.205,2625.0
-0.095,-0.23,2627.777777777778
-0.095,-0.235,2630.5555555555557
-0.11,-0.225,2633.3333333333335
-0.1,-0.225,2636.1111111111113
-0.09,-0.2,2638.8888888888887
-0.07,-0.205,2641.6666666666665
-0.07,-0.22,2644.4444444444443
-0.08,-0.235,2647.222222222222
-0.105,-0.23,2650.0
-0.085,-0.21,2652.777777777778
-0.075,-0.2,2655.5555555555557
-0.05,-0.205,2658.3333333333335
-0.055,-0.205,2661.1111111111113
-0.06,-0.22,2663.8888888888887
-0.07,-0.225,2666.6666666666665
-0.08,-0.205,2669.4444444444443
-0.075,-0.19,2672.222222222222
-0.045,-0.21,2675.0
-0.045,-0.215,2677.777777777778
-0.06,-0.22,2680.5555555555557
-0.06,-0.215,2683.3333333333335
-0.055,-0.205,2686.1111111111113
-0.045,-0.19,2688.8888888888887
-0.05,-0.195,2691.6666666666665
-0.055,-0.205,2694.4444444444443
-0.055,-0.23,2697.222222222222
-0.065,-0.225,2700.0
-0.065,-0.2,2702.777777777778
-0.04,-0.175,2705.5555555555557
-0.045,-0.185,2708.3333333333335
-0.05,-0.2,2711.1111111111113
-0.07,-0.225,2713.8888888888887
-0.085,-0.205,2716.6666666666665
-0.075,-0.205,2719.4444444444443
-0.065,-0.205,2722.222222222222
-0.065,-0.2,2725.0
-0.065,-0.225,2727.777777777778
-0.08,-0.235,2730.5555555555557
-0.1,-0.235,2733.3333333333335
-0.095,-0.215,2736.1111111111113
-0.1,-0.205,2738.8888888888887
-0.1,-0.225,2741.6666666666665
-0.105,-0.235,2744.4444444444443
-0.12,-0.25,2747.222222222222
-0.12,-0.235,2750.0
-0.13,-0.23,2752.777777777778
-0.12,-0.22,2755.5555555555557
-0.105,-0.235,2758.3333333333335
-0.12,-0.245,2761.1111111111113
-0.14,-0.26,2763.8888888888887
-0.15,-0.25,2766.6666666666665
-0.13,-0.23,2769.4444444444443
-0.13,-0.245,2772.222222222222
-0.13,-0.255,2775.0
-0.135,-0.27,2777.777777777778
-0.145,-0.27,2780.5555555555557
-0.15,-0.255,2783.3333333333335
-0.14,-0.245,2786.1111111111113
-0.135,-0.255,2788.8888888888887
-0.16,-0.275,2791.6666666666665
-0.165,-0.28,2794.4444444444443
-0.165,-0.28,2797.222222222222
-0.155,-0.265,2800.0
-0.15,-0.265,2802.777777777778
-0.135,-0.245,2805.5555555555557
-0.125,-0.255,2808.3333333333335
-0.16,-0.28,2811.1111111111113
-0.16,-0.275,2813.8888888888887
-0.16,-0.27,2816.6666666666665
-0.15,-0.26,2819.4444444444443
-0.135,-0.265,2822.222222222222
-0.15,-0.255,2825.0
-0.15,-0.28,2827.777777777778
-0.145,-0.27,2830.5555555555557
-0.135,-0.265,2833.3333333333335
-0.12,-0.26,2836.1111111111113
-0.115,-0.26,2838.8888888888887
-0.12,-0.27,2841.6666666666665
-0.125,-0.29,2844.4444444444443
-0.155,-0.29,2847.222222222222
-0.14,-0.275,2850.0
-0.135,-0.26,2852.777777777778
-0.115,-0.265,2855.5555555555557
-0.125,-0.285,2858.3333333333335
-0.145,-0.3,2861.1111111111113
-0.165,-0.29,2863.8888888888887
-0.155,-0.29,2866.6666666666665
-0.135,-0.26,2869.4444444444443
-0.12,-0.28,2872.222222222222
-0.125,-0.28,2875.0
-0.145,-0.29,2877.777777777778
-0.155,-0.295,2880.5555555555557
-0.145,-0.28,2883.3333333333335
-0.14,-0.27,2886.1111111111113
-0.14,-0.29,2888.8888888888887
-0.145,-0.285,2891.6666666666665
-0.16,-0.3,2894.4444444444443
-0.16,-0.305,2897.222222222222
-0.15,-0.285,2900.0
-0.145,-0.28,2902.777777777778
-0.155,-0.29,2905.5555555555557
-0.155,-0.3,2908.3333333333335
-0.155,-0.32,2911.1111111111113
-0.15,-0.3,2913.8888888888887
-0.16,-0.29,2916.6666666666665
-0.145,-0.275,2919.4444444444443
-0.14,-0.285,2922.222222222222
-0.14,-0.285,2925.0
-0.16,-0.305,2927.777777777778
-0.165,-0.295,2930.5555555555557
-0.14,-0.29,2933.3333333333335
-0.14,-0.29,2936.1111111111113
-0.13,-0.29,2938.8888888888887
-0.125,-0.3,2941.6666666666665
-0.14,-0.315,2944.4444444444443
-0.14,-0.305,2947.222222222222
-0.135,-0.295,2950.0
-0.125,-0.28,2952.777777777778
-0.115,-0.29,2955.5555555555557
-0.125,-0.285,2958.3333333333335
-0.14,-0.3,2961.1111111111113
-0.135,-0.305,2963.8888888888887
-0.125,-0.285,2966.6666666666665
-0.12,-0.285,2969.4444444444443
-0.11,-0.285,2972.222222222222
-0.12,-0.305,2975.0
-0.125,-0.305,2977.777777777778
-0.145,-0.3,2980.5555555555557
-0.14,-0.3,2983.3333333333335
-0.12,-0.295,2986.1111111111113
-0.1,-0.285,2988.8888888888887
-0.1,-0.295,2991.6666666666665
-0.115,-0.31,2994.4444444444443
-0.115,-0.305,2997.222222222222
-0.12,-0.29,3000.0
-0.095,-0.28,3002.777777777778
-0.105,-0.285,3005.5555555555557
-0.11,-0.3,3008.3333333333335
-0.11,-0.305,3011.1111111111113
-0.12,-0.305,3013.8888888888887
-0.105,-0.295,3016.6666666666665
-0.12,-0.285,3019.4444444444443
-0.11,-0.29,3022.222222222222
-0.105,-0.285,3025.0
-0.11,-0.305,3027.777777777778
-0.115,-0.31,3030.5555555555557
-0.115,-0.305,3033.3333333333335
-0.1,-0.28,3036.1111111111113
-0.09,-0.29,3038.8888888888887
-0.09,-0.295,3041.6666666666665
-0.095,-0.31,3044.4444444444443
-0.1,-0.295,3047.222222222222
-0.1,-0.295,3050.0
-0.1,-0.28,3052.777777777778
-0.08,-0.29,3055.5555555555557
-0.08,-0.305,3058.3333333333335
-0.09,-0.315,3061.1111111111113
-0.09,-0.305,3063.8888888888887
-0.095,-0.29,3066.6666666666665
-0.09,-0.275,3069.4444444444443
-0.07,-0.285,3072.222222222222
-0.075,-0.29,3075.0
-0.09,-0.31,3077.777777777778
-0.09,-0.31,3080.5555555555557
-0.1,-0.295,3083.3333333333335
-0.09,-0.285,3086.1111111111113
-0.085,-0.29,3088.8888888888887
-0.08,-0.305,3091.6666666666665
-0.08,-0.315,3094.4444444444443
-0.1,-0.305,3097.222222222222
-0.095,-0.29,3100.0
-0.075,-0.28,3102.777777777778
-0.065,-0.29,3105.5555555555557
-0.07,-0.295,3108.3333333333335
-0.105,-0.295,3111.1111111111113
-0.1,-0.305,3113.8888888888887
-0.095,-0.285,3116.6666666666665
-0.075,-0.265,3119.4444444444443
-0.065,-0.29,3122.222222222222
-0.065,-0.285,3125.0
-0.075,-0.315,3127.777777777778
-0.075,-0.31,3130.5555555555557
-0.06,-0.295,3133.3333333333335
-0.055,-0.27,3136.1111111111113
-0.045,-0.255,3138.8888888888887
-0.05,-0.255,3141.6666666666665
-0.055,-0.265,3144.4444444444443
-0.065,-0.25,3147.222222222222
-0.04,-0.225,3150.0
-0.01,-0.225,3152.777777777778
0.015,-0.22,3155.5555555555557
0.01,-0.23,3158.3333333333335
-0.01,-0.24,3161.1111111111113
-0.015,-0.24,3163.8888888888887
0.015,-0.225,3166.6666666666665
0.04,-0.215,3169.4444444444443
0.06,-0.235,3172.222222222222
0.075,-0.255,3175.0
0.09,-0.295,3177.777777777778
0.105,-0.3,3180.5555555555557
0.125,-0.305,3183.3333333333335
0.165,-0.305,3186.1111111111113
0.18,-0.3,3188.8888888888887
0.195,-0.325,3191.6666666666665
0.18,-0.33,3194.4444444444443
0.145,-0.33,3197.222222222222
0.14,-0.31,3200.0
0.12,-0.3,3202.777777777778
0.115,-0.285,3205.5555555555557
0.1,-0.275,3208.3333333333335
0.075,-0.295,3211.1111111111113
0.055,-0.3,3213.8888888888887
0.055,-0.28,3216.6666666666665
0.03,-0.26,3219.4444444444443
0.01,-0.275,3222.222222222222
-0.03,-0.295,3225.0
-0.08,-0.31,3227.777777777778
-0.095,-0.305,3230.5555555555557
-0.105,-0.295,3233.3333333333335
-0.11,-0.275,3236.1111111111113
-0.105,-0.29,3238.8888888888887
-0.12,-0.3,3241.6666666666665
-0.135,-0.315,3244.4444444444443
-0.145,-0.315,3247.222222222222
-0.14,-0.3,3250.0
-0.125,-0.29,3252.777777777778
-0.12,-0.285,3255.5555555555557
-0.125,-0.285,3258.3333333333335
-0.13,-0.305,3261.1111111111113
-0.13,-0.295,3263.8888888888887
-0.115,-0.27,3266.6666666666665
-0.105,-0.23,3269.4444444444443
-0.09,-0.21,3272.222222222222
-0.105,-0.19,3275.0
-0.105,-0.2,3277.777777777778
-0.12,-0.215,3280.5555555555557
-0.105,-0.245,3283.3333333333335
-0.1,-0.295,3286.1111111111113
-0.105,-0.4,3288.8888888888887
-0.14,-0.525,3291.6666666666665
-0.16,-0.67,3294.4444444444443
-0.12,-0.815,3297.222222222222
-0.025,-0.94,3300.0
0.105,-1.04,3302.777777777778
0.27,-1.105,3305.5555555555557
0.425,-1.115,3308.3333333333335
0.605,-1.065,3311.1111111111113
0.775,-0.97,3313.8888888888887
0.88,-0.825,3316.6666666666665
0.82,-0.675,3319.4444444444443
0.555,-0.545,3322.222222222222
0.215,-0.42,3325.0
-0.055,-0.33,3327.777777777778
-0.16,-0.265,3330.5555555555557
-0.185,-0.225,3333.3333333333335
-0.14,-0.205,3336.1111111111113
-0.09,-0.2,3338.8888888888887
-0.08,-0.205,3341.6666666666665
-0.085,-0.215,3344.4444444444443
-0.095,-0.215,3347.222222222222
-0.105,-0.205,3350.0
-0.12,-0.2,3352.777777777778
-0.1,-0.19,3355.5555555555557
-0.115,-0.205,3358.3333333333335
-0.12,-0.225,3361.1111111111113
-0.11,-0.22,3363.8888888888887
-0.105,-0.2,3366.6666666666665
-0.105,-0.19,3369.4444444444443
-0.085,-0.21,3372.222222222222
-0.095,-0.205,3375.0
-0.105,-0.22,3377.777777777778
-0.11,-0.21,3380.5555555555557
-0.1,-0.205,3383.3333333333335
-0.08,-0.2,3386.1111111111113
-0.07,-0.205,3388.8888888888887
-0.085,-0.205,3391.6666666666665
-0.09,-0.225,3394.4444444444443
-0.095,-0.215,3397.222222222222
-0.09,-0.21,3400.0
-0.065,-0.195,3402.777777777778
-0.07,-0.2,3405.5555555555557
-0.065,-0.215,3408.3333333333335
-0.075,-0.225,3411.1111111111113
-0.08,-0.215,3413.8888888888887
-0.06,-0.205,3416.6666666666665
-0.05,-0.19,3419.4444444444443
-0.045,-0.2,3422.222222222222
-0.055,-0.215,3425.0
-0.055,-0.22,3427.777777777778
-0.065,-0.225,3430.5555555555557
-0.06,-0.22,3433.3333333333335
-0.05,-0.205,3436.1111111111113
-0.04,-0.215,3438.8888888888887
-0.045,-0.22,3441.6666666666665
-0.07,-0.22,3444.4444444444443
-0.07,-0.22,3447.222222222222
-0.055,-0.21,3450.0
-0.05,-0.21,3452.777777777778
-0.04,-0.215,3455.5555555555557
-0.045,-0.22,3458.3333333333335
-0.05,-0.225,3461.1111111111113
-0.065,-0.225,3463.8888888888887
-0.07,-0.21,3466.6666666666665
-0.04,-0.19,3469.4444444444443
-0.035,-0.205,3472.222222222222
-0.025,-0.215,3475.0
-0.055,-0.23,3477.777777777778
-0.055,-0.22,3480.5555555555557
-0.05,-0.2,3483.3333333333335
-0.05,-0.2,3486.1111111111113
-0.025,-0.21,3488.8888888888887
-0.045,-0.21,3491.6666666666665
-0.05,-0.23,3494.4444444444443
-0.055,-0.225,3497.222222222222
-0.045,-0.21,3500.0
-0.03,-0.195,3502.777777777778
-0.02,-0.215,3505.5555555555557
-0.03,-0.205,3508.3333333333335
-0.04,-0.22,3511.1111111111113
-0.04,-0.215,3513.8888888888887
-0.035,-0.205,3516.6666666666665
-0.035,-0.195,3519.4444444444443
-0.005,-0.2,3522.222222222222
-0.035,-0.205,3525.0
-0.04,-0.22,3527.777777777778
-0.05,-0.225,3530.5555555555557
-0.045,-0.2,3533.3333333333335
-0.035,-0.19,3536.1111111111113
-0.03,-0.195,3538.8888888888887
-0.035,-0.21,3541.6666666666665
-0.045,-0.22,3544.4444444444443
-0.07,-0.22,3547.222222222222
-0.055,-0.215,3550.0
-0.045,-0.205,3552.777777777778
-0.05,-0.22,3555.5555555555557
-0.06,-0.215,3558.3333333333335
-0.075,-0.225,3561.1111111111113
-0.105,-0.23,3563.8888888888887
-0.1,-0.22,3566.6666666666665
-0.09,-0.2,3569.4444444444443
-0.09,-0.225,3572.222222222222
-0.105,-0.225,3575.0
-0.125,-0.255,3577.777777777778
-0.12,-0.255,3580.5555555555557
-0.115,-0.235,3583.3333333333335
-0.1,-0.225,3586.1111111111113
-0.09,-0.235,3588.8888888888887
-0.105,-0.245,3591.6666666666665
-0.12,-0.26,3594.4444444444443
-0.145,-0.255,3597.222222222222
-0.14,-0.255,3600.0
-0.12,-0.24,3602.777777777778
-0.115,-0.245,3605.5555555555557
-0.13,-0.265,3608.3333333333335
-0.14,-0.265,3611.1111111111113
-0.155,-0.25,3613.8888888888887
-0.145,-0.24,3616.6666666666665
-0.155,-0.235,3619.4444444444443
-0.145,-0.245,3622.222222222222
-0.14,-0.27,3625.0
-0.16,-0.275,3627.777777777778
-0.145,-0.275,3630.5555555555557
-0.145,-0.265,3633.3333333333335
-0.14,-0.26,3636.1111111111113
-0.15,-0.255,3638.8888888888887
-0.135,-0.26,3641.6666666666665
-0.15,-0.275,3644.4444444444443
-0.165,-0.275,3647.222222222222
-0.16,-0.26,3650.0
-0.17,-0.26,3652.777777777778
-0.145,-0.25,3655.5555555555557
-0.145,-0.27,3658.3333333333335
-0.185,-0.285,3661.1111111111113
-0.18,-0.28,3663.8888888888887
-0.18,-0.275,3666.6666666666665
-0.16,-0.27,3669.4444444444443
-0.14,-0.275,3672.222222222222
-0.155,-0.285,3675.0
-0.17,-0.29,3677.777777777778
-0.18,-0.285,3680.5555555555557
-0.185,-0.28,3683.3333333333335
-0.165,-0.265,3686.1111111111113
-0.16,-0.275,3688.8888888888887
-0.185,-0.29,3691.6666666666665
-0.18,-0.3,3694.4444444444443
-0.19,-0.295,3697.222222222222
-0.18,-0.29,3700.0
-0.16,-0.27,3702.777777777778
-0.15,-0.275,3705.5555555555557
-0.15,-0.28,3708.3333333333335
-0.16,-0.29,3711.1111111111113
-0.17,-0.295,3713.8888888888887
-0.17,-0.28,3716.6666666666665
-0.155,-0.27,3719.4444444444443
-0.15,-0.285,3722.222222222222
-0.16,-0.29,3725.0
-0.175,-0.31,3727.777777777778
-0.19,-0.31,3730.5555555555557
-0.195,-0.28,3733.3333333333335
-0.185,-0.275,3736.1111111111113
-0.17,-0.28,3738.8888888888887
-0.18,-0.285,3741.6666666666665
-0.165,-0.31,3744.4444444444443
-0.18,-0.315,3747.222222222222
-0.165,-0.29,3750.0
-0.165,-0.295,3752.777777777778
-0.155,-0.295,3755.5555555555557
-0.18,-0.31,3758.3333333333335
-0.195,-0.315,3761.1111111111113
-0.2,-0.31,3763.8888888888887
-0.18,-0.305,3766.6666666666665
-0.17,-0.29,3769.4444444444443
-0.165,-0.28,3772.222222222222
-0.165,-0.295,3775.0
-0.175,-0.305,3777.777777777778
-0.18,-0.3,3780.5555555555557
-0.17,-0.29,3783.3333333333335
-0.16,-0.28,3786.1111111111113
-0.145,-0.29,3788.8888888888887
-0.155,-0.305,3791.6666666666665
-0.17,-0.315,3794.4444444444443
-0.165,-0.31,3797.222222222222
-0.175,-0.3,3800.0
-0.17,-0.29,3802.777777777778
-0.14,-0.3,3805.5555555555557
-0.15,-0.31,3808.3333333333335
-0.17,-0.32,3811.1111111111113
-0.175,-0.315,3813.8888888888887
-0.17,-0.3,3816.6666666666665
-0.15,-0.295,3819.4444444444443
-0.145,-0.285,3822.222222222222
-0.15,-0.3,3825.0
-0.16,-0.32,3827.777777777778
-0.175,-0.31,3830.5555555555557
-0.155,-0.3,3833.3333333333335
-0.15,-0.29,3836.1111111111113
-0.14,-0.29,3838.8888888888887
-0.145,-0.31,3841.6666666666665
-0.15,-0.33,3844.4444444444443
-0.18,-0.315,3847.222222222222
-0.17,-0.295,3850.0
-0.145,-0.285,3852.777777777778
-0.13,-0.285,3855.5555555555557
-0.145,-0.3,3858.3333333333335
-0.155,-0.305,3861.1111111111113
-0.185,-0.33,3863.8888888888887
-0.165,-0.315,3866.6666666666665
-0.155,-0.295,3869.4444444444443
-0.14,-0.3,3872.222222222222
-0.14,-0.305,3875.0
-0.15,-0.315,3877.777777777778
-0.16,-0.32,3880.5555555555557
-0.155,-0.305,3883.3333333333335
-0.155,-0.305,3886.1111111111113
-0.14,-0.31,3888.8888888888887
-0.14,-0.315,3891.6666666666665
-0.145,-0.325,3894.4444444444443
-0.15,-0.31,3897.222222222222
-0.165,-0.295,3900.0
-0.145,-0.285,3902.777777777778
-0.13,-0.3,3905.5555555555557
-0.14,-0.315,3908.3333333333335
-0.145,-0.33,3911.1111111111113
-0.16,-0.315,3913.8888888888887
-0.16,-0.315,3916.6666666666665
-0.145,-0.295,3919.4444444444443
-0.13,-0.3,3922.222222222222
-0.13,-0.305,3925.0
-0.155,-0.31,3927.777777777778
-0.15,-0.305,3930.5555555555557
-0.145,-0.285,3933.3333333333335
-0.12,-0.27,3936.1111111111113
-0.115,-0.26,3938.8888888888887
-0.12,-0.255,3941.6666666666665
-0.135,-0.27,3944.4444444444443
-0.12,-0.25,3947.222222222222
-0.11,-0.245,3950.0
-0.09,-0.23,3952.777777777778
-0.075,-0.225,3955.5555555555557
-0.05,-0.23,3958.3333333333335
-0.055,-0.245,3961.1111111111113
-0.07,-0.225,3963.8888888888887
-0.035,-0.22,3966.6666666666665
0.0,-0.23,3969.4444444444443
0.02,-0.27,3972.222222222222
0.05,-0.3,3975.0
0.075,-0.34,3977.777777777778
0.09,-0.345,3980.5555555555557
0.095,-0.34,3983.3333333333335
0.115,-0.335,3986.1111111111113
0.12,-0.325,3988.8888888888887
0.115,-0.33,3991.6666666666665
0.085,-0.335,3994.4444444444443
0.06,-0.325,3997.222222222222
0.04,-0.31,4000.0
0.04,-0.28,4002.777777777778
0.035,-0.275,4005.5555555555557
0.015,-0.3,4008.3333333333335
-0.005,-0.31,4011.1111111111113
-0.025,-0.32,4013.8888888888887
-0.045,-0.305,4016.6666666666665
-0.07,-0.285,4019.4444444444443
-0.095,-0.3,4022.222222222222
-0.13,-0.31,4025.0
-0.165,-0.325,4027.777777777778
-0.165,-0.325,4030.5555555555557
-0.16,-0.32,4033.3333333333335
-0.175,-0.31,4036.1111111111113
-0.175,-0.305,4038.8888888888887
-0.18,-0.32,4041.6666666666665
-0.185,-0.33,4044.4444444444443
-0.2,-0.33,4047.222222222222
-0.18,-0.315,4050.0
-0.17,-0.305,4052.777777777778
-0.155,-0.305,4055.5555555555557
-0.15,-0.31,4058.3333333333335
-0.18,-0.315,4061.1111111111113
-0.17,-0.315,4063.8888888888887
-0.16,-0.28,4066.6666666666665
-0.15,-0.255,4069.4444444444443
-0.12,-0.22,4072.222222222222
-0.11,-0.19,4075.0
-0.135,-0.17,4077.777777777778
-0.15,-0.185,4080.5555555555557
-0.135,-0.225,4083.3333333333335
-0.115,-0.265,4086.1111111111113
-0.14,-0.405,4088.8888888888887
-0.165,-0.565,4091.6666666666665
-0.2,-0.755,4094.4444444444443
-0.175,-0.925,4097.222222222223
-0.085,-1.07,4100.0
0.08,-1.18,4102.777777777777
0.265,-1.235,4105.555555555556
0.45,-1.22,4108.333333333333
0.64,-1.145,4111.111111111111
0.775,-1.01,4113.888888888889
0.855,-0.865,4116.666666666667
0.79,-0.71,4119.444444444444
0.545,-0.57,4122.222222222223
0.22,-0.445,4125.0
-0.055,-0.35,4127.777777777777
-0.19,-0.255,4130.555555555556
-0.22,-0.195,4133.333333333333
-0.175,-0.185,4136.111111111111
-0.145,-0.18,4138.888888888889
-0.105,-0.2,4141.666666666667
-0.105,-0.205,4144.444444444444
-0.135,-0.205,4147.222222222223
-0.13,-0.195,4150.0
-0.135,-0.2,4152.777777777777
-0.115,-0.205,4155.555555555556
-0.125,-0.195,4158.333333333333
-0.135,-0.205,4161.111111111111
-0.14,-0.22,4163.888888888889
-0.115,-0.21,4166.666666666667
-0.105,-0.195,4169.444444444444
-0.1,-0.195,4172.222222222223
-0.115,-0.215,4175.0
-0.12,-0.215,4177.777777777777
-0.125,-0.22,4180.555555555556
-0.125,-0.2,4183.333333333333
-0.135,-0.195,4186.111111111111
-0.11,-0.2,4188.888888888889
-0.115,-0.215,4191.666666666667
-0.125,-0.23,4194.444444444444
-0.125,-0.225,4197.222222222223
-0.115,-0.21,4200.0
-0.105,-0.205,4202.777777777777
-0.075,-0.195,4205.555555555556
-0.1,-0.21,4208.333333333333
-0.115,-0.21,4211.111111111111
-0.11,-0.215,4213.888888888889
-0.095,-0.205,4216.666666666667
-0.085,-0.19,4219.444444444444
-0.06,-0.205,4222.222222222223
-0.07,-0.215,4225.0
-0.08,-0.225,4227.777777777777
-0.09,-0.205,4230.555555555556
-0.07,-0.19,4233.333333333333
-0.06,-0.18,4236.111111111111
-0.045,-0.175,4238.888888888889
-0.065,-0.2,4241.666666666667
-0.065,-0.205,4244.444444444444
-0.075,-0.2,4247.222222222223
-0.07,-0.195,4250.0
-0.065,-0.19,4252.777777777777
-0.06,-0.19,4255.555555555556
-0.06,-0.195,4258.333333333333
-0.065,-0.2,4261.111111111111
-0.065,-0.2,4263.888888888889
-0.06,-0.205,4266.666666666667
-0.05,-0.185,4269.444444444444
-0.06,-0.185,4272.222222222223
-0.05,-0.21,4275.0
-0.05,-0.22,4277.777777777777
-0.055,-0.2,4280.555555555556
-0.035,-0.19,4283.333333333333
-0.03,-0.18,4286.111111111111
-0.01,-0.19,4288.888888888889
-0.025,-0.2,4291.666666666667
-0.035,-0.21,4294.444444444444
-0.06,-0.215,4297.222222222223
-0.04,-0.19,4300.0
-0.02,-0.165,4302.777777777777
-0.02,-0.175,4305.555555555556
-0.01,-0.19,4308.333333333333
-0.03,-0.185,4311.111111111111
-0.035,-0.19,4313.888888888889
-0.02,-0.18,4316.666666666667
-0.01,-0.16,4319.444444444444
0.01,-0.17,4322.222222222223
0.01,-0.19,4325.0
0.005,-0.2,4327.777777777777
-0.015,-0.195,4330.555555555556
-0.005,-0.175,4333.333333333333
-0.005,-0.155,4336.111111111111
-0.01,-0.16,4338.888888888889
0.0,-0.17,4341.666666666667
-0.02,-0.19,4344.444444444444
-0.02,-0.19,4347.222222222223
-0.02,-0.18,4350.0
-0.015,-0.165,4352.777777777777
-0.005,-0.165,4355.555555555556
-0.025,-0.19,4358.333333333333
-0.045,-0.2,4361.111111111111
-0.04,-0.205,4363.888888888889
-0.035,-0.19,4366.666666666667
-0.03,-0.185,4369.444444444444
-0.02,-0.2,4372.222222222223
-0.04,-0.205,4375.0
-0.065,-0.22,4377.777777777777
-0.07,-0.21,4380.555555555556
-0.065,-0.21,4383.333333333333
-0.06,-0.19,4386.111111111111
-0.05,-0.21,4388.888888888889
-0.07,-0.22,4391.666666666667
-0.08,-0.23,4394.444444444444
-0.105,-0.23,4397.222222222223
-0.095,-0.22,4400.0
-0.08,-0.21,4402.777777777777
-0.07,-0.21,4405.555555555556
-0.06,-0.22,4408.333333333333
-0.085,-0.235,4411.111111111111
-0.095,-0.24,4413.888888888889
-0.1,-0.23,4416.666666666667
-0.075,-0.225,4419.444444444444
-0.075,-0.225,4422.222222222223
-0.08,-0.235,4425.0
-0.1,-0.25,4427.777777777777
-0.12,-0.24,4430.555555555556
-0.105,-0.23,4433.333333333333
-0.105,-0.215,4436.111111111111
-0.095,-0.225,4438.888888888889
-0.095,-0.23,4441.666666666667
-0.1,-0.255,4444.444444444444
-0.11,-0.235,4447.222222222223
-0.115,-0.23,4450.0
-0.095,-0.21,4452.777777777777
-0.095,-0.215,4455.555555555556
-0.095,-0.215,4458.333333333333
-0.105,-0.235,4461.111111111111
-0.115,-0.235,4463.888888888889
-0.11,-0.22,4466.666666666667
-0.105,-0.215,4469.444444444444
-0.075,-0.225,4472.222222222223
-0.09,-0.235,4475.0
-0.09,-0.235,4477.777777777777
-0.1,-0.24,4480.555555555556
-0.095,-0.24,4483.333333333333
-0.105,-0.215,4486.111111111111
-0.085,-0.23,4488.888888888889
-0.085,-0.235,4491.666666666667
-0.105,-0.25,4494.444444444444
-0.1,-0.25,4497.222222222223
-0.115,-0.235,4500.0
-0.11,-0.22,4502.777777777777
-0.105,-0.23,4505.555555555556
-0.1,-0.24,4508.333333333333
-0.11,-0.255,4511.111111111111
-0.12,-0.25,4513.888888888889
-0.1,-0.235,4516.666666666667
-0.105,-0.215,4519.444444444444
-0.095,-0.23,4522.222222222223
-0.105,-0.235,4525.0
-0.11,-0.245,4527.777777777777
-0.13,-0.26,4530.555555555556
-0.12,-0.255,4533.333333333333
-0.105,-0.235,4536.111111111111
-0.1,-0.24,4538.888888888889
-0.095,-0.235,4541.666666666667
-0.105,-0.25,4544.444444444444
-0.105,-0.245,4547.222222222223
-0.1,-0.24,4550.0
-0.105,-0.225,4552.777777777777
-0.08,-0.23,4555.555555555556
-0.075,-0.24,4558.333333333333
-0.105,-0.245,4561.111111111111
-0.105,-0.245,4563.888888888889
-0.1,-0.24,4566.666666666667
-0.095,-0.22,4569.444444444444
-0.08,-0.23,4572.222222222223
-0.09,-0.245,4575.0
-0.09,-0.25,4577.777777777777
-0.09,-0.255,4580.555555555556
-0.095,-0.245,4583.333333333333
-0.08,-0.23,4586.111111111111
-0.07,-0.235,4588.888888888889
-0.08,-0.24,4591.666666666667
-0.095,-0.26,4594.444444444444
-0.105,-0.25,4597.222222222223
-0.105,-0.25,4600.0
-0.105,-0.235,4602.777777777777
-0.085,-0.245,4605.555555555556
-0.06,-0.255,4608.333333333333
-0.095,-0.27,4611.111111111111
-0.085,-0.265,4613.888888888889
-0.08,-0.245,4616.666666666667
-0.08,-0.24,4619.444444444444
-0.055,-0.235,4622.222222222223
-0.075,-0.235,4625.0
-0.085,-0.255,4627.777777777777
-0.085,-0.255,4630.555555555556
-0.075,-0.25,4633.333333333333
-0.075,-0.23,4636.111111111111
-0.07,-0.24,4638.888888888889
-0.06,-0.25,4641.666666666667
-0.075,-0.255,4644.444444444444
-0.08,-0.255,4647.222222222223
-0.075,-0.24,4650.0
-0.055,-0.23,4652.777777777777
-0.05,-0.235,4655.555555555556
-0.06,-0.25,4658.333333333333
-0.08,-0.27,4661.111111111111
-0.085,-0.265,4663.888888888889
-0.07,-0.25,4666.666666666667
-0.055,-0.24,4669.444444444444
-0.04,-0.245,4672.222222222223
-0.05,-0.245,4675.0
-0.065,-0.27,4677.777777777777
-0.1,-0.245,4680.555555555556
-0.07,-0.24,4683.333333333333
-0.055,-0.225,4686.111111111111
-0.04,-0.235,4688.888888888889
-0.07,-0.25,4691.666666666667
-0.05,-0.25,4694.444444444444
-0.07,-0.245,4697.222222222223
-0.05,-0.245,4700.0
-0.05,-0.235,4702.777777777777
-0.035,-0.24,4705.555555555556
-0.04,-0.25,4708.333333333333
-0.055,-0.26,4711.111111111111
-0.07,-0.25,4713.888888888889
-0.07,-0.235,4716.666666666667
-0.05,-0.24,4719.444444444444
-0.04,-0.225,4722.222222222223
-0.04,-0.25,4725.0
-0.05,-0.265,4727.777777777777
-0.06,-0.245,4730.555555555556
-0.075,-0.24,4733.333333333333
-0.07,-0.225,4736.111111111111
-0.055,-0.23,4738.888888888889
-0.06,-0.24,4741.666666666667
-0.075,-0.255,4744.444444444444
-0.08,-0.245,4747.222222222223
-0.065,-0.23,4750.0
-0.06,-0.22,4752.777777777777
-0.045,-0.215,4755.555555555556
-0.035,-0.23,4758.333333333333
-0.04,-0.225,4761.111111111111
-0.03,-0.21,4763.888888888889
-0.025,-0.19,4766.666666666667
0.005,-0.175,4769.444444444444
0.01,-0.165,4772.222222222223
0.005,-0.18,4775.0
0.005,-0.18,4777.777777777777
0.005,-0.175,4780.555555555556
0.025,-0.17,4783.333333333333
0.05,-0.155,4786.111111111111
0.07,-0.175,4788.888888888889
0.095,-0.2,4791.666666666667
0.11,-0.245,4794.444444444444
0.13,-0.265,4797.222222222223
0.15,-0.275,4800.0
0.17,-0.27,4802.777777777777
0.185,-0.27,4805.555555555556
0.17,-0.295,4808.333333333333
0.155,-0.315,4811.111111111111
0.135,-0.3,4813.888888888889
0.13,-0.275,4816.666666666667
0.1,-0.255,4819.444444444444
0.105,-0.25,4822.222222222223
0.085,-0.25,4825.0
0.055,-0.265,4827.777777777777
0.04,-0.255,4830.555555555556
0.025,-0.25,4833.333333333333
0.015,-0.23,4836.111111111111
0.0,-0.245,4838.888888888889
-0.035,-0.26,4841.666666666667
-0.065,-0.265,4844.444444444444
-0.105,-0.265,4847.222222222223
-0.125,-0.265,4850.0
-0.11,-0.26,4852.777777777777
-0.13,-0.26,4855.555555555556
-0.145,-0.27,4858.333333333333
-0.15,-0.27,4861.111111111111
-0.145,-0.265,4863.888888888889
-0.15,-0.265,4866.666666666667
-0.135,-0.25,4869.444444444444
-0.115,-0.255,4872.222222222223
-0.13,-0.265,4875.0
-0.155,-0.285,4877.777777777777
-0.165,-0.265,4880.555555555556
-0.16,-0.255,4883.333333333333
-0.14,-0.235,4886.111111111111
-0.13,-0.24,4888.888888888889
-0.135,-0.235,4891.666666666667
-0.15,-0.22,4894.444444444444
-0.165,-0.185,4897.222222222223
-0.13,-0.14,4900.0
-0.115,-0.12,4902.777777777777
-0.115,-0.17,4905.555555555556
-0.12,-0.235,4908.333333333333
-0.12,-0.33,4911.111111111111
-0.15,-0.475,4913.888888888889
-0.16,-0.63,4916.666666666667
-0.17,-0.805,4919.444444444444
-0.11,-0.98,4922.222222222223
-0.03,-1.13,4925.0
0.105,-1.215,4927.777777777777
0.275,-1.21,4930.555555555556
0.49,-1.145,4933.333333333333
0.665,-1.035,4936.111111111111
0.75,-0.915,4938.888888888889
0.69,-0.77,4941.666666666667
0.475,-0.64,4944.444444444444
0.19,-0.495,4947.222222222223
-0.03,-0.365,4950.0
-0.155,-0.24,4952.777777777777
-0.205,-0.19,4955.555555555556
-0.2,-0.185,4958.333333333333
-0.18,-0.18,4961.111111111111
-0.175,-0.175,4963.888888888889
-0.14,-0.175,4966.666666666667
-0.135,-0.16,4969.444444444444
-0.12,-0.16,4972.222222222223
-0.135,-0.17,4975.0
-0.16,-0.18,4977.777777777777
-0.16,-0.18,4980.555555555556
-0.17,-0.155,4983.333333333333
-0.155,-0.145,4986.111111111111
-0.145,-0.16,4988.888888888889
-0.14,-0.165,4991.666666666667
-0.15,-0.195,4994.444444444444
-0.145,-0.195,4997.222222222223
-0.15,-0.185,5000.0
-0.14,-0.17,5002.777777777777
-0.125,-0.17,5005.555555555556
-0.135,-0.175,5008.333333333333
-0.145,-0.205,5011.111111111111
-0.15,-0.195,5013.888888888889
-0.145,-0.17,5016.666666666667
-0.15,-0.165,5019.444444444444
-0.15,-0.18,5022.222222222223
-0.13,-0.18,5025.0
-0.14,-0.195,5027.777777777777
-0.16,-0.185,5030.555555555556
-0.15,-0.165,5033.333333333333
-0.125,-0.155,5036.111111111111
-0.115,-0.145,5038.888888888889
-0.11,-0.17,5041.666666666667
-0.13,-0.18,5044.444444444444
-0.145,-0.17,5047.222222222223
-0.145,-0.16,5050.0
-0.12,-0.155,5052.777777777777
-0.105,-0.16,5055.555555555556
-0.12,-0.175,5058.333333333333
-0.12,-0.175,5061.111111111111
-0.125,-0.185,5063.888888888889
-0.12,-0.165,5066.666666666667
-0.115,-0.165,5069.444444444444
-0.095,-0.175,5072.222222222223
-0.09,-0.175,5075.0
-0.105,-0.185,5077.777777777777
-0.115,-0.175,5080.555555555556
-0.1,-0.175,5083.333333333333
-0.11,-0.165,5086.111111111111
-0.09,-0.165,5088.888888888889
-0.1,-0.17,5091.666666666667
-0.1,-0.18,5094.444444444444
-0.125,-0.185,5097.222222222223
-0.105,-0.17,5100.0
-0.085,-0.16,5102.777777777777
-0.08,-0.16,5105.555555555556
-0.085,-0.16,5108.333333333333
-0.105,-0.175,5111.111111111111
-0.1,-0.165,5113.888888888889
-0.1,-0.15,5116.666666666667
-0.1,-0.14,5119.444444444444
-0.09,-0.15,5122.222222222223
-0.085,-0.165,5125.0
-0.1,-0.175,5127.777777777777
-0.115,-0.165,5130.555555555556
-0.095,-0.145,5133.333333333333
-0.08,-0.14,5136.111111111111
-0.075,-0.15,5138.888888888889
-0.085,-0.16,5141.666666666667
-0.08,-0.19,5144.444444444444
-0.095,-0.18,5147.222222222223
-0.09,-0.17,5150.0
-0.08,-0.155,5152.777777777777
-0.06,-0.155,5155.555555555556
-0.08,-0.16,5158.333333333333
-0.085,-0.17,5161.111111111111
-0.1,-0.165,5163.888888888889
-0.1,-0.16,5166.666666666667
-0.095,-0.16,5169.444444444444
-0.07,-0.155,5172.222222222223
-0.08,-0.17,5175.0
-0.08,-0.18,5177.777777777777
-0.08,-0.19,5180.555555555556
-0.085,-0.17,5183.333333333333
-0.095,-0.165,5186.111111111111
-0.085,-0.175,5188.888888888889
-0.105,-0.18,5191.666666666667
-0.125,-0.195,5194.444444444444
-0.145,-0.205,5197.222222222223
-0.155,-0.18,5200.0
-0.14,-0.18,5202.777777777777
-0.12,-0.195,5205.555555555556
-0.13,-0.19,5208.333333333333
-0.155,-0.205,5211.111111111111
-0.165,-0.2,5213.888888888889
-0.16,-0.2,5216.666666666667
-0.155,-0.185,5219.444444444444
-0.15,-0.195,5222.222222222223
-0.16,-0.205,5225.0
-0.155,-0.21,5227.777777777777
-0.16,-0.205,5230.555555555556
-0.16,-0.2,5233.333333333333
-0.145,-0.195,5236.111111111111
-0.15,-0.195,5238.888888888889
-0.165,-0.225,5241.666666666667
-0.18,-0.235,5244.444444444444
-0.185,-0.22,5247.222222222223
-0.18,-0.195,5250.0
-0.18,-0.195,5252.777777777777
-0.17,-0.19,5255.555555555556
-0.165,-0.21,5258.333333333333
-0.17,-0.21,5261.111111111111
-0.18,-0.205,5263.888888888889
-0.175,-0.215,5266.666666666667
-0.16,-0.2,5269.444444444444
-0.155,-0.19,5272.222222222223
-0.165,-0.205,5275.0
-0.175,-0.225,5277.777777777777
-0.185,-0.215,5280.555555555556
-0.19,-0.205,5283.333333333333
-0.16,-0.21,5286.111111111111
-0.16,-0.205,5288.888888888889
-0.16,-0.21,5291.666666666667
-0.18,-0.21,5294.444444444444
-0.195,-0.21,5297.222222222223
-0.195,-0.205,5300.0
-0.18,-0.2,5302.777777777777
-0.165,-0.195,5305.555555555556
-0.175,-0.225,5308.333333333333
-0.185,-0.235,5311.111111111111
-0.19,-0.245,5313.888888888889
-0.2,-0.215,5316.666666666667
-0.19,-0.2,5319.444444444444
-0.175,-0.215,5322.222222222223
-0.19,-0.215,5325.0
-0.185,-0.225,5327.777777777777
-0.205,-0.23,5330.555555555556
-0.2,-0.215,5333.333333333333
-0.19,-0.21,5336.111111111111
-0.165,-0.215,5338.888888888889
-0.17,-0.225,5341.666666666667
-0.185,-0.24,5344.444444444444
-0.185,-0.225,5347.222222222223
-0.185,-0.225,5350.0
-0.175,-0.22,5352.777777777777
-0.18,-0.23,5355.555555555556
-0.165,-0.23,5358.333333333333
-0.175,-0.245,5361.111111111111
-0.19,-0.23,5363.888888888889
-0.185,-0.225,5366.666666666667
-0.155,-0.21,5369.444444444444
-0.16,-0.215,5372.222222222223
-0.17,-0.225,5375.0
-0.19,-0.245,5377.777777777777
-0.185,-0.24,5380.555555555556
-0.18,-0.235,5383.333333333333
-0.16,-0.2,5386.111111111111
-0.14,-0.215,5388.888888888889
-0.145,-0.225,5391.666666666667
-0.16,-0.245,5394.444444444444
-0.165,-0.24,5397.222222222223
-0.18,-0.22,5400.0
-0.155,-0.22,5402.777777777777
-0.15,-0.225,5405.555555555556
-0.165,-0.225,5408.333333333333
-0.165,-0.245,5411.111111111111
-0.165,-0.245,5413.888888888889
-0.175,-0.24,5416.666666666667
-0.165,-0.225,5419.444444444444
-0.145,-0.23,5422.222222222223
-0.145,-0.25,5425.0
-0.155,-0.255,5427.777777777777
-0.16,-0.25,5430.555555555556
-0.165,-0.24,5433.333333333333
-0.14,-0.225,5436.111111111111
-0.135,-0.235,5438.888888888889
-0.145,-0.24,5441.666666666667
-0.15,-0.25,5444.444444444444
-0.16,-0.24,5447.222222222223
-0.155,-0.235,5450.0
-0.14,-0.23,5452.777777777777
-0.13,-0.215,5455.555555555556
-0.135,-0.23,5458.333333333333
-0.15,-0.25,5461.111111111111
-0.145,-0.24,5463.888888888889
-0.155,-0.235,5466.666666666667
-0.14,-0.215,5469.444444444444
-0.115,-0.21,5472.222222222223
-0.12,-0.235,5475.0
-0.13,-0.245,5477.777777777777
-0.125,-0.235,5480.555555555556
-0.13,-0.22,5483.333333333333
-0.115,-0.215,5486.111111111111
-0.12,-0.21,5488.888888888889
-0.125,-0.23,5491.666666666667
-0.125,-0.245,5494.444444444444
-0.13,-0.225,5497.222222222223
-0.12,-0.23,5500.0
-0.13,-0.22,5502.777777777777
-0.115,-0.225,5505.555555555556
-0.115,-0.235,5508.333333333333
-0.125,-0.245,5511.111111111111
-0.125,-0.24,5513.888888888889
-0.125,-0.22,5516.666666666667
-0.125,-0.225,5519.444444444444
-0.11,-0.2,5522.222222222223
-0.095,-0.225,5525.0
-0.125,-0.23,5527.777777777777
-0.135,-0.23,5530.555555555556
-0.125,-0.225,5533.333333333333
-0.1,-0.215,5536.111111111111
-0.085,-0.22,5538.888888888889
-0.1,-0.24,5541.666666666667
-0.11,-0.245,5544.444444444444
-0.115,-0.245,5547.222222222223
-0.12,-0.235,5550.0
-0.105,-0.205,5552.777777777777
-0.08,-0.215,5555.555555555556
-0.095,-0.23,5558.333333333333
-0.11,-0.245,5561.111111111111
-0.115,-0.235,5563.888888888889
-0.115,-0.215,5566.666666666667
-0.09,-0.195,5569.444444444444
-0.085,-0.2,5572.222222222223
-0.095,-0.225,5575.0
-0.1,-0.23,5577.777777777777
-0.11,-0.225,5580.555555555556
-0.09,-0.22,5583.333333333333
-0.08,-0.185,5586.111111111111
-0.07,-0.185,5588.888888888889
-0.065,-0.17,5591.666666666667
-0.07,-0.175,5594.444444444444
-0.055,-0.18,5597.222222222223
-0.05,-0.16,5600.0
-0.025,-0.15,5602.777777777777
0.0,-0.165,5605.555555555556
0.01,-0.18,5608.333333333333
0.005,-0.185,5611.111111111111
0.015,-0.2,5613.888888888889
0.045,-0.19,5616.666666666667
0.095,-0.22,5619.444444444444
0.135,-0.245,5622.222222222223
0.14,-0.27,5625.0
0.15,-0.28,5627.777777777777
0.145,-0.28,5630.555555555556
0.15,-0.26,5633.333333333333
0.135,-0.245,5636.111111111111
0.13,-0.245,5638.888888888889
0.115,-0.26,5641.666666666667
0.095,-0.255,5644.444444444444
0.075,-0.24,5647.222222222223
0.065,-0.22,5650.0
0.075,-0.21,5652.777777777777
0.07,-0.205,5655.555555555556
0.055,-0.23,5658.333333333333
0.0,-0.235,5661.111111111111
-0.045,-0.22,5663.888888888889
-0.065,-0.225,5666.666666666667
-0.095,-0.225,5669.444444444444
-0.105,-0.23,5672.222222222223
-0.12,-0.255,5675.0
-0.13,-0.245,5677.777777777777
-0.14,-0.24,5680.555555555556
-0.15,-0.225,5683.333333333333
-0.125,-0.22,5686.111111111111
-0.11,-0.225,5688.888888888889
-0.115,-0.225,5691.666666666667
-0.13,-0.245,5694.444444444444
-0.135,-0.23,5697.222222222223
-0.135,-0.22,5700.0
-0.115,-0.225,5702.777777777777
-0.105,-0.215,5705.555555555556
-0.11,-0.225,5708.333333333333
-0.1,-0.235,5711.111111111111
-0.1,-0.21,5713.888888888889
-0.1,-0.165,5716.666666666667
-0.09,-0.12,5719.444444444444
-0.07,-0.105,5722.222222222223
-0.08,-0.14,5725.0
-0.095,-0.22,5727.777777777777
-0.125,-0.31,5730.555555555556
-0.145,-0.45,5733.333333333333
-0.15,-0.61,5736.111111111111
-0.13,-0.8,5738.888888888889
-0.07,-0.98,5741.666666666667
0.05,-1.115,5744.444444444444
0.215,-1.17,5747.222222222223
0.44,-1.12,5750.0
0.665,-1.0,5752.777777777777
0.8,-0.84,5755.555555555556
0.77,-0.695,5758.333333333333
0.55,-0.535,5761.111111111111
0.215,-0.38,5763.888888888889
-0.03,-0.23,5766.666666666667
-0.13,-0.16,5769.444444444444
-0.145,-0.115,5772.222222222223
-0.115,-0.115,5775.0
-0.1,-0.12,5777.777777777777
-0.095,-0.12,5780.555555555556
-0.08,-0.105,5783.333333333333
-0.055,-0.1,5786.111111111111
-0.06,-0.11,5788.888888888889
-0.08,-0.13,5791.666666666667
-0.095,-0.145,5794.444444444444
-0.085,-0.135,5797.222222222223
-0.09,-0.135,5800.0
-0.08,-0.12,5802.777777777777
-0.075,-0.11,5805.555555555556
-0.065,-0.13,5808.333333333333
-0.075,-0.145,5811.111111111111
-0.08,-0.14,5813.888888888889
-0.07,-0.125,5816.666666666667
-0.06,-0.13,5819.444444444444
-0.06,-0.14,5822.222222222223
-0.055,-0.13,5825.0
-0.06,-0.15,5827.777777777777
-0.065,-0.155,5830.555555555556
-0.055,-0.135,5833.333333333333
-0.045,-0.13,5836.111111111111
-0.05,-0.12,5838.888888888889
-0.055,-0.14,5841.666666666667
-0.07,-0.155,5844.444444444444
-0.08,-0.155,5847.222222222223
-0.05,-0.135,5850.0
-0.05,-0.115,5852.777777777777
-0.02,-0.12,5855.555555555556
-0.035,-0.135,5858.333333333333
-0.05,-0.145,5861.111111111111
-0.04,-0.155,5863.888888888889
-0.045,-0.125,5866.666666666667
-0.03,-0.125,5869.444444444444
-0.02,-0.125,5872.222222222223
-0.015,-0.125,5875.0
-0.035,-0.145,5877.777777777777
-0.04,-0.15,5880.555555555556
-0.03,-0.145,5883.333333333333
-0.02,-0.13,5886.111111111111
-0.015,-0.14,5888.888888888889
-0.025,-0.135,5891.666666666667
-0.035,-0.145,5894.444444444444
-0.025,-0.15,5897.222222222223
-0.025,-0.135,5900.0
-0.015,-0.12,5902.777777777777
-0.005,-0.12,5905.555555555556
-0.015,-0.135,5908.333333333333
-0.03,-0.15,5911.111111111111
-0.035,-0.14,5913.888888888889
-0.035,-0.14,5916.666666666667
-0.01,-0.115,5919.444444444444
-0.005,-0.11,5922.222222222223
-0.005,-0.145,5925.0
-0.02,-0.14,5927.777777777777
-0.02,-0.16,5930.555555555556
-0.02,-0.145,5933.333333333333
0.0,-0.13,5936.111111111111
0.015,-0.11,5938.888888888889
0.02,-0.145,5941.666666666667
0.005,-0.15,5944.444444444444
0.0,-0.155,5947.222222222223
0.0,-0.145,5950.0
0.015,-0.135,5952.777777777777
0.005,-0.14,5955.555555555556
0.015,-0.15,5958.333333333333
0.01,-0.145,5961.111111111111
-0.005,-0.16,5963.888888888889
0.01,-0.135,5966.666666666667
0.015,-0.13,5969.444444444444
0.035,-0.14,5972.222222222223
0.01,-0.15,5975.0
0.005,-0.17,5977.777777777777
0.0,-0.165,5980.555555555556
0.0,-0.145,5983.333333333333
0.0,-0.145,5986.111111111111
0.01,-0.14,5988.888888888889
0.0,-0.145,5991.666666666667
-0.015,-0.17,5994.444444444444
-0.035,-0.175,5997.222222222223
-0.03,-0.15,6000.0
-0.03,-0.145,6002.777777777777
-0.025,-0.16,6005.555555555556
-0.045,-0.17,6008.333333333333
-0.055,-0.185,6011.111111111111
-0.075,-0.18,6013.888888888889
-0.06,-0.175,6016.666666666667
-0.055,-0.16,6019.444444444444
-0.035,-0.165,6022.222222222223
-0.055,-0.17,6025.0
-0.08,-0.185,6027.777777777777
-0.1,-0.17,6030.555555555556
-0.07,-0.165,6033.333333333333
-0.045,-0.155,6036.111111111111
-0.05,-0.155,6038.888888888889
-0.05,-0.17,6041.666666666667
-0.07,-0.18,6044.444444444444
-0.075,-0.18,6047.222222222223
-0.07,-0.17,6050.0
-0.05,-0.145,6052.777777777777
-0.045,-0.155,6055.555555555556
-0.045,-0.17,6058.333333333333
-0.055,-0.175,6061.111111111111
-0.065,-0.18,6063.888888888889
-0.075,-0.175,6066.666666666667
-0.06,-0.175,6069.444444444444
-0.035,-0.175,6072.222222222223
-0.05,-0.185,6075.0
-0.075,-0.205,6077.777777777777
-0.085,-0.205,6080.555555555556
-0.09,-0.175,6083.333333333333
-0.055,-0.16,6086.111111111111
-0.055,-0.175,6088.888888888889
-0.065,-0.195,6091.666666666667
-0.065,-0.21,6094.444444444444
-0.09,-0.2,6097.222222222223
-0.08,-0.17,6100.0
-0.065,-0.18,6102.777777777777
-0.06,-0.18,6105.555555555556
-0.07,-0.195,6108.333333333333
-0.095,-0.2,6111.111111111111
-0.095,-0.205,6113.888888888889
-0.09,-0.19,6116.666666666667
-0.08,-0.175,6119.444444444444
-0.08,-0.195,6122.222222222223
-0.08,-0.205,6125.0
-0.095,-0.22,6127.777777777777
-0.1,-0.205,6130.555555555556
-0.09,-0.205,6133.333333333333
-0.07,-0.18,6136.111111111111
-0.07,-0.19,6138.888888888889
-0.075,-0.21,6141.666666666667
-0.09,-0.215,6144.444444444444
-0.1,-0.22,6147.222222222223
-0.09,-0.195,6150.0
-0.08,-0.195,6152.777777777777
-0.06,-0.2,6155.555555555556
-0.06,-0.215,6158.333333333333
-0.085,-0.235,6161.111111111111
-0.095,-0.23,6163.888888888889
-0.085,-0.215,6166.666666666667
-0.065,-0.205,6169.444444444444
-0.06,-0.2,6172.222222222223
-0.065,-0.21,6175.0
-0.09,-0.225,6177.777777777777
-0.09,-0.215,6180.555555555556
-0.08,-0.215,6183.333333333333
-0.07,-0.2,6186.111111111111
-0.06,-0.205,6188.888888888889
-0.06,-0.23,6191.666666666667
-0.065,-0.23,6194.444444444444
-0.07,-0.225,6197.222222222223
-0.065,-0.21,6200.0
-0.055,-0.195,6202.777777777777
-0.045,-0.21,6205.555555555556
-0.055,-0.23,6208.333333333333
-0.07,-0.24,6211.111111111111
-0.075,-0.225,6213.888888888889
-0.055,-0.225,6216.666666666667
-0.04,-0.215,6219.444444444444
-0.04,-0.215,6222.222222222223
-0.045,-0.225,6225.0
-0.055,-0.23,6227.777777777777
-0.065,-0.225,6230.555555555556
-0.055,-0.21,6233.333333333333
-0.05,-0.205,6236.111111111111
-0.045,-0.21,6238.888888888889
-0.04,-0.21,6241.666666666667
-0.055,-0.245,6244.444444444444
-0.065,-0.235,6247.222222222223
-0.055,-0.225,6250.0
-0.02,-0.215,6252.777777777777
-0.015,-0.22,6255.555555555556
-0.03,-0.235,6258.333333333333
-0.045,-0.245,6261.111111111111
-0.045,-0.24,6263.888888888889
-0.04,-0.225,6266.666666666667
-0.045,-0.205,6269.444444444444
-0.025,-0.225,6272.222222222223
-0.035,-0.23,6275.0
-0.035,-0.25,6277.777777777777
-0.055,-0.25,6280.555555555556
-0.055,-0.225,6283.333333333333
-0.05,-0.225,6286.111111111111
-0.02,-0.225,6288.888888888889
-0.03,-0.23,6291.666666666667
-0.04,-0.245,6294.444444444444
-0.06,-0.25,6297.222222222223
-0.045,-0.22,6300.0
-0.035,-0.22,6302.777777777777
-0.015,-0.195,6305.555555555556
-0.01,-0.225,6308.333333333333
-0.02,-0.22,6311.111111111111
-0.025,-0.205,6313.888888888889
-0.025,-0.19,6316.666666666667
0.0,-0.17,6319.444444444444
0.025,-0.18,6322.222222222223
0.02,-0.175,6325.0
0.02,-0.2,6327.777777777777
0.025,-0.185,6330.555555555556
0.035,-0.175,6333.333333333333
0.035,-0.15,6336.111111111111
0.065,-0.135,6338.888888888889
0.065,-0.14,6341.666666666667
0.08,-0.16,6344.444444444444
0.11,-0.18,6347.222222222223
0.16,-0.2,6350.0
0.225,-0.215,6352.777777777777
0.25,-0.225,6355.555555555556
0.255,-0.26,6358.333333333333
0.25,-0.27,6361.111111111111
0.23,-0.27,6363.888888888889
0.24,-0.265,6366.666666666667
0.255,-0.25,6369.444444444444
0.23,-0.25,6372.222222222223
0.195,-0.25,6375.0
0.18,-0.25,6377.777777777777
0.155,-0.23,6380.555555555556
0.13,-0.23,6383.333333333333
0.13,-0.225,6386.111111111111
0.1,-0.225,6388.888888888889
0.085,-0.255,6391.666666666667
0.005,-0.26,6394.444444444444
-0.03,-0.25,6397.222222222223
-0.045,-0.26,6400.0
-0.035,-0.25,6402.777777777777
-0.05,-0.25,6405.555555555556
-0.06,-0.26,6408.333333333333
-0.08,-0.275,6411.111111111111
-0.09,-0.265,6413.888888888889
-0.1,-0.265,6416.666666666667
-0.085,-0.255,6419.444444444444
-0.085,-0.26,6422.222222222223
-0.09,-0.26,6425.0
-0.1,-0.275,6427.777777777777
-0.12,-0.245,6430.555555555556
-0.095,-0.235,6433.333333333333
-0.075,-0.24,6436.111111111111
-0.06,-0.225,6438.888888888889
-0.065,-0.235,6441.666666666667
-0.075,-0.235,6444.444444444444
-0.08,-0.205,6447.222222222223
-0.07,-0.14,6450.0
-0.05,-0.105,6452.777777777777
-0.045,-0.105,6455.555555555556
-0.05,-0.165,6458.333333333333
-0.075,-0.285,6461.111111111111
-0.1,-0.465,6463.888888888889
-0.105,-0.68,6466.666666666667
-0.08,-0.885,6469.444444444444
0.025,-1.105,6472.222222222223
0.18,-1.24,6475.0
0.365,-1.295,6477.777777777777
0.54,-1.265,6480.555555555556
0.715,-1.145,6483.333333333333
0.86,-1.01,6486.111111111111
0.89,-0.865,6488.888888888889
0.795,-0.715,6491.666666666667
0.535,-0.565,6494.444444444444
0.19,-0.385,6497.222222222223
-0.06,-0.245,6500.0
-0.17,-0.165,6502.777777777777
-0.155,-0.155,6505.555555555556
-0.1,-0.155,6508.333333333333
-0.08,-0.175,6511.111111111111
-0.085,-0.17,6513.888888888889
-0.095,-0.16,6516.666666666667
-0.1,-0.14,6519.444444444444
-0.09,-0.145,6522.222222222223
-0.1,-0.16,6525.0
-0.1,-0.175,6527.777777777777
-0.105,-0.17,6530.555555555556
-0.09,-0.155,6533.333333333333
-0.075,-0.155,6536.111111111111
-0.085,-0.155,6538.888888888889
-0.07,-0.16,6541.666666666667
-0.085,-0.16,6544.444444444444
-0.085,-0.165,6547.222222222223
-0.08,-0.15,6550.0
-0.08,-0.15,6552.777777777777
-0.075,-0.155,6555.555555555556
-0.08,-0.17,6558.333333333333
-0.09,-0.18,6561.111111111111
-0.09,-0.175,6563.888888888889
-0.08,-0.165,6566.666666666667
-0.07,-0.145,6569.444444444444
-0.06,-0.145,6572.222222222223
-0.065,-0.16,6575.0
-0.08,-0.175,6577.777777777777
-0.075,-0.185,6580.555555555556
-0.08,-0.17,6583.333333333333
-0.065,-0.155,6586.111111111111
-0.055,-0.155,6588.888888888889
-0.06,-0.16,6591.666666666667
-0.065,-0.18,6594.444444444444
-0.08,-0.18,6597.222222222223
-0.08,-0.165,6600.0
-0.055,-0.15,6602.777777777777
-0.04,-0.15,6605.555555555556
-0.045,-0.155,6608.333333333333
-0.05,-0.165,6611.111111111111
-0.065,-0.15,6613.888888888889
-0.065,-0.15,6616.666666666667
-0.045,-0.14,6619.444444444444
-0.03,-0.15,6622.222222222223
-0.06,-0.16,6625.0
-0.05,-0.155,6627.777777777777
-0.07,-0.165,6630.555555555556
-0.05,-0.135,6633.333333333333
-0.035,-0.135,6636.111111111111
-0.03,-0.135,6638.888888888889
-0.035,-0.16,6641.666666666667
-0.045,-0.15,6644.444444444444
-0.05,-0.16,6647.222222222223
-0.04,-0.13,6650.0
-0.03,-0.12,6652.777777777777
-0.01,-0.12,6655.555555555556
-0.025,-0.135,6658.333333333333
-0.04,-0.145,6661.111111111111
-0.045,-0.145,6663.888888888889
-0.025,-0.125,6666.666666666667
-0.015,-0.11,6669.444444444444
0.0,-0.125,6672.222222222223
-0.015,-0.13,6675.0
-0.015,-0.155,6677.777777777777
-0.02,-0.14,6680.555555555556
-0.015,-0.13,6683.333333333333
-0.01,-0.115,6686.111111111111
-0.005,-0.12,6688.888888888889
-0.005,-0.135,6691.666666666667
-0.015,-0.14,6694.444444444444
-0.035,-0.13,6697.222222222223
-0.04,-0.12,6700.0
-0.025,-0.12,6702.777777777777
-0.02,-0.115,6705.555555555556
-0.025,-0.13,6708.333333333333
-0.04,-0.155,6711.111111111111
-0.06,-0.155,6713.888888888889
-0.065,-0.145,6716.666666666667
-0.04,-0.13,6719.444444444444
-0.055,-0.14,6722.222222222223
-0.07,-0.155,6725.0
-0.09,-0.165,6727.777777777777
-0.105,-0.17,6730.555555555556
-0.1,-0.165,6733.333333333333
-0.09,-0.16,6736.111111111111
-0.07,-0.17,6738.888888888889
-0.09,-0.17,6741.666666666667
-0.115,-0.18,6744.444444444444
-0.125,-0.19,6747.222222222223
-0.115,-0.17,6750.0
-0.115,-0.165,6752.777777777777
-0.105,-0.18,6755.555555555556
-0.12,-0.19,6758.333333333333
-0.13,-0.195,6761.111111111111
-0.135,-0.19,6763.888888888889
-0.145,-0.175,6766.666666666667
-0.145,-0.17,6769.444444444444
-0.135,-0.18,6772.222222222223
-0.15,-0.185,6775.0
-0.165,-0.22,6777.777777777777
-0.17,-0.21,6780.555555555556
-0.17,-0.19,6783.333333333333
-0.155,-0.195,6786.111111111111
-0.155,-0.18,6788.888888888889
-0.155,-0.195,6791.666666666667
-0.165,-0.205,6794.444444444444
-0.17,-0.2,6797.222222222223
-0.17,-0.2,6800.0
-0.165,-0.19,6802.777777777777
-0.15,-0.2,6805.555555555556
-0.17,-0.215,6808.333333333333
-0.175,-0.215,6811.111111111111
-0.185,-0.21,6813.888888888889
-0.16,-0.205,6816.666666666667
-0.165,-0.215,6819.444444444444
-0.15,-0.22,6822.222222222223
-0.165,-0.21,6825.0
-0.17,-0.24,6827.777777777777
-0.18,-0.245,6830.555555555556
-0.175,-0.22,6833.333333333333
-0.175,-0.205,6836.111111111111
-0.165,-0.21,6838.888888888889
-0.175,-0.23,6841.666666666667
-0.195,-0.24,6844.444444444444
-0.2,-0.24,6847.222222222223
-0.19,-0.225,6850.0
-0.18,-0.215,6852.777777777777
-0.18,-0.225,6855.555555555556
-0.175,-0.215,6858.333333333333
-0.175,-0.23,6861.111111111111
-0.18,-0.225,6863.888888888889
-0.18,-0.22,6866.666666666667
-0.175,-0.21,6869.444444444444
-0.155,-0.215,6872.222222222223
-0.175,-0.24,6875.0
-0.185,-0.24,6877.777777777777
-0.185,-0.235,6880.555555555556
-0.19,-0.22,6883.333333333333
-0.19,-0.22,6886.111111111111
-0.175,-0.225,6888.888888888889
-0.17,-0.24,6891.666666666667
-0.18,-0.235,6894.444444444444
-0.185,-0.255,6897.222222222223
-0.185,-0.225,6900.0
-0.175,-0.225,6902.777777777777
-0.165,-0.22,6905.555555555556
-0.17,-0.23,6908.333333333333
-0.18,-0.255,6911.111111111111
-0.195,-0.245,6913.888888888889
-0.18,-0.235,6916.666666666667
-0.165,-0.22,6919.444444444444
-0.17,-0.225,6922.222222222223
-0.17,-0.24,6925.0
-0.165,-0.255,6927.777777777777
-0.18,-0.255,6930.555555555556
-0.17,-0.225,6933.333333333333
-0.165,-0.235,6936.111111111111
-0.15,-0.23,6938.888888888889
-0.175,-0.23,6941.666666666667
-0.165,-0.25,6944.444444444444
-0.18,-0.235,6947.222222222223
-0.17,-0.23,6950.0
-0.155,-0.225,6952.777777777777
-0.155,-0.24,6955.555555555556
-0.17,-0.25,6958.333333333333
-0.165,-0.26,6961.111111111111
-0.175,-0.255,6963.888888888889
-0.17,-0.245,6966.666666666667
-0.15,-0.22,6969.444444444444
-0.16,-0.225,6972.222222222223
-0.165,-0.245,6975.0
-0.18,-0.265,6977.777777777777
-0.175,-0.255,6980.555555555556
-0.17,-0.245,6983.333333333333
-0.155,-0.225,6986.111111111111
-0.15,-0.235,6988.888888888889
-0.16,-0.245,6991.666666666667
-0.18,-0.26,6994.444444444444
-0.18,-0.25,6997.222222222223
-0.175,-0.265,7000.0
-0.165,-0.24,7002.777777777777
-0.16,-0.235,7005.555555555556
-0.16,-0.255,7008.333333333333
-0.18,-0.255,7011.111111111111
-0.185,-0.26,7013.888888888889
-0.19,-0.24,7016.666666666667
-0.175,-0.235,7019.444444444444
-0.17,-0.25,7022.222222222223
-0.16,-0.26,7025.0
-0.175,-0.265,7027.777777777777
-0.19,-0.26,7030.555555555556
-0.2,-0.24,7033.333333333333
-0.18,-0.235,7036.111111111111
-0.175,-0.25,7038.888888888889
-0.175,-0.25,7041.666666666667
-0.19,-0.26,7044.444444444444
-0.21,-0.27,7047.222222222223
-0.205,-0.27,7050.0
-0.195,-0.245,7052.777777777777
-0.185,-0.245,7055.555555555556
-0.19,-0.26,7058.333333333333
-0.205,-0.26,7061.111111111111
-0.21,-0.255,7063.888888888889
-0.205,-0.24,7066.666666666667
-0.2,-0.24,7069.444444444444
-0.195,-0.235,7072.222222222223
-0.205,-0.255,7075.0
-0.205,-0.27,7077.777777777777
-0.21,-0.27,7080.555555555556
-0.205,-0.255,7083.333333333333
-0.2,-0.24,7086.111111111111
-0.185,-0.24,7088.888888888889
-0.22,-0.255,7091.666666666667
-0.23,-0.27,7094.444444444444
-0.23,-0.27,7097.222222222223
-0.21,-0.255,7100.0
-0.215,-0.24,7102.777777777777
-0.2,-0.245,7105.555555555556
-0.215,-0.255,7108.333333333333
-0.225,-0.28,7111.111111111111
-0.225,-0.265,7113.888888888889
-0.225,-0.245,7116.666666666667
-0.21,-0.245,7119.444444444444
-0.22,-0.245,7122.222222222223
-0.235,-0.245,7125.0
-0.25,-0.27,7127.777777777777
-0.245,-0.26,7130.555555555556
-0.235,-0.265,7133.333333333333
-0.225,-0.23,7136.111111111111
-0.22,-0.235,7138.888888888889
-0.235,-0.245,7141.666666666667
-0.23,-0.26,7144.444444444444
-0.24,-0.255,7147.222222222223
-0.22,-0.255,7150.0
-0.22,-0.245,7152.777777777777
-0.215,-0.255,7155.555555555556
-0.23,-0.26,7158.333333333333
-0.24,-0.26,7161.111111111111
-0.245,-0.245,7163.888888888889
-0.225,-0.245,7166.666666666667
-0.215,-0.215,7169.444444444444
-0.22,-0.225,7172.222222222223
-0.215,-0.255,7175.0
-0.23,-0.265,7177.777777777777
-0.215,-0.26,7180.555555555556
-0.22,-0.24,7183.333333333333
-0.2,-0.235,7186.111111111111
-0.195,-0.24,7188.888888888889
-0.205,-0.245,7191.666666666667
-0.215,-0.26,7194.444444444444
-0.23,-0.255,7197.222222222223
-0.215,-0.27,7200.0
-0.175,-0.275,7202.777777777777
-0.165,-0.28,7205.555555555556
-0.16,-0.31,7208.333333333333
-0.17,-0.325,7211.111111111111
-0.165,-0.34,7213.888888888889
-0.155,-0.33,7216.666666666667
-0.135,-0.32,7219.444444444444
-0.115,-0.335,7222.222222222223
-0.105,-0.34,7225.0
-0.12,-0.345,7227.777777777777
-0.14,-0.335,7230.555555555556
-0.18,-0.3,7233.333333333333
-0.16,-0.28,7236.111111111111
-0.165,-0.275,7238.888888888889
-0.19,-0.275,7241.666666666667
-0.22,-0.26,7244.444444444444
-0.215,-0.24,7247.222222222223
-0.215,-0.225,7250.0
-0.2,-0.215,7252.777777777777
-0.2,-0.23,7255.555555555556
-0.235,-0.245,7258.333333333333
-0.26,-0.25,7261.111111111111
-0.27,-0.26,7263.888888888889
-0.295,-0.26,7266.666666666667
-0.29,-0.245,7269.444444444444
-0.27,-0.24,7272.222222222223
-0.27,-0.26,7275.0
-0.29,-0.265,7277.777777777777
-0.305,-0.275,7280.555555555556
-0.3,-0.25,7283.333333333333
-0.3,-0.25,7286.111111111111
-0.27,-0.25,7288.888888888889
-0.27,-0.255,7291.666666666667
-0.28,-0.27,7294.444444444444
-0.285,-0.26,7297.222222222223
-0.29,-0.245,7300.0
-0.28,-0.22,7302.777777777777
-0.265,-0.185,7305.555555555556
-0.255,-0.14,7308.333333333333
-0.275,-0.12,7311.111111111111
-0.275,-0.12,7313.888888888889
-0.265,-0.14,7316.666666666667
-0.25,-0.225,7319.444444444444
-0.27,-0.365,7322.222222222223
-0.29,-0.57,7325.0
-0.335,-0.805,7327.777777777777
-0.31,-1.01,7330.555555555556
-0.2,-1.135,7333.333333333333
-0.045,-1.195,7336.111111111111
0.155,-1.165,7338.888888888889
0.315,-1.09,7341.666666666667
0.41,-1.0,7344.444444444444
0.415,-0.84,7347.222222222223
0.31,-0.67,7350.0
0.1,-0.49,7352.777777777777
-0.155,-0.375,7355.555555555556
-0.345,-0.26,7358.333333333333
-0.42,-0.225,7361.111111111111
-0.415,-0.17,7363.888888888889
-0.36,-0.15,7366.666666666667
-0.305,-0.145,7369.444444444444
-0.26,-0.14,7372.222222222223
-0.26,-0.145,7375.0
-0.27,-0.16,7377.777777777777
-0.3,-0.16,7380.555555555556
-0.295,-0.155,7383.333333333333
-0.29,-0.145,7386.111111111111
-0.295,-0.145,7388.888888888889
-0.305,-0.16,7391.666666666667
-0.31,-0.18,7394.444444444444
-0.315,-0.185,7397.222222222223
-0.28,-0.17,7400.0
-0.275,-0.17,7402.777777777777
-0.265,-0.165,7405.555555555556
-0.28,-0.17,7408.333333333333
-0.29,-0.18,7411.111111111111
-0.3,-0.18,7413.888888888889
-0.3,-0.175,7416.666666666667
-0.265,-0.165,7419.444444444444
-0.265,-0.16,7422.222222222223
-0.275,-0.175,7425.0
-0.29,-0.19,7427.777777777777
-0.305,-0.18,7430.555555555556
-0.28,-0.17,7433.333333333333
-0.28,-0.16,7436.111111111111
-0.27,-0.16,7438.888888888889
-0.27,-0.185,7441.666666666667
-0.275,-0.195,7444.444444444444
-0.285,-0.195,7447.222222222223
-0.275,-0.165,7450.0
-0.26,-0.155,7452.777777777777
-0.245,-0.17,7455.555555555556
-0.265,-0.185,7458.333333333333
-0.295,-0.2,7461.111111111111
-0.3,-0.19,7463.888888888889
-0.285,-0.19,7466.666666666667
-0.265,-0.175,7469.444444444444
-0.255,-0.17,7472.222222222223
-0.265,-0.185,7475.0
-0.29,-0.2,7477.777777777777
-0.31,-0.19,7480.555555555556
-0.3,-0.185,7483.333333333333
-0.295,-0.175,7486.111111111111
-0.27,-0.195,7488.888888888889
-0.26,-0.2,7491.666666666667
-0.27,-0.205,7494.444444444444
-0.285,-0.21,7497.222222222223
-0.27,-0.205,7500.0
-0.27,-0.18,7502.777777777777
-0.255,-0.19,7505.555555555556
-0.26,-0.2,7508.333333333333
-0.28,-0.21,7511.111111111111
-0.29,-0.205,7513.888888888889
-0.29,-0.185,7516.666666666667
-0.27,-0.185,7519.444444444444
-0.26,-0.19,7522.222222222223
-0.275,-0.195,7525.0
-0.295,-0.215,7527.777777777777
-0.29,-0.195,7530.555555555556
-0.28,-0.185,7533.333333333333
-0.27,-0.165,7536.111111111111
-0.255,-0.175,7538.888888888889
-0.26,-0.19,7541.666666666667
-0.28,-0.21,7544.444444444444
-0.3,-0.195,7547.222222222223
-0.305,-0.195,7550.0
-0.295,-0.18,7552.777777777777
-0.275,-0.185,7555.555555555556
-0.29,-0.205,7558.333333333333
-0.295,-0.21,7561.111111111111
-0.305,-0.21,7563.888888888889
-0.295,-0.205,7566.666666666667
-0.29,-0.19,7569.444444444444
-0.28,-0.205,7572.222222222223
-0.295,-0.205,7575.0
-0.305,-0.225,7577.777777777777
-0.31,-0.21,7580.555555555556
-0.31,-0.2,7583.333333333333
-0.305,-0.2,7586.111111111111
-0.315,-0.2,7588.888888888889
-0.355,-0.225,7591.666666666667
-0.365,-0.225,7594.444444444444
-0.38,-0.225,7597.222222222223
-0.39,-0.22,7600.0
-0.385,-0.215,7602.777777777777
-0.385,-0.225,7605.555555555556
-0.375,-0.225,7608.333333333333
-0.385,-0.235,7611.111111111111
-0.4,-0.22,7613.888888888889
-0.39,-0.205,7616.666666666667
-0.39,-0.205,7619.444444444444
-0.385,-0.2,7622.222222222223
-0.395,-0.215,7625.0
-0.415,-0.235,7627.777777777777
-0.42,-0.24,7630.555555555556
-0.44,-0.23,7633.333333333333
-0.405,-0.21,7636.111111111111
-0.37,-0.22,7638.888888888889
-0.38,-0.23,7641.666666666667
-0.41,-0.235,7644.444444444444
-0.405,-0.245,7647.222222222223
-0.41,-0.235,7650.0
-0.405,-0.215,7652.777777777777
-0.395,-0.23,7655.555555555556
-0.4,-0.235,7658.333333333333
-0.435,-0.24,7661.111111111111
-0.435,-0.235,7663.888888888889
-0.43,-0.225,7666.666666666667
-0.415,-0.21,7669.444444444444
-0.395,-0.23,7672.222222222223
-0.395,-0.235,7675.0
-0.435,-0.25,7677.777777777777
-0.43,-0.24,7680.555555555556
-0.435,-0.24,7683.333333333333
-0.43,-0.22,7686.111111111111
-0.435,-0.235,7688.888888888889
-0.42,-0.245,7691.666666666667
-0.43,-0.26,7694.444444444444
-0.44,-0.25,7697.222222222223
-0.435,-0.23,7700.0
-0.425,-0.225,7702.777777777777
-0.415,-0.225,7705.555555555556
-0.415,-0.24,7708.333333333333
-0.425,-0.245,7711.111111111111
-0.44,-0.245,7713.888888888889
-0.435,-0.245,7716.666666666667
-0.425,-0.24,7719.444444444444
-0.445,-0.255,7722.222222222223
-0.43,-0.25,7725.0
-0.445,-0.26,7727.777777777777
-0.445,-0.27,7730.555555555556
-0.44,-0.25,7733.333333333333
-0.435,-0.235,7736.111111111111
-0.43,-0.24,7738.888888888889
-0.43,-0.26,7741.666666666667
-0.435,-0.265,7744.444444444444
-0.45,-0.255,7747.222222222223
-0.43,-0.245,7750.0
-0.425,-0.24,7752.777777777777
-0.405,-0.245,7755.555555555556
-0.42,-0.26,7758.333333333333
-0.435,-0.275,7761.111111111111
-0.43,-0.25,7763.888888888889
-0.43,-0.245,7766.666666666667
-0.425,-0.25,7769.444444444444
-0.415,-0.25,7772.222222222223
-0.43,-0.26,7775.0
-0.435,-0.265,7777.777777777777
-0.44,-0.27,7780.555555555556
-0.445,-0.26,7783.333333333333
-0.41,-0.26,7786.111111111111
-0.41,-0.25,7788.888888888889
-0.41,-0.255,7791.666666666667
-0.43,-0.27,7794.444444444444
-0.435,-0.27,7797.222222222223
-0.43,-0.25,7800.0
-0.415,-0.25,7802.777777777777
-0.395,-0.25,7805.555555555556
-0.4,-0.275,7808.333333333333
-0.41,-0.27,7811.111111111111
-0.43,-0.265,7813.888888888889
-0.42,-0.255,7816.666666666667
-0.41,-0.25,7819.444444444444
-0.4,-0.25,7822.222222222223
-0.415,-0.26,7825.0
-0.425,-0.265,7827.777777777777
-0.43,-0.27,7830.555555555556
-0.425,-0.25,7833.333333333333
-0.42,-0.245,7836.111111111111
-0.4,-0.245,7838.888888888889
-0.41,-0.255,7841.666666666667
-0.405,-0.255,7844.444444444444
-0.42,-0.27,7847.222222222223
-0.42,-0.25,7850.0
-0.405,-0.25,7852.777777777777
-0.405,-0.245,7855.555555555556
-0.405,-0.25,7858.333333333333
-0.42,-0.265,7861.111111111111
-0.42,-0.27,7863.888888888889
-0.415,-0.25,7866.666666666667
-0.405,-0.24,7869.444444444444
-0.4,-0.245,7872.222222222223
-0.405,-0.26,7875.0
-0.4,-0.27,7877.777777777777
-0.41,-0.25,7880.555555555556
-0.42,-0.26,7883.333333333333
-0.4,-0.24,7886.111111111111
-0.385,-0.25,7888.888888888889
-0.385,-0.26,7891.666666666667
-0.4,-0.255,7894.444444444444
-0.405,-0.27,7897.222222222223
-0.415,-0.26,7900.0
-0.39,-0.245,7902.777777777777
-0.39,-0.24,7905.555555555556
-0.395,-0.26,7908.333333333333
-0.4,-0.265,7911.111111111111
-0.42,-0.275,7913.888888888889
-0.395,-0.255,7916.666666666667
-0.39,-0.25,7919.444444444444
-0.375,-0.255,7922.222222222223
-0.39,-0.26,7925.0
-0.405,-0.27,7927.777777777777
-0.42,-0.26,7930.555555555556
-0.415,-0.255,7933.333333333333
-0.395,-0.25,7936.111111111111
-0.385,-0.24,7938.888888888889
-0.395,-0.255,7941.666666666667
-0.4,-0.26,7944.444444444444
-0.41,-0.265,7947.222222222223
-0.425,-0.25,7950.0
-0.395,-0.24,7952.777777777777
-0.385,-0.235,7955.555555555556
-0.4,-0.245,7958.333333333333
-0.41,-0.265,7961.111111111111
-0.415,-0.265,7963.888888888889
-0.4,-0.235,7966.666666666667
-0.39,-0.23,7969.444444444444
-0.38,-0.22,7972.222222222223
-0.385,-0.235,7975.0
-0.395,-0.24,7977.777777777777
-0.405,-0.24,7980.555555555556
-0.395,-0.225,7983.333333333333
-0.375,-0.215,7986.111111111111
-0.365,-0.225,7988.888888888889
-0.37,-0.25,7991.666666666667
-0.385,-0.26,7994.444444444444
-0.39,-0.245,7997.222222222223
-0.385,-0.23,8000.0
-0.37,-0.22,8002.777777777777
-0.36,-0.225,8005.555555555556
-0.37,-0.24,8008.333333333333
-0.36,-0.26,8011.111111111111
-0.375,-0.26,8013.888888888889
-0.36,-0.26,8016.666666666667
-0.34,-0.265,8019.444444444444
-0.32,-0.285,8022.222222222223
-0.32,-0.305,8025.0
-0.325,-0.335,8027.777777777777
-0.32,-0.34,8030.555555555556
-0.31,-0.31,8033.333333333333
-0.28,-0.32,8036.111111111111
-0.26,-0.32,8038.888888888889
-0.25,-0.345,8041.666666666667
-0.26,-0.33,8044.444444444444
-0.265,-0.305,8047.222222222223
-0.285,-0.295,8050.0
-0.29,-0.27,8052.777777777777
-0.29,-0.275,8055.555555555556
-0.305,-0.265,8058.333333333333
-0.325,-0.26,8061.111111111111
-0.34,-0.245,8063.888888888889
-0.335,-0.225,8066.666666666667
-0.31,-0.205,8069.444444444444
-0.315,-0.23,8072.222222222223
-0.325,-0.24,8075.0
-0.355,-0.25,8077.777777777777
-0.385,-0.255,8080.555555555556
-0.4,-0.235,8083.333333333333
-0.395,-0.235,8086.111111111111
-0.385,-0.24,8088.888888888889
-0.4,-0.26,8091.666666666667
-0.405,-0.26,8094.444444444444
-0.41,-0.265,8097.222222222223
-0.4,-0.24,8100.0
-0.39,-0.235,8102.777777777777
-0.39,-0.235,8105.555555555556
-0.39,-0.245,8108.333333333333
-0.41,-0.25,8111.111111111111
-0.395,-0.25,8113.888888888889
-0.38,-0.23,8116.666666666667
-0.365,-0.2,8119.444444444444
-0.355,-0.22,8122.222222222223
-0.36,-0.2,8125.0
-0.375,-0.165,8127.777777777777
-0.36,-0.135,8130.555555555556
-0.365,-0.12,8133.333333333333
-0.335,-0.13,8136.111111111111
-0.335,-0.22,8138.888888888889
-0.355,-0.355,8141.666666666667
-0.385,-0.555,8144.444444444444
-0.4,-0.765,8147.222222222223
-0.34,-0.94,8150.0
-0.235,-1.065,8152.777777777777
-0.075,-1.135,8155.555555555556
0.085,-1.155,8158.333333333333
0.22,-1.115,8161.111111111111
0.35,-0.995,8163.888888888889
0.395,-0.84,8166.666666666667
0.325,-0.685,8169.444444444444
0.145,-0.545,8172.222222222223
-0.095,-0.41,8175.0
-0.295,-0.29,8177.777777777777
-0.4,-0.195,8180.555555555556
-0.43,-0.12,8183.333333333333
-0.4,-0.1,8186.111111111111
-0.35,-0.1,8188.888888888889
-0.335,-0.115,8191.666666666667
-0.34,-0.135,8194.444444444445
-0.35,-0.135,8197.222222222223
-0.345,-0.12,8200.0
-0.345,-0.12,8202.777777777777
-0.36,-0.115,8205.555555555555
-0.355,-0.13,8208.333333333334
-0.345,-0.13,8211.111111111111
-0.365,-0.135,8213.888888888889
-0.35,-0.135,8216.666666666666
-0.35,-0.125,8219.444444444445
-0.33,-0.115,8222.222222222223
-0.335,-0.13,8225.0
-0.35,-0.145,8227.777777777777
-0.355,-0.135,8230.555555555555
-0.36,-0.125,8233.333333333334
-0.34,-0.115,8236.111111111111
-0.335,-0.125,8238.888888888889
-0.335,-0.135,8241.666666666666
-0.34,-0.145,8244.444444444445
-0.345,-0.15,8247.222222222223
-0.345,-0.13,8250.0
-0.335,-0.12,8252.777777777777
-0.325,-0.12,8255.555555555555
-0.33,-0.14,8258.333333333334
-0.345,-0.15,8261.111111111111
-0.34,-0.15,8263.888888888889
-0.32,-0.135,8266.666666666666
-0.31,-0.11,8269.444444444445
-0.3,-0.12,8272.222222222223
-0.305,-0.12,8275.0
-0.31,-0.145,8277.777777777777
-0.31,-0.145,8280.555555555555
-0.3,-0.13,8283.333333333334
-0.3,-0.125,8286.111111111111
-0.28,-0.13,8288.888888888889
-0.29,-0.14,8291.666666666666
-0.3,-0.145,8294.444444444445
-0.305,-0.135,8297.222222222223
-0.305,-0.145,8300.0
-0.3,-0.115,8302.777777777777
-0.29,-0.125,8305.555555555555
-0.285,-0.13,8308.333333333334
-0.305,-0.15,8311.111111111111
-0.31,-0.145,8313.888888888889
-0.295,-0.14,8316.666666666666
-0.285,-0.125,8319.444444444445
-0.29,-0.135,8322.222222222223
-0.295,-0.14,8325.0
-0.3,-0.14,8327.777777777777
-0.305,-0.145,8330.555555555555
-0.295,-0.125,8333.333333333334
-0.295,-0.11,8336.111111111111
-0.28,-0.125,8338.888888888889
-0.275,-0.135,8341.666666666666
-0.3,-0.135,8344.444444444445
-0.3,-0.15,8347.222222222223
-0.295,-0.135,8350.0
-0.275,-0.13,8352.777777777777
-0.275,-0.13,8355.555555555555
-0.28,-0.13,8358.333333333334
-0.275,-0.145,8361.111111111111
-0.295,-0.13,8363.888888888889
-0.295,-0.125,8366.666666666666
-0.29,-0.115,8369.444444444445
-0.27,-0.125,8372.222222222223
-0.28,-0.135,8375.0
-0.285,-0.16,8377.777777777777
-0.3,-0.145,8380.555555555555
-0.285,-0.13,8383.333333333334
-0.285,-0.125,8386.111111111111
-0.275,-0.13,8388.888888888889
-0.28,-0.15,8391.666666666666
-0.305,-0.16,8394.444444444445
-0.3,-0.155,8397.222222222223
-0.315,-0.155,8400.0
-0.305,-0.135,8402.777777777777
-0.3,-0.14,8405.555555555555
-0.31,-0.165,8408.333333333334
-0.345,-0.165,8411.111111111111
-0.34,-0.17,8413.888888888889
-0.34,-0.165,8416.666666666666
-0.34,-0.155,8419.444444444445
-0.325,-0.16,8422.222222222223
-0.325,-0.165,8425.0
-0.345,-0.19,8427.777777777777
-0.35,-0.175,8430.555555555555
-0.35,-0.155,8433.333333333334
-0.345,-0.16,8436.111111111111
-0.345,-0.16,8438.888888888889
-0.33,-0.175,8441.666666666666
-0.345,-0.175,8444.444444444445
-0.365,-0.17,8447.222222222223
-0.345,-0.175,8450.0
-0.34,-0.155,8452.777777777777
-0.32,-0.165,8455.555555555555
-0.325,-0.175,8458.333333333334
-0.34,-0.18,8461.111111111111
-0.345,-0.18,8463.888888888889
-0.355,-0.165,8466.666666666666
-0.33,-0.16,8469.444444444445
-0.32,-0.165,8472.222222222223
-0.32,-0.175,8475.0
-0.34,-0.185,8477.777777777777
-0.34,-0.185,8480.555555555555
-0.345,-0.175,8483.333333333334
-0.32,-0.16,8486.111111111111
-0.32,-0.16,8488.888888888889
-0.32,-0.185,8491.666666666666
-0.335,-0.18,8494.444444444445
-0.345,-0.2,8497.222222222223
-0.34,-0.185,8500.0
-0.34,-0.16,8502.777777777777
-0.315,-0.17,8505.555555555555
-0.32,-0.185,8508.333333333334
-0.34,-0.195,8511.111111111111
-0.345,-0.18,8513.888888888889
-0.335,-0.175,8516.666666666666
-0.31,-0.17,8519.444444444445
-0.315,-0.17,8522.222222222223
-0.315,-0.18,8525.0
-0.325,-0.195,8527.777777777777
-0.33,-0.18,8530.555555555555
-0.325,-0.17,8533.333333333334
-0.315,-0.16,8536.111111111111
-0.295,-0.175,8538.888888888889
-0.31,-0.175,8541.666666666666
-0.32,-0.2,8544.444444444445
-0.32,-0.175,8547.222222222223
-0.315,-0.18,8550.0
-0.315,-0.175,8552.777777777777
-0.29,-0.175,8555.555555555555
-0.305,-0.185,8558.333333333334
-0.315,-0.2,8561.111111111111
-0.33,-0.2,8563.888888888889
-0.315,-0.175,8566.666666666666
-0.305,-0.16,8569.444444444445
-0.31,-0.17,8572.222222222223
-0.275,-0.17,8575.0
-0.32,-0.19,8577.777777777777
-0.29,-0.195,8580.555555555555
-0.295,-0.18,8583.333333333334
-0.285,-0.185,8586.111111111111
-0.27,-0.18,8588.888888888889
-0.295,-0.195,8591.666666666666
-0.29,-0.195,8594.444444444445
-0.3,-0.19,8597.222222222223
-0.285,-0.165,8600.0
-0.28,-0.17,8602.777777777777
-0.28,-0.175,8605.555555555555
-0.275,-0.19,8608.333333333334
-0.28,-0.19,8611.111111111111
-0.29,-0.195,8613.888888888889
-0.285,-0.175,8616.666666666666
-0.265,-0.165,8619.444444444445
-0.25,-0.175,8622.222222222223
-0.25,-0.18,8625.0
-0.265,-0.2,8627.777777777777
-0.275,-0.195,8630.555555555555
-0.27,-0.19,8633.333333333334
-0.26,-0.185,8636.111111111111
-0.25,-0.175,8638.888888888889
-0.26,-0.18,8641.666666666666
-0.275,-0.2,8644.444444444445
-0.275,-0.195,8647.222222222223
-0.28,-0.18,8650.0
-0.255,-0.175,8652.777777777777
-0.25,-0.19,8655.555555555555
-0.255,-0.19,8658.333333333334
-0.265,-0.2,8661.111111111111
-0.275,-0.2,8663.888888888889
-0.265,-0.18,8666.666666666666
-0.255,-0.16,8669.444444444445
-0.24,-0.17,8672.222222222223
-0.24,-0.185,8675.0
-0.245,-0.2,8677.777777777777
-0.255,-0.195,8680.555555555555
-0.245,-0.175,8683.333333333334
-0.23,-0.15,8686.111111111111
-0.225,-0.15,8688.888888888889
-0.21,-0.14,8691.666666666666
-0.205,-0.16,8694.444444444445
-0.21,-0.145,8697.222222222223
-0.2,-0.12,8700.0
-0.175,-0.11,8702.777777777777
-0.16,-0.105,8705.555555555555
-0.145,-0.11,8708.333333333334
-0.165,-0.12,8711.111111111111
-0.145,-0.12,8713.888888888889
-0.14,-0.1,8716.666666666666
-0.12,-0.11,8719.444444444445
-0.095,-0.14,8722.222222222223
-0.06,-0.19,8725.0
-0.03,-0.235,8727.777777777777
-0.02,-0.245,8730.555555555555
-0.025,-0.23,8733.333333333334
-0.01,-0.22,8736.111111111111
0.005,-0.225,8738.888888888889
-0.005,-0.245,8741.666666666666
-0.025,-0.235,8744.444444444445
-0.055,-0.22,8747.222222222223
-0.07,-0.195,8750.0
-0.07,-0.17,8752.777777777777
-0.08,-0.165,8755.555555555555
-0.08,-0.165,8758.333333333334
-0.105,-0.185,8761.111111111111
-0.115,-0.18,8763.888888888889
-0.13,-0.185,8766.666666666666
-0.16,-0.175,8769.444444444445
-0.17,-0.19,8772.222222222223
-0.2,-0.205,8775.0
-0.235,-0.22,8777.777777777777
-0.25,-0.22,8780.555555555555
-0.255,-0.205,8783.333333333334
-0.25,-0.19,8786.111111111111
-0.255,-0.19,8788.888888888889
-0.255,-0.195,8791.666666666666
-0.25,-0.21,8794.444444444445
-0.265,-0.215,8797.222222222223
-0.26,-0.195,8800.0
-0.24,-0.18,8802.777777777777
-0.225,-0.185,8805.555555555555
-0.245,-0.2,8808.333333333334
-0.235,-0.205,8811.111111111111
-0.235,-0.205,8813.888888888889
-0.23,-0.185,8816.666666666666
-0.21,-0.175,8819.444444444445
-0.205,-0.16,8822.222222222223
-0.205,-0.14,8825.0
-0.205,-0.1,8827.777777777777
-0.215,-0.055,8830.555555555555
-0.195,-0.055,8833.333333333334
-0.185,-0.09,8836.111111111111
-0.195,-0.205,8838.888888888889
-0.215,-0.36,8841.666666666666
-0.24,-0.58,8844.444444444445
-0.245,-0.8,8847.222222222223
-0.17,-1.0,8850.0
-0.015,-1.135,8852.777777777777
0.17,-1.195,8855.555555555555
0.37,-1.16,8858.333333333334
0.525,-1.05,8861.111111111111
0.62,-0.9,8863.888888888889
0.62,-0.75,8866.666666666666
0.48,-0.605,8869.444444444445
0.25,-0.47,8872.222222222223
-0.015,-0.34,8875.0
-0.195,-0.245,8877.777777777777
-0.28,-0.165,8880.555555555555
-0.28,-0.105,8883.333333333334
-0.245,-0.08,8886.111111111111
-0.215,-0.065,8888.888888888889
-0.2,-0.08,8891.666666666666
-0.195,-0.095,8894.444444444445
-0.195,-0.095,8897.222222222223
-0.19,-0.085,8900.0
-0.185,-0.07,8902.777777777777
-0.19,-0.08,8905.555555555555
-0.205,-0.095,8908.333333333334
-0.23,-0.115,8911.111111111111
-0.21,-0.1,8913.888888888889
-0.205,-0.09,8916.666666666666
-0.2,-0.085,8919.444444444445
-0.205,-0.09,8922.222222222223
-0.175,-0.1,8925.0
-0.185,-0.12,8927.777777777777
-0.19,-0.115,8930.555555555555
-0.18,-0.115,8933.333333333334
-0.17,-0.1,8936.111111111111
-0.165,-0.095,8938.888888888889
-0.17,-0.11,8941.666666666666
-0.17,-0.11,8944.444444444445
-0.18,-0.115,8947.222222222223
-0.17,-0.105,8950.0
-0.165,-0.085,8952.777777777777
-0.155,-0.1,8955.555555555555
-0.17,-0.115,8958.333333333334
-0.17,-0.13,8961.111111111111
-0.165,-0.115,8963.888888888889
-0.155,-0.1,8966.666666666666
-0.15,-0.085,8969.444444444445
-0.14,-0.095,8972.222222222223
-0.145,-0.115,8975.0
-0.155,-0.115,8977.777777777777
-0.17,-0.125,8980.555555555555
-0.16,-0.105,8983.333333333334
-0.145,-0.08,8986.111111111111
-0.125,-0.1,8988.888888888889
-0.135,-0.105,8991.666666666666
-0.15,-0.12,8994.444444444445
-0.165,-0.115,8997.222222222223
-0.15,-0.11,9000.0
-0.13,-0.085,9002.777777777777
-0.12,-0.1,9005.555555555555
-0.12,-0.115,9008.333333333334
-0.13,-0.115,9011.111111111111
-0.13,-0.115,9013.888888888889
-0.12,-0.105,9016.666666666666
-0.11,-0.08,9019.444444444445
-0.105,-0.085,9022.222222222223
-0.1,-0.105,9025.0
-0.12,-0.125,9027.777777777777
-0.12,-0.115,9030.555555555555
-0.115,-0.1,9033.333333333334
-0.095,-0.08,9036.111111111111
-0.085,-0.09,9038.888888888889
-0.08,-0.11,9041.666666666666
-0.1,-0.115,9044.444444444445
-0.1,-0.105,9047.222222222223
-0.105,-0.105,9050.0
-0.08,-0.075,9052.777777777777
-0.07,-0.08,9055.555555555555
-0.07,-0.105,9058.333333333334
-0.07,-0.115,9061.111111111111
-0.085,-0.105,9063.888888888889
-0.095,-0.11,9066.666666666666
-0.085,-0.085,9069.444444444445
-0.055,-0.095,9072.222222222223
-0.06,-0.09,9075.0
-0.08,-0.105,9077.777777777777
-0.08,-0.1,9080.555555555555
-0.065,-0.09,9083.333333333334
-0.07,-0.07,9086.111111111111
-0.065,-0.08,9088.888888888889
-0.075,-0.095,9091.666666666666
-0.08,-0.11,9094.444444444445
-0.085,-0.095,9097.222222222223
-0.08,-0.09,9100.0
-0.085,-0.08,9102.777777777777
-0.075,-0.09,9105.555555555555
-0.095,-0.095,9108.333333333334
-0.1,-0.11,9111.111111111111
-0.115,-0.115,9113.888888888889
-0.125,-0.11,9116.666666666666
-0.11,-0.1,9119.444444444445
-0.11,-0.11,9122.222222222223
-0.11,-0.13,9125.0
-0.125,-0.145,9127.777777777777
-0.125,-0.14,9130.555555555555
-0.13,-0.135,9133.333333333334
-0.135,-0.125,9136.111111111111
-0.125,-0.13,9138.888888888889
-0.14,-0.15,9141.666666666666
-0.155,-0.16,9144.444444444445
-0.165,-0.16,9147.222222222223
-0.16,-0.15,9150.0
-0.14,-0.135,9152.777777777777
-0.145,-0.135,9155.555555555555
-0.145,-0.155,9158.333333333334
-0.16,-0.175,9161.111111111111
-0.17,-0.165,9163.888888888889
-0.17,-0.16,9166.666666666666
-0.165,-0.155,9169.444444444445
-0.15,-0.15,9172.222222222223
-0.165,-0.18,9175.0
-0.18,-0.18,9177.777777777777
-0.18,-0.165,9180.555555555555
-0.17,-0.16,9183.333333333334
-0.16,-0.16,9186.111111111111
-0.15,-0.145,9188.888888888889
-0.165,-0.17,9191.666666666666
-0.175,-0.185,9194.444444444445
-0.175,-0.175,9197.222222222223
-0.18,-0.155,9200.0
-0.16,-0.155,9202.777777777777
-0.155,-0.155,9205.555555555555
-0.165,-0.155,9208.333333333334
-0.17,-0.175,9211.111111111111
-0.175,-0.18,9213.888888888889
-0.175,-0.17,9216.666666666666
-0.17,-0.145,9219.444444444445
-0.16,-0.16,9222.222222222223
-0.17,-0.155,9225.0
-0.17,-0.18,9227.777777777777
-0.19,-0.18,9230.555555555555
-0.175,-0.16,9233.333333333334
-0.155,-0.165,9236.111111111111
-0.155,-0.17,9238.888888888889
-0.165,-0.19,9241.666666666666
-0.17,-0.2,9244.444444444445
-0.185,-0.19,9247.222222222223
-0.175,-0.17,9250.0
-0.165,-0.15,9252.777777777777
-0.16,-0.155,9255.555555555555
-0.17,-0.18,9258.333333333334
-0.195,-0.195,9261.111111111111
-0.195,-0.195,9263.888888888889
-0.18,-0.175,9266.666666666666
-0.16,-0.175,9269.444444444445
-0.165,-0.18,9272.222222222223
-0.16,-0.185,9275.0
-0.18,-0.2,9277.777777777777
-0.175,-0.21,9280.555555555555
-0.175,-0.18,9283.333333333334
-0.16,-0.16,9286.111111111111
-0.14,-0.175,9288.888888888889
-0.14,-0.2,9291.666666666666
-0.155,-0.205,9294.444444444445
-0.16,-0.195,9297.222222222223
-0.15,-0.19,9300.0
-0.135,-0.175,9302.777777777777
-0.14,-0.185,9305.555555555555
-0.135,-0.185,9308.333333333334
-0.145,-0.2,9311.111111111111
-0.155,-0.205,9313.888888888889
-0.155,-0.2,9316.666666666666
-0.14,-0.19,9319.444444444445
-0.125,-0.19,9322.222222222223
-0.13,-0.195,9325.0
-0.135,-0.205,9327.777777777777
-0.15,-0.2,9330.555555555555
-0.145,-0.19,9333.333333333334
-0.135,-0.18,9336.111111111111
-0.135,-0.19,9338.888888888889
-0.145,-0.2,9341.666666666666
-0.125,-0.21,9344.444444444445
-0.15,-0.21,9347.222222222223
-0.14,-0.19,9350.0
-0.135,-0.18,9352.777777777777
-0.125,-0.195,9355.555555555555
-0.13,-0.195,9358.333333333334
-0.135,-0.215,9361.111111111111
-0.14,-0.215,9363.888888888889
-0.13,-0.195,9366.666666666666
-0.115,-0.18,9369.444444444445
-0.1,-0.19,9372.222222222223
-0.115,-0.2,9375.0
-0.125,-0.21,9377.777777777777
-0.13,-0.21,9380.555555555555
-0.135,-0.19,9383.333333333334
-0.115,-0.195,9386.111111111111
-0.105,-0.195,9388.888888888889
-0.12,-0.2,9391.666666666666
-0.13,-0.205,9394.444444444445
-0.14,-0.205,9397.222222222223
-0.12,-0.195,9400.0
-0.105,-0.19,9402.777777777777
-0.095,-0.2,9405.555555555555
-0.095,-0.205,9408.333333333334
-0.115,-0.215,9411.111111111111
-0.13,-0.205,9413.888888888889
-0.13,-0.2,9416.666666666666
-0.11,-0.185,9419.444444444445
-0.105,-0.19,9422.222222222223
-0.1,-0.205,9425.0
-0.095,-0.2,9427.777777777777
-0.105,-0.195,9430.555555555555
-0.1,-0.2,9433.333333333334
-0.1,-0.185,9436.111111111111
-0.075,-0.19,9438.888888888889
-0.09,-0.215,9441.666666666666
-0.09,-0.22,9444.444444444445
-0.115,-0.21,9447.222222222223
-0.1,-0.19,9450.0
-0.095,-0.185,9452.777777777777
-0.09,-0.19,9455.555555555555
-0.095,-0.195,9458.333333333334
-0.105,-0.205,9461.111111111111
-0.115,-0.205,9463.888888888889
-0.105,-0.185,9466.666666666666
-0.085,-0.19,9469.444444444445
-0.085,-0.185,9472.222222222223
-0.095,-0.195,9475.0
-0.095,-0.2,9477.777777777777
-0.11,-0.215,9480.555555555555
-0.095,-0.2,9483.333333333334
-0.085,-0.2,9486.111111111111
-0.08,-0.21,9488.888888888889
-0.085,-0.215,9491.666666666666
-0.085,-0.23,9494.444444444445
-0.1,-0.21,9497.222222222223
-0.09,-0.2,9500.0
-0.085,-0.19,9502.777777777777
-0.075,-0.195,9505.555555555555
-0.08,-0.2,9508.333333333334
-0.1,-0.23,9511.111111111111
-0.095,-0.215,9513.888888888889
-0.09,-0.205,9516.666666666666
-0.075,-0.19,9519.444444444445
-0.075,-0.2,9522.222222222223
-0.07,-0.205,9525.0
-0.08,-0.21,9527.777777777777
-0.095,-0.225,9530.555555555555
-0.09,-0.195,9533.333333333334
-0.075,-0.195,9536.111111111111
-0.06,-0.2,9538.888888888889
-0.075,-0.2,9541.666666666666
-0.1,-0.22,9544.444444444445
-0.085,-0.205,9547.222222222223
-0.08,-0.185,9550.0
-0.07,-0.175,9552.777777777777
-0.055,-0.19,9555.555555555555
-0.07,-0.21,9558.333333333334
-0.1,-0.22,9561.111111111111
-0.1,-0.215,9563.888888888889
-0.085,-0.2,9566.666666666666
-0.055,-0.195,9569.444444444445
-0.055,-0.2,9572.222222222223
-0.055,-0.2,9575.0
-0.075,-0.21,9577.777777777777
-0.08,-0.195,9580.555555555555
-0.09,-0.19,9583.333333333334
-0.055,-0.18,9586.111111111111
-0.035,-0.19,9588.888888888889
-0.05,-0.195,9591.666666666666
-0.05,-0.205,9594.444444444445
-0.05,-0.195,9597.222222222223
-0.04,-0.19,9600.0
-0.04,-0.17,9602.777777777777
-0.03,-0.185,9605.555555555555
-0.03,-0.195,9608.333333333334
-0.025,-0.23,9611.111111111111
-0.045,-0.23,9613.888888888889
-0.03,-0.215,9616.666666666666
-0.01,-0.205,9619.444444444445
0.0,-0.22,9622.222222222223
-0.005,-0.25,9625.0
-0.025,-0.28,9627.777777777777
-0.005,-0.265,9630.555555555555
0.0,-0.27,9633.333333333334
0.02,-0.27,9636.111111111111
0.045,-0.27,9638.888888888889
0.04,-0.295,9641.666666666666
0.045,-0.305,9644.444444444445
0.055,-0.3,9647.222222222223
0.065,-0.28,9650.0
0.07,-0.265,9652.777777777777
0.05,-0.27,9655.555555555555
0.05,-0.26,9658.333333333334
0.02,-0.265,9661.111111111111
-0.005,-0.245,9663.888888888889
0.0,-0.2,9666.666666666666
-0.02,-0.17,9669.444444444445
-0.005,-0.17,9672.222222222223
-0.005,-0.175,9675.0
-0.005,-0.195,9677.777777777777
-0.02,-0.19,9680.555555555555
-0.025,-0.185,9683.333333333334
-0.045,-0.185,9686.111111111111
-0.045,-0.195,9688.888888888889
-0.055,-0.195,9691.666666666666
-0.07,-0.21,9694.444444444445
-0.08,-0.2,9697.222222222223
-0.08,-0.185,9700.0
-0.075,-0.175,9702.777777777777
-0.07,-0.195,9705.555555555555
-0.08,-0.2,9708.333333333334
-0.065,-0.215,9711.111111111111
-0.075,-0.215,9713.888888888889
-0.07,-0.205,9716.666666666666
-0.06,-0.205,9719.444444444445
-0.055,-0.2,9722.222222222223
-0.07,-0.205,9725.0
-0.075,-0.215,9727.777777777777
-0.075,-0.195,9730.555555555555
-0.055,-0.17,9733.333333333334
-0.05,-0.145,9736.111111111111
-0.04,-0.115,9738.888888888889
-0.04,-0.08,9741.666666666666
-0.045,-0.06,9744.444444444445
-0.05,-0.07,9747.222222222223
-0.04,-0.11,9750.0
-0.035,-0.2,9752.777777777777
-0.05,-0.34,9755.555555555555
-0.07,-0.55,9758.333333333334
-0.07,-0.755,9761.111111111111
-0.01,-0.935,9763.888888888889
0.115,-1.085,9766.666666666666
0.27,-1.175,9769.444444444445
0.445,-1.175,9772.222222222223
0.605,-1.115,9775.0
0.71,-0.985,9777.777777777777
0.74,-0.83,9780.555555555555
0.67,-0.665,9783.333333333334
0.48,-0.515,9786.111111111111
0.25,-0.39,9788.888888888889
0.04,-0.255,9791.666666666666
-0.075,-0.18,9794.444444444445
-0.12,-0.13,9797.222222222223
-0.115,-0.1,9800.0
-0.08,-0.08,9802.777777777777
-0.045,-0.085,9805.555555555555
-0.035,-0.1,9808.333333333334
-0.055,-0.105,9811.111111111111
-0.065,-0.095,9813.888888888889
-0.07,-0.08,9816.666666666666
-0.06,-0.065,9819.444444444445
-0.05,-0.075,9822.222222222223
-0.07,-0.095,9825.0
-0.085,-0.11,9827.777777777777
-0.065,-0.1,9830.555555555555
-0.06,-0.09,9833.333333333334
-0.04,-0.08,9836.111111111111
-0.03,-0.09,9838.888888888889
-0.03,-0.1,9841.666666666666
-0.065,-0.115,9844.444444444445
-0.065,-0.115,9847.222222222223
-0.065,-0.1,9850.0
-0.04,-0.095,9852.777777777777
-0.03,-0.11,9855.555555555555
-0.025,-0.1,9858.333333333334
-0.05,-0.11,9861.111111111111
-0.055,-0.1,9863.888888888889
-0.045,-0.1,9866.666666666666
-0.05,-0.085,9869.444444444445
-0.045,-0.085,9872.222222222223
-0.03,-0.095,9875.0
-0.035,-0.11,9877.777777777777
-0.05,-0.115,9880.555555555555
-0.035,-0.095,9883.333333333334
-0.025,-0.08,9886.111111111111
-0.005,-0.085,9888.888888888889
-0.005,-0.1,9891.666666666666
-0.015,-0.11,9894.444444444445
-0.035,-0.11,9897.222222222223
-0.02,-0.1,9900.0
-0.02,-0.1,9902.777777777777
-0.015,-0.1,9905.555555555555
-0.03,-0.105,9908.333333333334
-0.05,-0.12,9911.111111111111
-0.05,-0.12,9913.888888888889
-0.045,-0.11,9916.666666666666
-0.025,-0.095,9919.444444444445
-0.025,-0.095,9922.222222222223
-0.025,-0.11,9925.0
-0.04,-0.125,9927.777777777777
-0.04,-0.125,9930.555555555555
-0.03,-0.105,9933.333333333334
-0.015,-0.09,9936.111111111111
-0.01,-0.1,9938.888888888889
-0.015,-0.1,9941.666666666666
-0.035,-0.11,9944.444444444445
-0.035,-0.115,9947.222222222223
-0.015,-0.1,9950.0
-0.005,-0.095,9952.777777777777
0.005,-0.1,9955.555555555555
-0.02,-0.11,9958.333333333334
-0.03,-0.115,9961.111111111111
-0.035,-0.12,9963.888888888889
-0.02,-0.1,9966.666666666666
-0.015,-0.095,9969.444444444445
-0.005,-0.105,9972.222222222223
-0.01,-0.115,9975.0
-0.015,-0.115,9977.777777777777
-0.025,-0.115,9980.555555555555
-0.02,-0.1,9983.333333333334
-0.02,-0.09,9986.111111111111
0.005,-0.09,9988.888888888889
0.005,-0.115,9991.666666666666
0.0,-0.12,9994.444444444445
-0.015,-0.12,9997.222222222223
-0.005,-0.115,10000.0
0.005,-0.11,10002.777777777777
0.005,-0.105,10005.555555555555
-0.005,-0.1,10008.333333333334
-0.02,-0.12,10011.111111111111
-0.03,-0.115,10013.888888888889
-0.025,-0.1,10016.666666666666
-0.015,-0.075,10019.444444444445
-0.01,-0.095,10022.222222222223
-0.01,-0.1,10025.0
-0.025,-0.125,10027.777777777777
-0.04,-0.12,10030.555555555555
-0.035,-0.105,10033.333333333334
-0.055,-0.105,10036.111111111111
-0.03,-0.11,10038.888888888889
-0.05,-0.13,10041.666666666666
-0.07,-0.15,10044.444444444445
-0.08,-0.14,10047.222222222223
-0.08,-0.12,10050.0
-0.06,-0.12,10052.777777777777
-0.05,-0.125,10055.555555555555
-0.065,-0.135,10058.333333333334
-0.095,-0.155,10061.111111111111
-0.095,-0.155,10063.888888888889
-0.085,-0.135,10066.666666666666
-0.07,-0.135,10069.444444444445
-0.06,-0.13,10072.222222222223
-0.08,-0.14,10075.0
-0.11,-0.165,10077.777777777777
-0.115,-0.145,10080.555555555555
-0.105,-0.145,10083.333333333334
-0.08,-0.14,10086.111111111111
-0.095,-0.14,10088.888888888889
-0.09,-0.155,10091.666666666666
-0.105,-0.165,10094.444444444445
-0.125,-0.175,10097.222222222223
-0.12,-0.15,10100.0
-0.095,-0.135,10102.777777777777
-0.09,-0.13,10105.555555555555
-0.105,-0.14,10108.333333333334
-0.105,-0.155,10111.111111111111
-0.11,-0.155,10113.888888888889
-0.11,-0.14,10116.666666666666
-0.11,-0.13,10119.444444444445
-0.1,-0.145,10122.222222222223
-0.105,-0.16,10125.0
-0.115,-0.17,10127.777777777777
-0.125,-0.155,10130.555555555555
-0.11,-0.135,10133.333333333334
-0.095,-0.12,10136.111111111111
-0.095,-0.14,10138.888888888889
-0.085,-0.145,10141.666666666666
-0.11,-0.16,10144.444444444445
-0.12,-0.165,10147.222222222223
-0.115,-0.16,10150.0
-0.105,-0.135,10152.777777777777
-0.1,-0.135,10155.555555555555
-0.11,-0.14,10158.333333333334
-0.12,-0.17,10161.111111111111
-0.125,-0.155,10163.888888888889
-0.105,-0.15,10166.666666666666
-0.1,-0.13,10169.444444444445
-0.085,-0.15,10172.222222222223
-0.09,-0.145,10175.0
-0.115,-0.155,10177.777777777777
-0.13,-0.16,10180.555555555555
-0.125,-0.15,10183.333333333334
-0.1,-0.13,10186.111111111111
-0.09,-0.14,10188.888888888889
-0.085,-0.17,10191.666666666666
-0.095,-0.17,10194.444444444445
-0.095,-0.17,10197.222222222223
-0.09,-0.165,10200.0
-0.09,-0.16,10202.777777777777
-0.09,-0.165,10205.555555555555
-0.095,-0.175,10208.333333333334
-0.11,-0.175,10211.111111111111
-0.12,-0.175,10213.888888888889
-0.115,-0.16,10216.666666666666
-0.09,-0.155,10219.444444444445
-0.07,-0.165,10222.222222222223
-0.075,-0.17,10225.0
-0.095,-0.185,10227.777777777777
-0.09,-0.17,10230.555555555555
-0.08,-0.165,10233.333333333334
-0.075,-0.16,10236.111111111111
-0.06,-0.165,10238.888888888889
-0.06,-0.18,10241.666666666666
-0.075,-0.19,10244.444444444445
-0.1,-0.195,10247.222222222223
-0.085,-0.165,10250.0
-0.075,-0.155,10252.777777777777
-0.07,-0.16,10255.555555555555
-0.06,-0.17,10258.333333333334
-0.08,-0.18,10261.111111111111
-0.07,-0.17,10263.888888888889
-0.06,-0.17,10266.666666666666
-0.06,-0.17,10269.444444444445
-0.045,-0.175,10272.222222222223
-0.055,-0.18,10275.0
-0.07,-0.18,10277.777777777777
-0.075,-0.18,10280.555555555555
-0.055,-0.165,10283.333333333334
-0.055,-0.155,10286.111111111111
-0.055,-0.175,10288.888888888889
-0.06,-0.19,10291.666666666666
-0.065,-0.195,10294.444444444445
-0.08,-0.19,10297.222222222223
-0.08,-0.175,10300.0
-0.06,-0.16,10302.777777777777
-0.06,-0.165,10305.555555555555
-0.065,-0.175,10308.333333333334
-0.07,-0.175,10311.111111111111
-0.075,-0.185,10313.888888888889
-0.06,-0.165,10316.666666666666
-0.045,-0.15,10319.444444444445
-0.04,-0.175,10322.222222222223
-0.03,-0.18,10325.0
-0.045,-0.19,10327.777777777777
-0.08,-0.18,10330.555555555555
-0.075,-0.175,10333.333333333334
-0.06,-0.165,10336.111111111111
-0.055,-0.17,10338.888888888889
-0.075,-0.19,10341.666666666666
-0.08,-0.19,10344.444444444445
-0.08,-0.195,10347.222222222223
-0.075,-0.165,10350.0
-0.055,-0.15,10352.777777777777
-0.055,-0.165,10355.555555555555
-0.06,-0.175,10358.333333333334
-0.07,-0.19,10361.111111111111
-0.07,-0.185,10363.888888888889
-0.04,-0.17,10366.666666666666
-0.035,-0.17,10369.444444444445
-0.035,-0.175,10372.222222222223
-0.045,-0.18,10375.0
-0.055,-0.19,10377.777777777777
-0.07,-0.19,10380.555555555555
-0.065,-0.175,10383.333333333334
-0.04,-0.16,10386.111111111111
-0.03,-0.17,10388.888888888889
-0.045,-0.185,10391.666666666666
-0.055,-0.185,10394.444444444445
-0.055,-0.195,10397.222222222223
-0.05,-0.185,10400.0
-0.045,-0.17,10402.777777777777
-0.035,-0.17,10405.555555555555
-0.035,-0.18,10408.333333333334
-0.045,-0.2,10411.111111111111
-0.05,-0.19,10413.888888888889
-0.05,-0.185,10416.666666666666
-0.05,-0.17,10419.444444444445
-0.05,-0.175,10422.222222222223
-0.035,-0.19,10425.0
-0.04,-0.2,10427.777777777777
-0.05,-0.185,10430.555555555555
-0.06,-0.175,10433.333333333334
-0.04,-0.165,10436.111111111111
-0.025,-0.175,10438.888888888889
-0.035,-0.18,10441.666666666666
-0.04,-0.19,10444.444444444445
-0.045,-0.2,10447.222222222223
-0.035,-0.175,10450.0
-0.015,-0.15,10452.777777777777
-0.005,-0.135,10455.555555555555
-0.015,-0.155,10458.333333333334
-0.03,-0.16,10461.111111111111
-0.04,-0.145,10463.888888888889
-0.02,-0.125,10466.666666666666
0.005,-0.115,10469.444444444445
0.025,-0.11,10472.222222222223
0.02,-0.115,10475.0
0.01,-0.125,10477.777777777777
0.0,-0.125,10480.555555555555
0.035,-0.12,10483.333333333334
0.05,-0.1,10486.111111111111
0.075,-0.11,10488.888888888889
0.08,-0.13,10491.666666666666
0.095,-0.165,10494.444444444445
0.1,-0.17,10497.222222222223
0.15,-0.18,10500.0
0.175,-0.175,10502.777777777777
0.18,-0.2,10505.555555555555
0.21,-0.225,10508.333333333334
0.205,-0.23,10511.111111111111
0.185,-0.23,10513.888888888889
0.2,-0.225,10516.666666666666
0.195,-0.215,10519.444444444445
0.205,-0.205,10522.222222222223
0.165,-0.19,10525.0
0.13,-0.195,10527.777777777777
0.105,-0.17,10530.555555555555
0.105,-0.165,10533.333333333334
0.095,-0.165,10536.111111111111
0.08,-0.165,10538.888888888889
0.045,-0.18,10541.666666666666
0.005,-0.2,10544.444444444445
0.0,-0.195,10547.222222222223
-0.03,-0.18,10550.0
-0.03,-0.175,10552.777777777777
-0.04,-0.18,10555.555555555555
-0.045,-0.205,10558.333333333334
-0.065,-0.21,10561.111111111111
-0.075,-0.205,10563.888888888889
-0.09,-0.185,10566.666666666666
-0.065,-0.185,10569.444444444445
-0.065,-0.18,10572.222222222223
-0.08,-0.19,10575.0
-0.095,-0.195,10577.777777777777
-0.095,-0.19,10580.555555555555
-0.085,-0.18,10583.333333333334
-0.075,-0.175,10586.111111111111
-0.075,-0.18,10588.888888888889
-0.075,-0.195,10591.666666666666
-0.085,-0.19,10594.444444444445
-0.085,-0.17,10597.222222222223
-0.075,-0.14,10600.0
-0.065,-0.105,10602.777777777777
-0.06,-0.08,10605.555555555555
-0.06,-0.09,10608.333333333334
-0.065,-0.12,10611.111111111111
-0.07,-0.165,10613.888888888889
-0.08,-0.22,10616.666666666666
-0.105,-0.31,10619.444444444445
-0.14,-0.475,10622.222222222223
-0.175,-0.665,10625.0
-0.19,-0.845,10627.777777777777
-0.12,-0.95,10630.555555555555
0.02,-1.025,10633.333333333334
0.185,-1.025,10636.111111111111
0.35,-0.975,10638.888888888889
0.465,-0.87,10641.666666666666
0.505,-0.745,10644.444444444445
0.395,-0.605,10647.222222222223
0.21,-0.485,10650.0
0.015,-0.37,10652.777777777777
-0.115,-0.265,10655.555555555555
-0.19,-0.175,10658.333333333334
-0.23,-0.13,10661.111111111111
-0.19,-0.1,10663.888888888889
-0.105,-0.095,10666.666666666666
-0.04,-0.09,10669.444444444445
-0.015,-0.085,10672.222222222223
-0.015,-0.09,10675.0
-0.03,-0.105,10677.777777777777
-0.055,-0.11,10680.555555555555
-0.04,-0.095,10683.333333333334
-0.07,-0.08,10686.111111111111
-0.03,-0.08,10688.888888888889
-0.04,-0.11,10691.666666666666
-0.065,-0.115,10694.444444444445
-0.05,-0.1,10697.222222222223
-0.04,-0.09,10700.0
-0.04,-0.08,10702.777777777777
-0.03,-0.095,10705.555555555555
-0.035,-0.105,10708.333333333334
-0.045,-0.11,10711.111111111111
-0.055,-0.105,10713.888888888889
-0.03,-0.1,10716.666666666666
-0.025,-0.085,10719.444444444445
-0.005,-0.075,10722.222222222223
-0.005,-0.085,10725.0
-0.015,-0.1,10727.777777777777
-0.035,-0.105,10730.555555555555
-0.025,-0.095,10733.333333333334
-0.02,-0.09,10736.111111111111
-0.015,-0.085,10738.888888888889
-0.005,-0.095,10741.666666666666
-0.015,-0.11,10744.444444444445
-0.02,-0.095,10747.222222222223
-0.01,-0.095,10750.0
0.0,-0.075,10752.777777777777
-0.005,-0.08,10755.555555555555
0.0,-0.105,10758.333333333334
-0.01,-0.105,10761.111111111111
-0.01,-0.105,10763.888888888889
-0.01,-0.08,10766.666666666666
-0.005,-0.075,10769.444444444445
0.01,-0.08,10772.222222222223
0.0,-0.1,10775.0
-0.01,-0.11,10777.777777777777
-0.005,-0.11,10780.555555555555
0.005,-0.11,10783.333333333334
0.015,-0.09,10786.111111111111
0.02,-0.085,10788.888888888889
0.0,-0.09,10791.666666666666
0.0,-0.11,10794.444444444445
-0.005,-0.105,10797.222222222223
-0.01,-0.09,10800.0
0.01,-0.085,10802.777777777777
0.015,-0.09,10805.555555555555
0.01,-0.095,10808.333333333334
-0.01,-0.12,10811.111111111111
-0.02,-0.115,10813.888888888889
-0.005,-0.095,10816.666666666666
0.005,-0.07,10819.444444444445
0.005,-0.075,10822.222222222223
-0.005,-0.09,10825.0
-0.01,-0.105,10827.777777777777
-0.015,-0.105,10830.555555555555
-0.01,-0.09,10833.333333333334
-0.005,-0.075,10836.111111111111
0.0,-0.09,10838.888888888889
-0.01,-0.1,10841.666666666666
-0.015,-0.115,10844.444444444445
-0.02,-0.105,10847.222222222223
-0.015,-0.1,10850.0
-0.005,-0.08,10852.777777777777
0.005,-0.085,10855.555555555555
0.0,-0.095,10858.333333333334
-0.015,-0.11,10861.111111111111
-0.025,-0.105,10863.888888888889
-0.035,-0.105,10866.666666666666
-0.015,-0.075,10869.444444444445
-0.005,-0.095,10872.222222222223
-0.01,-0.12,10875.0
-0.035,-0.115,10877.777777777777
-0.055,-0.115,10880.555555555555
-0.035,-0.11,10883.333333333334
-0.03,-0.09,10886.111111111111
-0.02,-0.105,10888.888888888889
-0.035,-0.1,10891.666666666666
-0.055,-0.125,10894.444444444445
-0.07,-0.115,10897.222222222223
-0.065,-0.11,10900.0
-0.07,-0.105,10902.777777777777
-0.06,-0.095,10905.555555555555
-0.055,-0.115,10908.333333333334
-0.085,-0.125,10911.111111111111
-0.105,-0.115,10913.888888888889
-0.11,-0.1,10916.666666666666
-0.09,-0.08,10919.444444444445
-0.09,-0.095,10922.222222222223
-0.085,-0.11,10925.0
-0.1,-0.12,10927.777777777777
-0.105,-0.12,10930.555555555555
-0.095,-0.11,10933.333333333334
-0.09,-0.11,10936.111111111111
-0.08,-0.095,10938.888888888889
-0.09,-0.1,10941.666666666666
-0.1,-0.105,10944.444444444445
-0.115,-0.11,10947.222222222223
-0.12,-0.09,10950.0
-0.09,-0.1,10952.777777777777
-0.085,-0.09,10955.555555555555
-0.095,-0.115,10958.333333333334
-0.11,-0.12,10961.111111111111
-0.11,-0.115,10963.888888888889
-0.1,-0.105,10966.666666666666
-0.12,-0.1,10969.444444444445
-0.09,-0.11,10972.222222222223
-0.095,-0.13,10975.0
-0.115,-0.135,10977.777777777777
-0.115,-0.13,10980.555555555555
-0.1,-0.115,10983.333333333334
-0.085,-0.1,10986.111111111111
-0.08,-0.115,10988.888888888889
-0.09,-0.14,10991.666666666666
-0.105,-0.145,10994.444444444445
-0.1,-0.15,10997.222222222223
-0.095,-0.135,11000.0
-0.08,-0.125,11002.777777777777
-0.07,-0.125,11005.555555555555
-0.08,-0.125,11008.333333333334
-0.095,-0.145,11011.111111111111
-0.095,-0.135,11013.888888888889
-0.09,-0.135,11016.666666666666
-0.085,-0.125,11019.444444444445
-0.085,-0.135,11022.222222222223
-0.08,-0.145,11025.0
-0.085,-0.155,11027.777777777777
-0.09,-0.16,11030.555555555555
-0.08,-0.145,11033.333333333334
-0.08,-0.135,11036.111111111111
-0.055,-0.13,11038.888888888889
-0.055,-0.15,11041.666666666666
-0.065,-0.16,11044.444444444445
-0.085,-0.15,11047.222222222223
-0.065,-0.145,11050.0
-0.055,-0.13,11052.777777777777
-0.045,-0.13,11055.555555555555
-0.05,-0.15,11058.333333333334
-0.05,-0.15,11061.111111111111
-0.065,-0.16,11063.888888888889
-0.04,-0.15,11066.666666666666
-0.04,-0.14,11069.444444444445
-0.02,-0.135,11072.222222222223
-0.025,-0.15,11075.0
-0.03,-0.15,11077.777777777777
-0.045,-0.155,11080.555555555555
-0.03,-0.14,11083.333333333334
-0.025,-0.13,11086.111111111111
-0.015,-0.135,11088.888888888889
-0.025,-0.15,11091.666666666666
-0.03,-0.155,11094.444444444445
-0.055,-0.155,11097.222222222223
-0.055,-0.13,11100.0
-0.025,-0.14,11102.777777777777
-0.03,-0.135,11105.555555555555
-0.025,-0.15,11108.333333333334
-0.025,-0.16,11111.111111111111
-0.04,-0.16,11113.888888888889
-0.02,-0.15,11116.666666666666
-0.01,-0.125,11119.444444444445
0.0,-0.13,11122.222222222223
-0.005,-0.135,11125.0
-0.025,-0.15,11127.777777777777
-0.03,-0.155,11130.555555555555
-0.01,-0.135,11133.333333333334
-0.005,-0.125,11136.111111111111
0.0,-0.14,11138.888888888889
-0.01,-0.15,11141.666666666666
-0.01,-0.14,11144.444444444445
-0.02,-0.155,11147.222222222223
-0.005,-0.135,11150.0
0.005,-0.125,11152.777777777777
0.0,-0.13,11155.555555555555
0.005,-0.135,11158.333333333334
