MLII,V1,time_ms
-0.93,-0.16,0.0
-0.93,-0.16,2.7777777777777777
-0.93,-0.16,5.555555555555555
-0.93,-0.16,8.333333333333334
-0.93,-0.16,11.11111111111111
-0.93,-0.16,13.88888888888889
-0.93,-0.16,16.666666666666668
-0.93,-0.16,19.444444444444443
-0.925,-0.16,22.22222222222222
-0.925,-0.17,25.0
-0.92,-0.16,27.77777777777778
-0.915,-0.16,30.555555555555557
-0.91,-0.15,33.333333333333336
-0.9,-0.145,36.111111111111114
-0.875,-0.135,38.888888888888886
-0.87,-0.13,41.666666666666664
-0.85,-0.125,44.44444444444444
-0.84,-0.13,47.22222222222222
-0.815,-0.13,50.0
-0.815,-0.15,52.77777777777778
-0.805,-0.17,55.55555555555556
-0.785,-0.18,58.333333333333336
-0.775,-0.175,61.111111111111114
-0.77,-0.18,63.888888888888886
-0.74,-0.185,66.66666666666667
-0.735,-0.19,69.44444444444444
-0.71,-0.19,72.22222222222223
-0.7,-0.19,75.0
-0.675,-0.19,77.77777777777777
-0.67,-0.195,80.55555555555556
-0.66,-0.21,83.33333333333333
-0.655,-0.225,86.11111111111111
-0.665,-0.235,88.88888888888889
-0.66,-0.26,91.66666666666667
-0.665,-0.27,94.44444444444444
-0.665,-0.27,97.22222222222223
-0.66,-0.27,100.0
-0.67,-0.275,102.77777777777777
-0.65,-0.265,105.55555555555556
-0.655,-0.26,108.33333333333333
-0.64,-0.255,111.11111111111111
-0.63,-0.27,113.88888888888889
-0.64,-0.285,116.66666666666667
-0.635,-0.3,119.44444444444444
-0.645,-0.31,122.22222222222223
-0.65,-0.315,125.0
-0.66,-0.325,127.77777777777777
-0.665,-0.315,130.55555555555554
-0.67,-0.315,133.33333333333334
-0.665,-0.31,136.11111111111111
-0.66,-0.315,138.88888888888889
-0.65,-0.305,141.66666666666666
-0.645,-0.31,144.44444444444446
-0.65,-0.32,147.22222222222223
-0.65,-0.315,150.0
-0.65,-0.33,152.77777777777777
-0.66,-0.345,155.55555555555554
-0.67,-0.34,158.33333333333334
-0.675,-0.35,161.11111111111111
-0.68,-0.35,163.88888888888889
-0.685,-0.34,166.66666666666666
-0.69,-0.325,169.44444444444446
-0.67,-0.33,172.22222222222223
-0.675,-0.325,175.0
-0.67,-0.32,177.77777777777777
-0.675,-0.32,180.55555555555554
-0.69,-0.33,183.33333333333334
-0.695,-0.34,186.11111111111111
-0.695,-0.345,188.88888888888889
-0.68,-0.365,191.66666666666666
-0.7,-0.36,194.44444444444446
-0.695,-0.365,197.22222222222223
-0.7,-0.355,200.0
-0.695,-0.35,202.77777777777777
-0.7,-0.34,205.55555555555554
-0.69,-0.33,208.33333333333334
-0.69,-0.335,211.11111111111111
-0.695,-0.34,213.88888888888889
-0.69,-0.335,216.66666666666666
-0.695,-0.35,219.44444444444446
-0.695,-0.35,222.22222222222223
-0.7,-0.36,225.0
-0.7,-0.36,227.77777777777777
-0.7,-0.355,230.55555555555554
-0.7,-0.36,233.33333333333334
-0.7,-0.35,236.11111111111111
-0.685,-0.34,238.88888888888889
-0.685,-0.33,241.66666666666666
-0.675,-0.335,244.44444444444446
-0.67,-0.345,247.22222222222223
-0.665,-0.35,250.0
-0.67,-0.35,252.77777777777777
-0.675,-0.37,255.55555555555554
-0.67,-0.37,258.3333333333333
-0.675,-0.37,261.1111111111111
-0.685,-0.375,263.8888888888889
-0.68,-0.37,266.6666666666667
-0.68,-0.365,269.44444444444446
-0.66,-0.36,272.22222222222223
-0.655,-0.36,275.0
-0.645,-0.35,277.77777777777777
-0.655,-0.35,280.55555555555554
-0.63,-0.375,283.3333333333333
-0.64,-0.375,286.1111111111111
-0.63,-0.38,288.8888888888889
-0.64,-0.38,291.6666666666667
-0.65,-0.385,294.44444444444446
-0.65,-0.385,297.22222222222223
-0.66,-0.385,300.0
-0.65,-0.38,302.77777777777777
-0.645,-0.38,305.55555555555554
-0.625,-0.365,308.3333333333333
-0.615,-0.37,311.1111111111111
-0.625,-0.355,313.8888888888889
-0.625,-0.365,316.6666666666667
-0.62,-0.385,319.44444444444446
-0.635,-0.385,322.22222222222223
-0.635,-0.4,325.0
-0.635,-0.405,327.77777777777777
-0.635,-0.405,330.55555555555554
-0.63,-0.4,333.3333333333333
-0.625,-0.395,336.1111111111111
-0.625,-0.395,338.8888888888889
-0.605,-0.38,341.6666666666667
-0.595,-0.37,344.44444444444446
-0.58,-0.38,347.22222222222223
-0.575,-0.37,350.0
-0.565,-0.385,352.77777777777777
-0.57,-0.405,355.55555555555554
-0.565,-0.4,358.3333333333333
-0.575,-0.405,361.1111111111111
-0.565,-0.4,363.8888888888889
-0.55,-0.39,366.6666666666667
-0.55,-0.38,369.44444444444446
-0.535,-0.385,372.22222222222223
-0.52,-0.365,375.0
-0.505,-0.365,377.77777777777777
-0.495,-0.37,380.55555555555554
-0.485,-0.365,383.3333333333333
-0.48,-0.38,386.1111111111111
-0.48,-0.395,388.8888888888889
-0.47,-0.395,391.6666666666667
-0.475,-0.42,394.44444444444446
-0.465,-0.425,397.22222222222223
-0.445,-0.43,400.0
-0.45,-0.435,402.77777777777777
-0.435,-0.435,405.55555555555554
-0.43,-0.445,408.3333333333333
-0.435,-0.45,411.1111111111111
-0.445,-0.47,413.8888888888889
-0.465,-0.465,416.6666666666667
-0.47,-0.47,419.44444444444446
-0.495,-0.475,422.22222222222223
-0.515,-0.475,425.0
-0.53,-0.48,427.77777777777777
-0.55,-0.455,430.55555555555554
-0.55,-0.46,433.3333333333333
-0.575,-0.445,436.1111111111111
-0.56,-0.425,438.8888888888889
-0.565,-0.42,441.6666666666667
-0.565,-0.4,444.44444444444446
-0.575,-0.415,447.22222222222223
-0.6,-0.415,450.0
-0.61,-0.41,452.77777777777777
-0.625,-0.415,455.55555555555554
-0.64,-0.425,458.3333333333333
-0.645,-0.435,461.1111111111111
-0.65,-0.43,463.8888888888889
-0.635,-0.42,466.6666666666667
-0.63,-0.405,469.44444444444446
-0.62,-0.41,472.22222222222223
-0.605,-0.405,475.0
-0.595,-0.405,477.77777777777777
-0.605,-0.405,480.55555555555554
-0.59,-0.415,483.3333333333333
-0.59,-0.42,486.1111111111111
-0.595,-0.435,488.8888888888889
-0.605,-0.43,491.6666666666667
-0.605,-0.445,494.44444444444446
-0.625,-0.45,497.22222222222223
-0.62,-0.435,500.0
-0.595,-0.43,502.77777777777777
-0.585,-0.42,505.55555555555554
-0.58,-0.425,508.3333333333333
-0.565,-0.415,511.1111111111111
-0.555,-0.425,513.8888888888889
-0.55,-0.425,516.6666666666666
-0.545,-0.435,519.4444444444445
-0.52,-0.44,522.2222222222222
-0.505,-0.445,525.0
-0.47,-0.465,527.7777777777778
-0.435,-0.455,530.5555555555555
-0.355,-0.45,533.3333333333334
-0.28,-0.44,536.1111111111111
-0.17,-0.425,538.8888888888889
-0.05,-0.435,541.6666666666666
0.065,-0.435,544.4444444444445
0.24,-0.45,547.2222222222222
0.41,-0.495,550.0
0.615,-0.545,552.7777777777778
0.81,-0.62,555.5555555555555
0.98,-0.73,558.3333333333334
1.115,-0.85,561.1111111111111
1.23,-0.955,563.8888888888889
1.335,-1.08,566.6666666666666
1.445,-1.19,569.4444444444445
1.5,-1.29,572.2222222222222
1.455,-1.41,575.0
1.24,-1.505,577.7777777777778
0.855,-1.6,580.5555555555555
0.405,-1.625,583.3333333333334
-0.06,-1.61,586.1111111111111
-0.45,-1.525,588.8888888888889
-0.71,-1.42,591.6666666666666
-0.84,-1.3,594.4444444444445
-0.87,-1.165,597.2222222222222
-0.82,-1.05,600.0
-0.765,-0.945,602.7777777777778
-0.73,-0.85,605.5555555555555
-0.695,-0.78,608.3333333333334
-0.67,-0.7,611.1111111111111
-0.665,-0.64,613.8888888888889
-0.665,-0.575,616.6666666666666
-0.675,-0.525,619.4444444444445
-0.69,-0.485,622.2222222222222
-0.705,-0.47,625.0
-0.72,-0.455,627.7777777777778
-0.72,-0.455,630.5555555555555
-0.725,-0.45,633.3333333333334
-0.74,-0.445,636.1111111111111
-0.725,-0.42,638.8888888888889
-0.71,-0.415,641.6666666666666
-0.71,-0.395,644.4444444444445
-0.735,-0.395,647.2222222222222
-0.725,-0.395,650.0
-0.72,-0.42,652.7777777777778
-0.73,-0.42,655.5555555555555
-0.735,-0.42,658.3333333333334
-0.75,-0.43,661.1111111111111
-0.745,-0.425,663.8888888888889
-0.755,-0.41,666.6666666666666
-0.765,-0.41,669.4444444444445
-0.76,-0.4,672.2222222222222
-0.755,-0.4,675.0
-0.76,-0.39,677.7777777777778
-0.75,-0.385,680.5555555555555
-0.765,-0.38,683.3333333333334
-0.765,-0.395,686.1111111111111
-0.77,-0.4,688.8888888888889
-0.77,-0.405,691.6666666666666
-0.785,-0.4,694.4444444444445
-0.775,-0.39,697.2222222222222
-0.775,-0.4,700.0
-0.775,-0.38,702.7777777777778
-0.775,-0.38,705.5555555555555
-0.775,-0.375,708.3333333333334
-0.775,-0.365,711.1111111111111
-0.77,-0.35,713.8888888888889
-0.77,-0.365,716.6666666666666
-0.78,-0.375,719.4444444444445
-0.785,-0.38,722.2222222222222
-0.795,-0.395,725.0
-0.81,-0.38,727.7777777777778
-0.82,-0.385,730.5555555555555
-0.825,-0.375,733.3333333333334
-0.815,-0.37,736.1111111111111
-0.815,-0.365,738.8888888888889
-0.81,-0.36,741.6666666666666
-0.805,-0.35,744.4444444444445
-0.8,-0.355,747.2222222222222
-0.815,-0.36,750.0
-0.82,-0.355,752.7777777777778
-0.825,-0.37,755.5555555555555
-0.84,-0.37,758.3333333333334
-0.845,-0.37,761.1111111111111
-0.865,-0.355,763.8888888888889
-0.86,-0.355,766.6666666666666
-0.875,-0.355,769.4444444444445
-0.855,-0.34,772.2222222222222
-0.855,-0.32,775.0
-0.86,-0.32,777.7777777777778
-0.855,-0.32,780.5555555555555
-0.86,-0.315,783.3333333333334
-0.87,-0.315,786.1111111111111
-0.89,-0.315,788.8888888888889
-0.9,-0.315,791.6666666666666
-0.9,-0.315,794.4444444444445
-0.895,-0.325,797.2222222222222
-0.895,-0.315,800.0
-0.91,-0.285,802.7777777777778
-0.905,-0.29,805.5555555555555
-0.89,-0.275,808.3333333333334
-0.885,-0.25,811.1111111111111
-0.865,-0.26,813.8888888888889
-0.87,-0.245,816.6666666666666
-0.88,-0.245,819.4444444444445
-0.885,-0.255,822.2222222222222
-0.89,-0.25,825.0
-0.9,-0.265,827.7777777777778
-0.88,-0.26,830.5555555555555
-0.875,-0.255,833.3333333333334
-0.865,-0.24,836.1111111111111
-0.84,-0.23,838.8888888888889
-0.83,-0.22,841.6666666666666
-0.805,-0.22,844.4444444444445
-0.795,-0.23,847.2222222222222
-0.775,-0.24,850.0
-0.76,-0.25,852.7777777777778
-0.76,-0.25,855.5555555555555
-0.75,-0.26,858.3333333333334
-0.74,-0.27,861.1111111111111
-0.73,-0.275,863.8888888888889
-0.725,-0.275,866.6666666666666
-0.7,-0.27,869.4444444444445
-0.685,-0.27,872.2222222222222
-0.655,-0.275,875.0
-0.645,-0.265,877.7777777777778
-0.635,-0.28,880.5555555555555
-0.63,-0.3,883.3333333333334
-0.61,-0.31,886.1111111111111
-0.61,-0.32,888.8888888888889
-0.615,-0.335,891.6666666666666
-0.615,-0.345,894.4444444444445
-0.62,-0.355,897.2222222222222
-0.625,-0.355,900.0
-0.62,-0.36,902.7777777777778
-0.6,-0.35,905.5555555555555
-0.595,-0.36,908.3333333333334
-0.575,-0.355,911.1111111111111
-0.58,-0.365,913.8888888888889
-0.58,-0.37,916.6666666666666
-0.595,-0.38,919.4444444444445
-0.59,-0.39,922.2222222222222
-0.585,-0.41,925.0
-0.595,-0.41,927.7777777777778
-0.59,-0.405,930.5555555555555
-0.595,-0.4,933.3333333333334
-0.605,-0.395,936.1111111111111
-0.59,-0.4,938.8888888888889
-0.605,-0.395,941.6666666666666
-0.59,-0.395,944.4444444444445
-0.595,-0.385,947.2222222222222
-0.59,-0.4,950.0
-0.605,-0.41,952.7777777777778
-0.6,-0.415,955.5555555555555
-0.61,-0.425,958.3333333333334
-0.61,-0.425,961.1111111111111
-0.61,-0.43,963.8888888888889
-0.61,-0.42,966.6666666666666
-0.61,-0.415,969.4444444444445
-0.62,-0.415,972.2222222222222
-0.615,-0.405,975.0
-0.61,-0.41,977.7777777777778
-0.6,-0.415,980.5555555555555
-0.605,-0.415,983.3333333333334
-0.63,-0.41,986.1111111111111
-0.625,-0.415,988.8888888888889
-0.64,-0.43,991.6666666666666
-0.645,-0.44,994.4444444444445
-0.645,-0.435,997.2222222222222
-0.64,-0.435,1000.0
-0.63,-0.425,1002.7777777777778
-0.635,-0.405,1005.5555555555555
-0.625,-0.4,1008.3333333333334
-0.625,-0.395,1011.1111111111111
-0.61,-0.405,1013.8888888888889
-0.62,-0.4,1016.6666666666666
-0.62,-0.42,1019.4444444444445
-0.62,-0.42,1022.2222222222222
-0.645,-0.415,1025.0
-0.65,-0.42,1027.7777777777778
-0.66,-0.425,1030.5555555555557
-0.65,-0.42,1033.3333333333333
-0.655,-0.41,1036.111111111111
-0.63,-0.395,1038.888888888889
-0.615,-0.4,1041.6666666666667
-0.61,-0.39,1044.4444444444443
-0.61,-0.41,1047.2222222222222
-0.605,-0.405,1050.0
-0.61,-0.4,1052.7777777777778
-0.615,-0.42,1055.5555555555557
-0.62,-0.42,1058.3333333333333
-0.62,-0.425,1061.111111111111
-0.63,-0.43,1063.888888888889
-0.635,-0.425,1066.6666666666667
-0.625,-0.41,1069.4444444444443
-0.605,-0.405,1072.2222222222222
-0.585,-0.405,1075.0
-0.58,-0.4,1077.7777777777778
-0.58,-0.405,1080.5555555555557
-0.59,-0.41,1083.3333333333333
-0.59,-0.41,1086.111111111111
-0.59,-0.425,1088.888888888889
-0.585,-0.42,1091.6666666666667
-0.605,-0.43,1094.4444444444443
-0.595,-0.43,1097.2222222222222
-0.605,-0.425,1100.0
-0.6,-0.415,1102.7777777777778
-0.6,-0.4,1105.5555555555557
-0.59,-0.415,1108.3333333333333
-0.575,-0.395,1111.111111111111
-0.56,-0.41,1113.888888888889
-0.565,-0.405,1116.6666666666667
-0.55,-0.415,1119.4444444444443
-0.55,-0.42,1122.2222222222222
-0.56,-0.435,1125.0
-0.56,-0.43,1127.7777777777778
-0.57,-0.43,1130.5555555555557
-0.555,-0.42,1133.3333333333333
-0.545,-0.43,1136.111111111111
-0.535,-0.41,1138.888888888889
-0.525,-0.41,1141.6666666666667
-0.515,-0.395,1144.4444444444443
-0.515,-0.39,1147.2222222222222
-0.505,-0.395,1150.0
-0.51,-0.4,1152.7777777777778
-0.495,-0.41,1155.5555555555557
-0.5,-0.41,1158.3333333333333
-0.5,-0.415,1161.111111111111
-0.49,-0.41,1163.888888888889
-0.475,-0.4,1166.6666666666667
-0.455,-0.405,1169.4444444444443
-0.44,-0.395,1172.2222222222222
-0.43,-0.39,1175.0
-0.425,-0.4,1177.7777777777778
-0.395,-0.41,1180.5555555555557
-0.385,-0.43,1183.3333333333333
-0.4,-0.46,1186.111111111111
-0.4,-0.475,1188.888888888889
-0.42,-0.5,1191.6666666666667
-0.445,-0.51,1194.4444444444443
-0.455,-0.515,1197.2222222222222
-0.47,-0.49,1200.0
-0.485,-0.485,1202.7777777777778
-0.49,-0.465,1205.5555555555557
-0.52,-0.445,1208.3333333333333
-0.525,-0.43,1211.111111111111
-0.525,-0.43,1213.888888888889
-0.545,-0.435,1216.6666666666667
-0.56,-0.435,1219.4444444444443
-0.58,-0.43,1222.2222222222222
-0.6,-0.435,1225.0
-0.625,-0.445,1227.7777777777778
-0.645,-0.435,1230.5555555555557
-0.62,-0.43,1233.3333333333333
-0.63,-0.435,1236.111111111111
-0.61,-0.43,1238.888888888889
-0.615,-0.415,1241.6666666666667
-0.6,-0.41,1244.4444444444443
-0.595,-0.41,1247.2222222222222
-0.595,-0.415,1250.0
-0.585,-0.41,1252.7777777777778
-0.6,-0.44,1255.5555555555557
-0.61,-0.445,1258.3333333333333
-0.62,-0.455,1261.111111111111
-0.61,-0.45,1263.888888888889
-0.605,-0.45,1266.6666666666667
-0.6,-0.435,1269.4444444444443
-0.6,-0.43,1272.2222222222222
-0.585,-0.435,1275.0
-0.57,-0.42,1277.7777777777778
-0.545,-0.435,1280.5555555555557
-0.535,-0.445,1283.3333333333333
-0.525,-0.445,1286.111111111111
-0.49,-0.445,1288.888888888889
-0.47,-0.465,1291.6666666666667
-0.41,-0.47,1294.4444444444443
-0.335,-0.475,1297.2222222222222
-0.255,-0.465,1300.0
-0.145,-0.45,1302.7777777777778
-0.015,-0.46,1305.5555555555557
0.11,-0.45,1308.3333333333333
0.28,-0.465,1311.111111111111
0.43,-0.505,1313.888888888889
0.6,-0.545,1316.6666666666667
0.78,-0.605,1319.4444444444443
0.93,-0.685,1322.2222222222222
1.065,-0.79,1325.0
1.165,-0.89,1327.7777777777778
1.25,-0.995,1330.5555555555557
1.325,-1.085,1333.3333333333333
1.405,-1.17,1336.111111111111
1.445,-1.275,1338.888888888889
1.445,-1.36,1341.6666666666667
1.325,-1.465,1344.4444444444443
1.075,-1.56,1347.2222222222222
0.71,-1.63,1350.0
0.29,-1.66,1352.7777777777778
-0.1,-1.65,1355.5555555555557
-0.425,-1.585,1358.3333333333333
-0.65,-1.475,1361.111111111111
-0.765,-1.345,1363.888888888889
-0.78,-1.22,1366.6666666666667
-0.77,-1.105,1369.4444444444443
-0.735,-1.0,1372.2222222222222
-0.725,-0.925,1375.0
-0.695,-0.85,1377.7777777777778
-0.69,-0.79,1380.5555555555557
-0.69,-0.75,1383.3333333333333
-0.68,-0.685,1386.111111111111
-0.69,-0.615,1388.888888888889
-0.69,-0.565,1391.6666666666667
-0.71,-0.515,1394.4444444444443
-0.71,-0.495,1397.2222222222222
-0.72,-0.455,1400.0
-0.73,-0.45,1402.7777777777778
-0.725,-0.44,1405.5555555555557
-0.715,-0.43,1408.3333333333333
-0.715,-0.435,1411.111111111111
-0.71,-0.42,1413.888888888889
-0.715,-0.42,1416.6666666666667
-0.725,-0.41,1419.4444444444443
-0.725,-0.42,1422.2222222222222
-0.74,-0.425,1425.0
-0.745,-0.435,1427.7777777777778
-0.755,-0.415,1430.5555555555557
-0.76,-0.42,1433.3333333333333
-0.765,-0.41,1436.111111111111
-0.745,-0.39,1438.888888888889
-0.75,-0.385,1441.6666666666667
-0.745,-0.38,1444.4444444444443
-0.745,-0.375,1447.2222222222222
-0.755,-0.385,1450.0
-0.745,-0.39,1452.7777777777778
-0.76,-0.4,1455.5555555555557
-0.775,-0.4,1458.3333333333333
-0.77,-0.4,1461.111111111111
-0.785,-0.4,1463.888888888889
-0.79,-0.395,1466.6666666666667
-0.775,-0.39,1469.4444444444443
-0.78,-0.385,1472.2222222222222
-0.76,-0.37,1475.0
-0.765,-0.365,1477.7777777777778
-0.77,-0.365,1480.5555555555557
-0.775,-0.375,1483.3333333333333
-0.765,-0.37,1486.111111111111
-0.79,-0.37,1488.888888888889
-0.785,-0.385,1491.6666666666667
-0.795,-0.385,1494.4444444444443
-0.795,-0.385,1497.2222222222222
-0.79,-0.38,1500.0
-0.805,-0.365,1502.7777777777778
-0.785,-0.365,1505.5555555555557
-0.795,-0.35,1508.3333333333333
-0.79,-0.35,1511.111111111111
-0.79,-0.345,1513.888888888889
-0.795,-0.355,1516.6666666666667
-0.8,-0.35,1519.4444444444443
-0.81,-0.355,1522.2222222222222
-0.82,-0.365,1525.0
-0.825,-0.365,1527.7777777777778
-0.83,-0.365,1530.5555555555557
-0.845,-0.35,1533.3333333333333
-0.845,-0.355,1536.111111111111
-0.84,-0.335,1538.888888888889
-0.835,-0.325,1541.6666666666667
-0.83,-0.315,1544.4444444444443
-0.83,-0.315,1547.2222222222222
-0.84,-0.32,1550.0
-0.85,-0.325,1552.7777777777778
-0.865,-0.32,1555.5555555555557
-0.875,-0.33,1558.3333333333333
-0.9,-0.32,1561.111111111111
-0.9,-0.32,1563.888888888889
-0.89,-0.31,1566.6666666666667
-0.885,-0.31,1569.4444444444443
-0.885,-0.28,1572.2222222222222
-0.88,-0.265,1575.0
-0.87,-0.265,1577.7777777777778
-0.88,-0.255,1580.5555555555557
-0.875,-0.25,1583.3333333333333
-0.865,-0.26,1586.111111111111
-0.885,-0.265,1588.888888888889
-0.885,-0.26,1591.6666666666667
-0.885,-0.26,1594.4444444444443
-0.89,-0.245,1597.2222222222222
-0.885,-0.245,1600.0
-0.87,-0.225,1602.7777777777778
-0.87,-0.215,1605.5555555555557
-0.85,-0.225,1608.3333333333333
-0.835,-0.2,1611.111111111111
-0.825,-0.22,1613.888888888889
-0.805,-0.22,1616.6666666666667
-0.79,-0.22,1619.4444444444443
-0.785,-0.23,1622.2222222222222
-0.76,-0.235,1625.0
-0.77,-0.245,1627.7777777777778
-0.745,-0.245,1630.5555555555557
-0.73,-0.245,1633.3333333333333
-0.72,-0.25,1636.111111111111
-0.7,-0.245,1638.888888888889
-0.68,-0.25,1641.6666666666667
-0.66,-0.245,1644.4444444444443
-0.645,-0.255,1647.2222222222222
-0.65,-0.26,1650.0
-0.63,-0.27,1652.7777777777778
-0.64,-0.295,1655.5555555555557
-0.63,-0.305,1658.3333333333333
-0.63,-0.32,1661.111111111111
-0.64,-0.315,1663.888888888889
-0.625,-0.325,1666.6666666666667
-0.63,-0.325,1669.4444444444443
-0.61,-0.315,1672.2222222222222
-0.605,-0.315,1675.0
-0.59,-0.33,1677.7777777777778
-0.585,-0.325,1680.5555555555557
-0.585,-0.33,1683.3333333333333
-0.59,-0.335,1686.111111111111
-0.585,-0.355,1688.888888888889
-0.605,-0.37,1691.6666666666667
-0.61,-0.375,1694.4444444444443
-0.625,-0.37,1697.2222222222222
-0.615,-0.37,1700.0
-0.605,-0.365,1702.7777777777778
-0.6,-0.37,1705.5555555555557
-0.6,-0.365,1708.3333333333333
-0.595,-0.375,1711.111111111111
-0.585,-0.375,1713.888888888889
-0.595,-0.39,1716.6666666666667
-0.605,-0.38,1719.4444444444443
-0.61,-0.39,1722.2222222222222
-0.615,-0.39,1725.0
-0.605,-0.41,1727.7777777777778
-0.615,-0.41,1730.5555555555557
-0.635,-0.425,1733.3333333333333
-0.625,-0.395,1736.111111111111
-0.62,-0.395,1738.888888888889
-0.62,-0.385,1741.6666666666667
-0.61,-0.385,1744.4444444444443
-0.595,-0.375,1747.2222222222222
-0.6,-0.385,1750.0
-0.605,-0.395,1752.7777777777778
-0.625,-0.395,1755.5555555555557
-0.625,-0.41,1758.3333333333333
-0.65,-0.41,1761.111111111111
-0.65,-0.42,1763.888888888889
-0.655,-0.415,1766.6666666666667
-0.64,-0.4,1769.4444444444443
-0.65,-0.395,1772.2222222222222
-0.64,-0.39,1775.0
-0.645,-0.38,1777.7777777777778
-0.62,-0.385,1780.5555555555557
-0.62,-0.38,1783.3333333333333
-0.64,-0.385,1786.111111111111
-0.64,-0.395,1788.888888888889
-0.635,-0.4,1791.6666666666667
-0.645,-0.395,1794.4444444444443
-0.655,-0.39,1797.2222222222222
-0.655,-0.395,1800.0
-0.665,-0.39,1802.7777777777778
-0.675,-0.39,1805.5555555555557
-0.66,-0.375,1808.3333333333333
-0.66,-0.37,1811.111111111111
-0.655,-0.37,1813.888888888889
-0.64,-0.385,1816.6666666666667
-0.64,-0.39,1819.4444444444443
-0.645,-0.395,1822.2222222222222
-0.665,-0.39,1825.0
-0.665,-0.395,1827.7777777777778
-0.665,-0.4,1830.5555555555557
-0.65,-0.4,1833.3333333333333
-0.66,-0.385,1836.111111111111
-0.645,-0.38,1838.888888888889
-0.63,-0.37,1841.6666666666667
-0.62,-0.37,1844.4444444444443
-0.61,-0.365,1847.2222222222222
-0.61,-0.38,1850.0
-0.61,-0.375,1852.7777777777778
-0.61,-0.385,1855.5555555555557
-0.615,-0.395,1858.3333333333333
-0.615,-0.385,1861.111111111111
-0.61,-0.39,1863.888888888889
-0.62,-0.39,1866.6666666666667
-0.61,-0.385,1869.4444444444443
-0.615,-0.385,1872.2222222222222
-0.61,-0.38,1875.0
-0.59,-0.355,1877.7777777777778
-0.585,-0.365,1880.5555555555557
-0.59,-0.37,1883.3333333333333
-0.575,-0.365,1886.111111111111
-0.575,-0.38,1888.888888888889
-0.58,-0.405,1891.6666666666667
-0.58,-0.41,1894.4444444444443
-0.58,-0.395,1897.2222222222222
-0.575,-0.39,1900.0
-0.56,-0.38,1902.7777777777778
-0.555,-0.375,1905.5555555555557
-0.545,-0.36,1908.3333333333333
-0.53,-0.355,1911.111111111111
-0.525,-0.355,1913.888888888889
-0.525,-0.37,1916.6666666666667
-0.52,-0.365,1919.4444444444443
-0.51,-0.37,1922.2222222222222
-0.52,-0.38,1925.0
-0.52,-0.38,1927.7777777777778
-0.52,-0.375,1930.5555555555557
-0.5,-0.375,1933.3333333333333
-0.49,-0.365,1936.111111111111
-0.48,-0.35,1938.888888888889
-0.465,-0.345,1941.6666666666667
-0.44,-0.355,1944.4444444444443
-0.425,-0.37,1947.2222222222222
-0.415,-0.375,1950.0
-0.415,-0.38,1952.7777777777778
-0.41,-0.415,1955.5555555555557
-0.42,-0.43,1958.3333333333333
-0.43,-0.45,1961.111111111111
-0.44,-0.465,1963.888888888889
-0.445,-0.46,1966.6666666666667
-0.445,-0.465,1969.4444444444443
-0.455,-0.46,1972.2222222222222
-0.455,-0.455,1975.0
-0.465,-0.435,1977.7777777777778
-0.475,-0.43,1980.5555555555557
-0.49,-0.43,1983.3333333333333
-0.51,-0.42,1986.111111111111
-0.515,-0.42,1988.888888888889
-0.535,-0.425,1991.6666666666667
-0.555,-0.425,1994.4444444444443
-0.56,-0.425,1997.2222222222222
-0.58,-0.415,2000.0
-0.605,-0.4,2002.7777777777778
-0.595,-0.4,2005.5555555555557
-0.605,-0.39,2008.3333333333333
-0.595,-0.37,2011.111111111111
-0.6,-0.385,2013.888888888889
-0.605,-0.385,2016.6666666666667
-0.6,-0.395,2019.4444444444443
-0.61,-0.39,2022.2222222222222
-0.625,-0.395,2025.0
-0.63,-0.405,2027.7777777777778
-0.615,-0.415,2030.5555555555557
-0.615,-0.405,2033.3333333333333
-0.605,-0.4,2036.111111111111
-0.6,-0.4,2038.888888888889
-0.59,-0.395,2041.6666666666667
-0.585,-0.385,2044.4444444444443
-0.57,-0.395,2047.2222222222222
-0.575,-0.395,2050.0
-0.565,-0.395,2052.777777777778
-0.555,-0.4,2055.5555555555557
-0.55,-0.41,2058.3333333333335
-0.54,-0.425,2061.1111111111113
-0.525,-0.42,2063.8888888888887
-0.505,-0.415,2066.6666666666665
-0.455,-0.42,2069.4444444444443
-0.4,-0.41,2072.222222222222
-0.32,-0.405,2075.0
-0.235,-0.405,2077.777777777778
-0.125,-0.385,2080.5555555555557
-0.005,-0.405,2083.3333333333335
0.13,-0.42,2086.1111111111113
0.295,-0.45,2088.8888888888887
0.47,-0.51,2091.6666666666665
0.675,-0.56,2094.4444444444443
0.875,-0.64,2097.222222222222
1.03,-0.74,2100.0
1.175,-0.845,2102.777777777778
1.275,-0.96,2105.5555555555557
1.355,-1.07,2108.3333333333335
1.425,-1.165,2111.1111111111113
1.445,-1.29,2113.8888888888887
1.37,-1.395,2116.6666666666665
1.185,-1.51,2119.4444444444443
0.885,-1.59,2122.222222222222
0.525,-1.655,2125.0
0.145,-1.675,2127.777777777778
-0.2,-1.645,2130.5555555555557
-0.465,-1.55,2133.3333333333335
-0.635,-1.45,2136.1111111111113
-0.715,-1.31,2138.8888888888887
-0.74,-1.195,2141.6666666666665
-0.72,-1.085,2144.4444444444443
-0.71,-0.99,2147.222222222222
-0.7,-0.925,2150.0
-0.7,-0.865,2152.777777777778
-0.7,-0.82,2155.5555555555557
-0.705,-0.765,2158.3333333333335
-0.695,-0.705,2161.1111111111113
-0.69,-0.655,2163.8888888888887
-0.69,-0.58,2166.6666666666665
-0.68,-0.525,2169.4444444444443
-0.685,-0.475,2172.222222222222
-0.68,-0.435,2175.0
-0.685,-0.395,2177.777777777778
-0.69,-0.39,2180.5555555555557
-0.695,-0.39,2183.3333333333335
-0.705,-0.405,2186.1111111111113
-0.7,-0.405,2188.8888888888887
-0.695,-0.395,2191.6666666666665
-0.73,-0.405,2194.4444444444443
-0.735,-0.405,2197.222222222222
-0.735,-0.375,2200.0
-0.745,-0.37,2202.777777777778
-0.74,-0.36,2205.5555555555557
-0.73,-0.36,2208.3333333333335
-0.74,-0.35,2211.1111111111113
-0.72,-0.365,2213.8888888888887
-0.735,-0.36,2216.6666666666665
-0.725,-0.37,2219.4444444444443
-0.73,-0.375,2222.222222222222
-0.74,-0.375,2225.0
-0.745,-0.375,2227.777777777778
-0.76,-0.375,2230.5555555555557
-0.755,-0.37,2233.3333333333335
-0.75,-0.36,2236.1111111111113
-0.76,-0.35,2238.8888888888887
-0.75,-0.345,2241.6666666666665
-0.75,-0.33,2244.4444444444443
-0.74,-0.345,2247.222222222222
-0.75,-0.335,2250.0
-0.745,-0.345,2252.777777777778
-0.76,-0.345,2255.5555555555557
-0.77,-0.355,2258.3333333333335
-0.785,-0.355,2261.1111111111113
-0.795,-0.355,2263.8888888888887
-0.795,-0.345,2266.6666666666665
-0.79,-0.345,2269.4444444444443
-0.79,-0.325,2272.222222222222
-0.785,-0.32,2275.0
-0.775,-0.315,2277.777777777778
-0.78,-0.305,2280.5555555555557
-0.78,-0.32,2283.3333333333335
-0.785,-0.33,2286.1111111111113
-0.79,-0.335,2288.8888888888887
-0.815,-0.33,2291.6666666666665
-0.815,-0.33,2294.4444444444443
-0.835,-0.33,2297.222222222222
-0.825,-0.325,2300.0
-0.83,-0.315,2302.777777777778
-0.825,-0.31,2305.5555555555557
-0.825,-0.285,2308.3333333333335
-0.82,-0.285,2311.1111111111113
-0.82,-0.28,2313.8888888888887
-0.83,-0.285,2316.6666666666665
-0.825,-0.285,2319.4444444444443
-0.835,-0.285,2322.222222222222
-0.845,-0.29,2325.0
-0.855,-0.285,2327.777777777778
-0.865,-0.285,2330.5555555555557
-0.875,-0.265,2333.3333333333335
-0.86,-0.26,2336.1111111111113
-0.86,-0.255,2338.8888888888887
-0.87,-0.25,2341.6666666666665
-0.865,-0.225,2344.4444444444443
-0.865,-0.22,2347.222222222222
-0.85,-0.23,2350.0
-0.86,-0.23,2352.777777777778
-0.865,-0.22,2355.5555555555557
-0.875,-0.22,2358.3333333333335
-0.87,-0.225,2361.1111111111113
-0.865,-0.235,2363.8888888888887
-0.87,-0.22,2366.6666666666665
-0.865,-0.205,2369.4444444444443
-0.86,-0.175,2372.222222222222
-0.85,-0.18,2375.0
-0.84,-0.17,2377.777777777778
-0.835,-0.16,2380.5555555555557
-0.82,-0.175,2383.3333333333335
-0.815,-0.175,2386.1111111111113
-0.81,-0.19,2388.8888888888887
-0.8,-0.19,2391.6666666666665
-0.795,-0.2,2394.4444444444443
-0.79,-0.185,2397.222222222222
-0.77,-0.18,2400.0
-0.76,-0.19,2402.777777777778
-0.75,-0.185,2405.5555555555557
-0.735,-0.19,2408.3333333333335
-0.715,-0.17,2411.1111111111113
-0.68,-0.175,2413.8888888888887
-0.67,-0.2,2416.6666666666665
-0.665,-0.21,2419.4444444444443
-0.655,-0.215,2422.222222222222
-0.645,-0.23,2425.0
-0.64,-0.24,2427.777777777778
-0.645,-0.245,2430.5555555555557
-0.64,-0.25,2433.3333333333335
-0.625,-0.245,2436.1111111111113
-0.61,-0.25,2438.8888888888887
-0.595,-0.26,2441.6666666666665
-0.6,-0.245,2444.4444444444443
-0.585,-0.26,2447.222222222222
-0.58,-0.275,2450.0
-0.58,-0.295,2452.777777777778
-0.595,-0.3,2455.5555555555557
-0.595,-0.315,2458.3333333333335
-0.59,-0.305,2461.1111111111113
-0.58,-0.33,2463.8888888888887
-0.585,-0.335,2466.6666666666665
-0.58,-0.325,2469.4444444444443
-0.575,-0.31,2472.222222222222
-0.575,-0.315,2475.0
-0.56,-0.3,2477.777777777778
-0.555,-0.32,2480.5555555555557
-0.57,-0.32,2483.3333333333335
-0.565,-0.335,2486.1111111111113
-0.58,-0.35,2488.8888888888887
-0.59,-0.35,2491.6666666666665
-0.595,-0.355,2494.4444444444443
-0.6,-0.365,2497.222222222222
-0.59,-0.36,2500.0
-0.605,-0.36,2502.777777777778
-0.595,-0.34,2505.5555555555557
-0.585,-0.35,2508.3333333333335
-0.58,-0.34,2511.1111111111113
-0.58,-0.355,2513.8888888888887
-0.58,-0.345,2516.6666666666665
-0.595,-0.355,2519.4444444444443
-0.6,-0.355,2522.222222222222
-0.6,-0.375,2525.0
-0.605,-0.375,2527.777777777778
-0.615,-0.37,2530.5555555555557
-0.62,-0.365,2533.3333333333335
-0.615,-0.35,2536.1111111111113
-0.6,-0.35,2538.8888888888887
-0.605,-0.345,2541.6666666666665
-0.605,-0.335,2544.4444444444443
-0.585,-0.34,2547.222222222222
-0.595,-0.35,2550.0
-0.605,-0.35,2552.777777777778
-0.615,-0.36,2555.5555555555557
-0.615,-0.365,2558.3333333333335
-0.62,-0.355,2561.1111111111113
-0.62,-0.37,2563.8888888888887
-0.625,-0.355,2566.6666666666665
-0.62,-0.36,2569.4444444444443
-0.62,-0.35,2572.222222222222
-0.61,-0.34,2575.0
-0.605,-0.33,2577.777777777778
-0.6,-0.33,2580.5555555555557
-0.61,-0.335,2583.3333333333335
-0.61,-0.345,2586.1111111111113
-0.62,-0.34,2588.8888888888887
-0.62,-0.335,2591.6666666666665
-0.63,-0.35,2594.4444444444443
-0.63,-0.36,2597.222222222222
-0.64,-0.345,2600.0
-0.625,-0.335,2602.777777777778
-0.615,-0.325,2605.5555555555557
-0.605,-0.325,2608.3333333333335
-0.6,-0.315,2611.1111111111113
-0.59,-0.32,2613.8888888888887
-0.59,-0.325,2616.6666666666665
-0.595,-0.33,2619.4444444444443
-0.595,-0.335,2622.222222222222
-0.595,-0.345,2625.0
-0.595,-0.345,2627.777777777778
-0.595,-0.355,2630.5555555555557
-0.59,-0.34,2633.3333333333335
-0.59,-0.345,2636.1111111111113
-0.58,-0.34,2638.8888888888887
-0.59,-0.32,2641.6666666666665
-0.565,-0.315,2644.4444444444443
-0.565,-0.325,2647.222222222222
-0.56,-0.325,2650.0
-0.55,-0.33,2652.777777777778
-0.555,-0.335,2655.5555555555557
-0.57,-0.335,2658.3333333333335
-0.585,-0.345,2661.1111111111113
-0.57,-0.355,2663.8888888888887
-0.565,-0.33,2666.6666666666665
-0.55,-0.33,2669.4444444444443
-0.55,-0.33,2672.222222222222
-0.53,-0.325,2675.0
-0.505,-0.3,2677.777777777778
-0.5,-0.305,2680.5555555555557
-0.49,-0.315,2683.3333333333335
-0.495,-0.315,2686.1111111111113
-0.5,-0.31,2688.8888888888887
-0.495,-0.32,2691.6666666666665
-0.51,-0.315,2694.4444444444443
-0.52,-0.32,2697.222222222222
-0.5,-0.32,2700.0
-0.485,-0.31,2702.777777777778
-0.47,-0.29,2705.5555555555557
-0.46,-0.285,2708.3333333333335
-0.455,-0.28,2711.1111111111113
-0.425,-0.275,2713.8888888888887
-0.41,-0.285,2716.6666666666665
-0.395,-0.29,2719.4444444444443
-0.4,-0.3,2722.222222222222
-0.395,-0.32,2725.0
-0.4,-0.335,2727.777777777778
-0.395,-0.335,2730.5555555555557
-0.4,-0.35,2733.3333333333335
-0.395,-0.36,2736.1111111111113
-0.415,-0.355,2738.8888888888887
-0.405,-0.37,2741.6666666666665
-0.395,-0.37,2744.4444444444443
-0.4,-0.355,2747.222222222222
-0.415,-0.365,2750.0
-0.44,-0.345,2752.777777777778
-0.455,-0.35,2755.5555555555557
-0.475,-0.36,2758.3333333333335
-0.49,-0.335,2761.1111111111113
-0.51,-0.34,2763.8888888888887
-0.535,-0.315,2766.6666666666665
-0.54,-0.33,2769.4444444444443
-0.54,-0.32,2772.222222222222
-0.545,-0.295,2775.0
-0.55,-0.295,2777.777777777778
-0.56,-0.305,2780.5555555555557
-0.575,-0.295,2783.3333333333335
-0.58,-0.305,2786.1111111111113
-0.575,-0.31,2788.8888888888887
-0.585,-0.31,2791.6666666666665
-0.585,-0.315,2794.4444444444443
-0.59,-0.305,2797.222222222222
-0.59,-0.315,2800.0
-0.575,-0.305,2802.777777777778
-0.58,-0.295,2805.5555555555557
-0.58,-0.305,2808.3333333333335
-0.555,-0.295,2811.1111111111113
-0.555,-0.295,2813.8888888888887
-0.535,-0.285,2816.6666666666665
-0.54,-0.31,2819.4444444444443
-0.545,-0.32,2822.222222222222
-0.54,-0.325,2825.0
-0.53,-0.34,2827.777777777778
-0.53,-0.335,2830.5555555555557
-0.495,-0.325,2833.3333333333335
-0.47,-0.32,2836.1111111111113
-0.425,-0.3,2838.8888888888887
-0.345,-0.3,2841.6666666666665
-0.225,-0.3,2844.4444444444443
-0.095,-0.3,2847.222222222222
0.055,-0.32,2850.0
0.23,-0.335,2852.777777777778
0.42,-0.375,2855.5555555555557
0.625,-0.415,2858.3333333333335
0.82,-0.49,2861.1111111111113
0.99,-0.57,2863.8888888888887
1.125,-0.685,2866.6666666666665
1.22,-0.785,2869.4444444444443
1.295,-0.91,2872.222222222222
1.37,-1.005,2875.0
1.4,-1.115,2877.777777777778
1.345,-1.24,2880.5555555555557
1.18,-1.345,2883.3333333333335
0.87,-1.445,2886.1111111111113
0.475,-1.505,2888.8888888888887
0.06,-1.525,2891.6666666666665
-0.3,-1.485,2894.4444444444443
-0.58,-1.38,2897.222222222222
-0.73,-1.255,2900.0
-0.8,-1.12,2902.777777777778
-0.78,-0.985,2905.5555555555557
-0.75,-0.875,2908.3333333333335
-0.715,-0.795,2911.1111111111113
-0.675,-0.73,2913.8888888888887
-0.655,-0.665,2916.6666666666665
-0.645,-0.595,2919.4444444444443
-0.65,-0.535,2922.222222222222
-0.655,-0.475,2925.0
-0.65,-0.42,2927.777777777778
-0.655,-0.355,2930.5555555555557
-0.665,-0.33,2933.3333333333335
-0.675,-0.29,2936.1111111111113
-0.675,-0.28,2938.8888888888887
-0.675,-0.27,2941.6666666666665
-0.67,-0.27,2944.4444444444443
-0.665,-0.275,2947.222222222222
-0.665,-0.28,2950.0
-0.66,-0.27,2952.777777777778
-0.685,-0.275,2955.5555555555557
-0.69,-0.265,2958.3333333333335
-0.71,-0.27,2961.1111111111113
-0.695,-0.255,2963.8888888888887
-0.7,-0.255,2966.6666666666665
-0.7,-0.25,2969.4444444444443
-0.69,-0.235,2972.222222222222
-0.695,-0.225,2975.0
-0.7,-0.23,2977.777777777778
-0.7,-0.23,2980.5555555555557
-0.695,-0.23,2983.3333333333335
-0.705,-0.245,2986.1111111111113
-0.705,-0.245,2988.8888888888887
-0.715,-0.245,2991.6666666666665
-0.73,-0.26,2994.4444444444443
-0.735,-0.24,2997.222222222222
-0.73,-0.23,3000.0
-0.725,-0.225,3002.777777777778
-0.72,-0.215,3005.5555555555557
-0.74,-0.21,3008.3333333333335
-0.74,-0.2,3011.1111111111113
-0.735,-0.215,3013.8888888888887
-0.73,-0.215,3016.6666666666665
-0.725,-0.225,3019.4444444444443
-0.735,-0.215,3022.222222222222
-0.735,-0.235,3025.0
-0.75,-0.23,3027.777777777778
-0.75,-0.205,3030.5555555555557
-0.75,-0.215,3033.3333333333335
-0.75,-0.21,3036.1111111111113
-0.76,-0.195,3038.8888888888887
-0.755,-0.19,3041.6666666666665
-0.755,-0.19,3044.4444444444443
-0.755,-0.19,3047.222222222222
-0.765,-0.19,3050.0
-0.77,-0.2,3052.777777777778
-0.785,-0.205,3055.5555555555557
-0.795,-0.2,3058.3333333333335
-0.8,-0.205,3061.1111111111113
-0.805,-0.195,3063.8888888888887
-0.81,-0.19,3066.6666666666665
-0.82,-0.18,3069.4444444444443
-0.82,-0.165,3072.222222222222
-0.815,-0.155,3075.0
-0.815,-0.145,3077.777777777778
-0.82,-0.16,3080.5555555555557
-0.825,-0.145,3083.3333333333335
-0.835,-0.17,3086.1111111111113
-0.835,-0.155,3088.8888888888887
-0.845,-0.16,3091.6666666666665
-0.86,-0.15,3094.4444444444443
-0.855,-0.145,3097.222222222222
-0.85,-0.12,3100.0
-0.85,-0.11,3102.777777777778
-0.85,-0.105,3105.5555555555557
-0.855,-0.085,3108.3333333333335
-0.83,-0.09,3111.1111111111113
-0.835,-0.08,3113.8888888888887
-0.835,-0.09,3116.6666666666665
-0.835,-0.08,3119.4444444444443
-0.84,-0.075,3122.222222222222
-0.84,-0.08,3125.0
-0.84,-0.08,3127.777777777778
-0.84,-0.06,3130.5555555555557
-0.82,-0.07,3133.3333333333335
-0.815,-0.05,3136.1111111111113
-0.785,-0.035,3138.8888888888887
-0.78,-0.04,3141.6666666666665
-0.765,-0.04,3144.4444444444443
-0.75,-0.055,3147.222222222222
-0.74,-0.05,3150.0
-0.73,-0.06,3152.777777777778
-0.725,-0.075,3155.5555555555557
-0.7,-0.075,3158.3333333333335
-0.7,-0.08,3161.1111111111113
-0.68,-0.075,3163.8888888888887
-0.67,-0.07,3166.6666666666665
-0.635,-0.075,3169.4444444444443
-0.62,-0.06,3172.222222222222
-0.605,-0.065,3175.0
-0.59,-0.08,3177.777777777778
-0.58,-0.095,3180.5555555555557
-0.58,-0.1,3183.3333333333335
-0.585,-0.125,3186.1111111111113
-0.58,-0.135,3188.8888888888887
-0.585,-0.14,3191.6666666666665
-0.595,-0.15,3194.4444444444443
-0.57,-0.145,3197.222222222222
-0.575,-0.155,3200.0
-0.565,-0.155,3202.777777777778
-0.54,-0.15,3205.5555555555557
-0.54,-0.16,3208.3333333333335
-0.54,-0.15,3211.1111111111113
-0.54,-0.175,3213.8888888888887
-0.535,-0.18,3216.6666666666665
-0.55,-0.185,3219.4444444444443
-0.565,-0.205,3222.222222222222
-0.555,-0.205,3225.0
-0.57,-0.21,3227.777777777778
-0.57,-0.215,3230.5555555555557
-0.565,-0.2,3233.3333333333335
-0.545,-0.2,3236.1111111111113
-0.545,-0.21,3238.8888888888887
-0.54,-0.195,3241.6666666666665
-0.54,-0.19,3244.4444444444443
-0.545,-0.21,3247.222222222222
-0.555,-0.21,3250.0
-0.575,-0.22,3252.777777777778
-0.58,-0.235,3255.5555555555557
-0.59,-0.23,3258.3333333333335
-0.585,-0.245,3261.1111111111113
-0.59,-0.245,3263.8888888888887
-0.585,-0.24,3266.6666666666665
-0.565,-0.22,3269.4444444444443
-0.565,-0.215,3272.222222222222
-0.565,-0.215,3275.0
-0.56,-0.21,3277.777777777778
-0.575,-0.22,3280.5555555555557
-0.565,-0.23,3283.3333333333335
-0.585,-0.245,3286.1111111111113
-0.595,-0.24,3288.8888888888887
-0.605,-0.245,3291.6666666666665
-0.605,-0.24,3294.4444444444443
-0.615,-0.245,3297.222222222222
-0.61,-0.24,3300.0
-0.61,-0.22,3302.777777777778
-0.6,-0.22,3305.5555555555557
-0.6,-0.22,3308.3333333333335
-0.595,-0.21,3311.1111111111113
-0.605,-0.215,3313.8888888888887
-0.6,-0.22,3316.6666666666665
-0.615,-0.235,3319.4444444444443
-0.62,-0.23,3322.222222222222
-0.63,-0.24,3325.0
-0.625,-0.24,3327.777777777778
-0.62,-0.24,3330.5555555555557
-0.62,-0.24,3333.3333333333335
-0.62,-0.23,3336.1111111111113
-0.61,-0.215,3338.8888888888887
-0.605,-0.21,3341.6666666666665
-0.595,-0.205,3344.4444444444443
-0.595,-0.215,3347.222222222222
-0.585,-0.215,3350.0
-0.59,-0.23,3352.777777777778
-0.6,-0.23,3355.5555555555557
-0.6,-0.245,3358.3333333333335
-0.605,-0.25,3361.1111111111113
-0.6,-0.24,3363.8888888888887
-0.6,-0.235,3366.6666666666665
-0.59,-0.23,3369.4444444444443
-0.59,-0.22,3372.222222222222
-0.59,-0.225,3375.0
-0.575,-0.215,3377.777777777778
-0.565,-0.235,3380.5555555555557
-0.565,-0.23,3383.3333333333335
-0.585,-0.245,3386.1111111111113
-0.575,-0.245,3388.8888888888887
-0.58,-0.25,3391.6666666666665
-0.57,-0.255,3394.4444444444443
-0.58,-0.245,3397.222222222222
-0.58,-0.24,3400.0
-0.57,-0.24,3402.777777777778
-0.56,-0.235,3405.5555555555557
-0.565,-0.235,3408.3333333333335
-0.54,-0.225,3411.1111111111113
-0.54,-0.23,3413.8888888888887
-0.54,-0.24,3416.6666666666665
-0.535,-0.25,3419.4444444444443
-0.545,-0.255,3422.222222222222
-0.54,-0.26,3425.0
-0.545,-0.27,3427.777777777778
-0.55,-0.265,3430.5555555555557
-0.535,-0.26,3433.3333333333335
-0.535,-0.255,3436.1111111111113
-0.51,-0.24,3438.8888888888887
-0.51,-0.24,3441.6666666666665
-0.485,-0.225,3444.4444444444443
-0.485,-0.245,3447.222222222222
-0.49,-0.235,3450.0
-0.46,-0.245,3452.777777777778
-0.47,-0.245,3455.5555555555557
-0.47,-0.245,3458.3333333333335
-0.465,-0.245,3461.1111111111113
-0.465,-0.245,3463.8888888888887
-0.45,-0.24,3466.6666666666665
-0.43,-0.235,3469.4444444444443
-0.42,-0.24,3472.222222222222
-0.4,-0.245,3475.0
-0.4,-0.25,3477.777777777778
-0.39,-0.285,3480.5555555555557
-0.41,-0.295,3483.3333333333335
-0.41,-0.315,3486.1111111111113
-0.43,-0.34,3488.8888888888887
-0.43,-0.335,3491.6666666666665
-0.445,-0.355,3494.4444444444443
-0.46,-0.335,3497.222222222222
-0.46,-0.325,3500.0
-0.485,-0.315,3502.777777777778
-0.495,-0.29,3505.5555555555557
-0.51,-0.28,3508.3333333333335
-0.51,-0.28,3511.1111111111113
-0.51,-0.28,3513.8888888888887
-0.53,-0.29,3516.6666666666665
-0.545,-0.285,3519.4444444444443
-0.565,-0.285,3522.222222222222
-0.585,-0.295,3525.0
-0.59,-0.28,3527.777777777778
-0.615,-0.28,3530.5555555555557
-0.62,-0.27,3533.3333333333335
-0.625,-0.275,3536.1111111111113
-0.615,-0.255,3538.8888888888887
-0.605,-0.25,3541.6666666666665
-0.6,-0.255,3544.4444444444443
-0.59,-0.265,3547.222222222222
-0.585,-0.255,3550.0
-0.6,-0.265,3552.777777777778
-0.59,-0.275,3555.5555555555557
-0.59,-0.275,3558.3333333333335
-0.605,-0.285,3561.1111111111113
-0.595,-0.29,3563.8888888888887
-0.595,-0.27,3566.6666666666665
-0.595,-0.27,3569.4444444444443
-0.58,-0.255,3572.222222222222
-0.57,-0.26,3575.0
-0.555,-0.27,3577.777777777778
-0.56,-0.27,3580.5555555555557
-0.545,-0.275,3583.3333333333335
-0.535,-0.285,3586.1111111111113
-0.515,-0.285,3588.8888888888887
-0.5,-0.3,3591.6666666666665
-0.46,-0.305,3594.4444444444443
-0.405,-0.295,3597.222222222222
-0.315,-0.29,3600.0
-0.205,-0.285,3602.777777777778
-0.08,-0.265,3605.5555555555557
0.075,-0.275,3608.3333333333335
0.265,-0.275,3611.1111111111113
0.46,-0.305,3613.8888888888887
0.66,-0.35,3616.6666666666665
0.855,-0.425,3619.4444444444443
1.005,-0.535,3622.222222222222
1.13,-0.66,3625.0
1.22,-0.77,3627.777777777778
1.29,-0.89,3630.5555555555557
1.355,-0.995,3633.3333333333335
1.35,-1.11,3636.1111111111113
1.22,-1.23,3638.8888888888887
0.905,-1.325,3641.6666666666665
0.48,-1.415,3644.4444444444443
0.0,-1.42,3647.222222222222
-0.445,-1.37,3650.0
-0.75,-1.27,3652.777777777778
-0.905,-1.11,3655.5555555555557
-0.935,-0.97,3658.3333333333335
-0.9,-0.85,3661.1111111111113
-0.835,-0.755,3663.8888888888887
-0.76,-0.665,3666.6666666666665
-0.695,-0.6,3669.4444444444443
-0.655,-0.535,3672.222222222222
-0.64,-0.45,3675.0
-0.645,-0.38,3677.777777777778
-0.655,-0.34,3680.5555555555557
-0.67,-0.305,3683.3333333333335
-0.675,-0.29,3686.1111111111113
-0.695,-0.275,3688.8888888888887
-0.71,-0.28,3691.6666666666665
-0.72,-0.285,3694.4444444444443
-0.735,-0.27,3697.222222222222
-0.745,-0.275,3700.0
-0.73,-0.255,3702.777777777778
-0.725,-0.25,3705.5555555555557
-0.725,-0.24,3708.3333333333335
-0.7,-0.23,3711.1111111111113
-0.705,-0.245,3713.8888888888887
-0.715,-0.235,3716.6666666666665
-0.715,-0.245,3719.4444444444443
-0.725,-0.245,3722.222222222222
-0.75,-0.245,3725.0
-0.755,-0.255,3727.777777777778
-0.755,-0.245,3730.5555555555557
-0.765,-0.245,3733.3333333333335
-0.75,-0.225,3736.1111111111113
-0.74,-0.225,3738.8888888888887
-0.745,-0.215,3741.6666666666665
-0.735,-0.225,3744.4444444444443
-0.74,-0.215,3747.222222222222
-0.75,-0.215,3750.0
-0.755,-0.23,3752.777777777778
-0.77,-0.235,3755.5555555555557
-0.77,-0.24,3758.3333333333335
-0.77,-0.235,3761.1111111111113
-0.78,-0.23,3763.8888888888887
-0.785,-0.225,3766.6666666666665
-0.78,-0.225,3769.4444444444443
-0.785,-0.205,3772.222222222222
-0.775,-0.2,3775.0
-0.77,-0.19,3777.777777777778
-0.77,-0.195,3780.5555555555557
-0.78,-0.2,3783.3333333333335
-0.79,-0.21,3786.1111111111113
-0.8,-0.205,3788.8888888888887
-0.805,-0.22,3791.6666666666665
-0.81,-0.22,3794.4444444444443
-0.81,-0.205,3797.222222222222
-0.82,-0.21,3800.0
-0.835,-0.19,3802.777777777778
-0.82,-0.19,3805.5555555555557
-0.82,-0.185,3808.3333333333335
-0.81,-0.17,3811.1111111111113
-0.83,-0.18,3813.8888888888887
-0.84,-0.175,3816.6666666666665
-0.835,-0.17,3819.4444444444443
-0.84,-0.19,3822.222222222222
-0.86,-0.185,3825.0
-0.87,-0.18,3827.777777777778
-0.865,-0.17,3830.5555555555557
-0.875,-0.165,3833.3333333333335
-0.87,-0.145,3836.1111111111113
-0.875,-0.145,3838.8888888888887
-0.875,-0.125,3841.6666666666665
-0.88,-0.125,3844.4444444444443
-0.87,-0.12,3847.222222222222
-0.875,-0.11,3850.0
-0.865,-0.105,3852.777777777778
-0.895,-0.105,3855.5555555555557
-0.89,-0.1,3858.3333333333335
-0.885,-0.115,3861.1111111111113
-0.885,-0.105,3863.8888888888887
-0.86,-0.095,3866.6666666666665
-0.865,-0.075,3869.4444444444443
-0.85,-0.07,3872.222222222222
-0.83,-0.065,3875.0
-0.81,-0.06,3877.777777777778
-0.805,-0.075,3880.5555555555557
-0.79,-0.07,3883.3333333333335
-0.77,-0.075,3886.1111111111113
-0.76,-0.075,3888.8888888888887
-0.76,-0.09,3891.6666666666665
-0.745,-0.085,3894.4444444444443
-0.725,-0.095,3897.222222222222
-0.72,-0.095,3900.0
-0.69,-0.105,3902.777777777778
-0.67,-0.085,3905.5555555555557
-0.645,-0.08,3908.3333333333335
-0.63,-0.09,3911.1111111111113
-0.63,-0.125,3913.8888888888887
-0.62,-0.12,3916.6666666666665
-0.615,-0.135,3919.4444444444443
-0.635,-0.155,3922.222222222222
-0.62,-0.16,3925.0
-0.615,-0.17,3927.777777777778
-0.62,-0.175,3930.5555555555557
-0.615,-0.18,3933.3333333333335
-0.61,-0.185,3936.1111111111113
-0.595,-0.175,3938.8888888888887
-0.575,-0.17,3941.6666666666665
-0.57,-0.175,3944.4444444444443
-0.56,-0.175,3947.222222222222
-0.56,-0.205,3950.0
-0.58,-0.205,3952.777777777778
-0.585,-0.21,3955.5555555555557
-0.585,-0.225,3958.3333333333335
-0.6,-0.225,3961.1111111111113
-0.595,-0.225,3963.8888888888887
-0.6,-0.225,3966.6666666666665
-0.605,-0.215,3969.4444444444443
-0.585,-0.21,3972.222222222222
-0.58,-0.2,3975.0
-0.57,-0.205,3977.777777777778
-0.575,-0.22,3980.5555555555557
-0.58,-0.21,3983.3333333333335
-0.59,-0.22,3986.1111111111113
-0.61,-0.235,3988.8888888888887
-0.615,-0.24,3991.6666666666665
-0.63,-0.25,3994.4444444444443
-0.62,-0.25,3997.222222222222
-0.62,-0.23,4000.0
-0.61,-0.235,4002.777777777778
-0.615,-0.225,4005.5555555555557
-0.61,-0.22,4008.3333333333335
-0.6,-0.22,4011.1111111111113
-0.6,-0.22,4013.8888888888887
-0.61,-0.235,4016.6666666666665
-0.61,-0.24,4019.4444444444443
-0.615,-0.24,4022.222222222222
-0.62,-0.24,4025.0
-0.63,-0.245,4027.777777777778
-0.63,-0.24,4030.5555555555557
-0.64,-0.235,4033.3333333333335
-0.65,-0.23,4036.1111111111113
-0.635,-0.235,4038.8888888888887
-0.63,-0.225,4041.6666666666665
-0.63,-0.22,4044.4444444444443
-0.625,-0.23,4047.222222222222
-0.635,-0.24,4050.0
-0.63,-0.245,4052.777777777778
-0.64,-0.245,4055.5555555555557
-0.64,-0.24,4058.3333333333335
-0.64,-0.255,4061.1111111111113
-0.645,-0.25,4063.8888888888887
-0.655,-0.245,4066.6666666666665
-0.65,-0.24,4069.4444444444443
-0.645,-0.225,4072.222222222222
-0.62,-0.23,4075.0
-0.63,-0.215,4077.777777777778
-0.625,-0.225,4080.5555555555557
-0.62,-0.235,4083.3333333333335
-0.625,-0.245,4086.1111111111113
-0.625,-0.25,4088.8888888888887
-0.63,-0.245,4091.6666666666665
-0.625,-0.25,4094.4444444444443
-0.625,-0.245,4097.222222222223
-0.62,-0.24,4100.0
-0.615,-0.25,4102.777777777777
-0.6,-0.235,4105.555555555556
-0.605,-0.24,4108.333333333333
-0.59,-0.23,4111.111111111111
-0.595,-0.225,4113.888888888889
-0.6,-0.24,4116.666666666667
-0.595,-0.25,4119.444444444444
-0.59,-0.25,4122.222222222223
-0.605,-0.255,4125.0
-0.6,-0.27,4127.777777777777
-0.61,-0.265,4130.555555555556
-0.605,-0.25,4133.333333333333
-0.615,-0.25,4136.111111111111
-0.61,-0.24,4138.888888888889
-0.605,-0.23,4141.666666666667
-0.575,-0.235,4144.444444444444
-0.57,-0.24,4147.222222222223
-0.58,-0.245,4150.0
-0.59,-0.24,4152.777777777777
-0.585,-0.255,4155.555555555556
-0.585,-0.265,4158.333333333333
-0.575,-0.27,4161.111111111111
-0.575,-0.27,4163.888888888889
-0.565,-0.255,4166.666666666667
-0.555,-0.255,4169.444444444444
-0.55,-0.25,4172.222222222223
-0.54,-0.245,4175.0
-0.525,-0.24,4177.777777777777
-0.54,-0.245,4180.555555555556
-0.535,-0.255,4183.333333333333
-0.53,-0.25,4186.111111111111
-0.535,-0.265,4188.888888888889
-0.53,-0.26,4191.666666666667
-0.53,-0.265,4194.444444444444
-0.535,-0.245,4197.222222222223
-0.52,-0.24,4200.0
-0.515,-0.24,4202.777777777777
-0.495,-0.23,4205.555555555556
-0.49,-0.235,4208.333333333333
-0.46,-0.235,4211.111111111111
-0.44,-0.25,4213.888888888889
-0.43,-0.265,4216.666666666667
-0.44,-0.285,4219.444444444444
-0.44,-0.315,4222.222222222223
-0.445,-0.325,4225.0
-0.45,-0.36,4227.777777777777
-0.475,-0.36,4230.555555555556
-0.47,-0.365,4233.333333333333
-0.495,-0.345,4236.111111111111
-0.49,-0.335,4238.888888888889
-0.49,-0.32,4241.666666666667
-0.51,-0.3,4244.444444444444
-0.525,-0.295,4247.222222222223
-0.55,-0.3,4250.0
-0.56,-0.29,4252.777777777777
-0.58,-0.3,4255.555555555556
-0.6,-0.31,4258.333333333333
-0.615,-0.3,4261.111111111111
-0.635,-0.285,4263.888888888889
-0.635,-0.29,4266.666666666667
-0.645,-0.27,4269.444444444444
-0.64,-0.27,4272.222222222223
-0.62,-0.27,4275.0
-0.615,-0.26,4277.777777777777
-0.615,-0.27,4280.555555555556
-0.615,-0.28,4283.333333333333
-0.615,-0.29,4286.111111111111
-0.61,-0.3,4288.888888888889
-0.625,-0.305,4291.666666666667
-0.635,-0.31,4294.444444444444
-0.63,-0.295,4297.222222222223
-0.635,-0.3,4300.0
-0.63,-0.295,4302.777777777777
-0.62,-0.285,4305.555555555556
-0.615,-0.285,4308.333333333333
-0.595,-0.275,4311.111111111111
-0.59,-0.285,4313.888888888889
-0.585,-0.29,4316.666666666667
-0.575,-0.305,4319.444444444444
-0.57,-0.31,4322.222222222223
-0.555,-0.315,4325.0
-0.535,-0.325,4327.777777777777
-0.5,-0.315,4330.555555555556
-0.455,-0.31,4333.333333333333
-0.38,-0.295,4336.111111111111
-0.28,-0.295,4338.888888888889
-0.185,-0.275,4341.666666666667
-0.05,-0.27,4344.444444444444
0.085,-0.275,4347.222222222223
0.235,-0.305,4350.0
0.41,-0.315,4352.777777777777
0.58,-0.36,4355.555555555556
0.74,-0.425,4358.333333333333
0.89,-0.5,4361.111111111111
1.015,-0.585,4363.888888888889
1.1,-0.695,4366.666666666667
1.195,-0.78,4369.444444444444
1.26,-0.875,4372.222222222223
1.35,-0.94,4375.0
1.38,-1.04,4377.777777777777
1.31,-1.145,4380.555555555556
1.14,-1.23,4383.333333333333
0.85,-1.33,4386.111111111111
0.485,-1.4,4388.888888888889
0.1,-1.41,4391.666666666667
-0.245,-1.42,4394.444444444444
-0.525,-1.385,4397.222222222223
-0.705,-1.315,4400.0
-0.805,-1.205,4402.777777777777
-0.825,-1.105,4405.555555555556
-0.815,-0.99,4408.333333333333
-0.785,-0.9,4411.111111111111
-0.77,-0.835,4413.888888888889
-0.755,-0.76,4416.666666666667
-0.74,-0.71,4419.444444444444
-0.73,-0.64,4422.222222222223
-0.725,-0.575,4425.0
-0.725,-0.51,4427.777777777777
-0.72,-0.425,4430.555555555556
-0.715,-0.385,4433.333333333333
-0.715,-0.33,4436.111111111111
-0.725,-0.32,4438.888888888889
-0.715,-0.305,4441.666666666667
-0.715,-0.3,4444.444444444444
-0.715,-0.305,4447.222222222223
-0.725,-0.305,4450.0
-0.74,-0.305,4452.777777777777
-0.745,-0.305,4455.555555555556
-0.75,-0.31,4458.333333333333
-0.765,-0.315,4461.111111111111
-0.775,-0.3,4463.888888888889
-0.775,-0.31,4466.666666666667
-0.765,-0.295,4469.444444444444
-0.77,-0.285,4472.222222222223
-0.765,-0.285,4475.0
-0.76,-0.27,4477.777777777777
-0.76,-0.265,4480.555555555556
-0.765,-0.275,4483.333333333333
-0.77,-0.275,4486.111111111111
-0.785,-0.295,4488.888888888889
-0.78,-0.295,4491.666666666667
-0.79,-0.3,4494.444444444444
-0.79,-0.3,4497.222222222223
-0.8,-0.285,4500.0
-0.795,-0.28,4502.777777777777
-0.785,-0.275,4505.555555555556
-0.79,-0.265,4508.333333333333
-0.77,-0.255,4511.111111111111
-0.785,-0.275,4513.888888888889
-0.795,-0.27,4516.666666666667
-0.8,-0.28,4519.444444444444
-0.815,-0.285,4522.222222222223
-0.805,-0.285,4525.0
-0.825,-0.29,4527.777777777777
-0.825,-0.29,4530.555555555556
-0.83,-0.285,4533.333333333333
-0.825,-0.265,4536.111111111111
-0.815,-0.255,4538.888888888889
-0.825,-0.255,4541.666666666667
-0.815,-0.255,4544.444444444444
-0.835,-0.25,4547.222222222223
-0.835,-0.255,4550.0
-0.835,-0.26,4552.777777777777
-0.835,-0.27,4555.555555555556
-0.845,-0.27,4558.333333333333
-0.855,-0.275,4561.111111111111
-0.865,-0.27,4563.888888888889
-0.87,-0.265,4566.666666666667
-0.865,-0.26,4569.444444444444
-0.86,-0.245,4572.222222222223
-0.86,-0.23,4575.0
-0.865,-0.23,4577.777777777777
-0.865,-0.23,4580.555555555556
-0.88,-0.23,4583.333333333333
-0.875,-0.245,4586.111111111111
-0.88,-0.245,4588.888888888889
-0.905,-0.255,4591.666666666667
-0.905,-0.245,4594.444444444444
-0.915,-0.245,4597.222222222223
-0.915,-0.23,4600.0
-0.915,-0.22,4602.777777777777
-0.915,-0.21,4605.555555555556
-0.91,-0.2,4608.333333333333
-0.9,-0.18,4611.111111111111
-0.885,-0.195,4613.888888888889
-0.885,-0.195,4616.666666666667
-0.89,-0.2,4619.444444444444
-0.9,-0.2,4622.222222222223
-0.885,-0.195,4625.0
-0.89,-0.195,4627.777777777777
-0.89,-0.185,4630.555555555556
-0.88,-0.18,4633.333333333333
-0.875,-0.175,4636.111111111111
-0.845,-0.175,4638.888888888889
-0.845,-0.155,4641.666666666667
-0.84,-0.165,4644.444444444444
-0.815,-0.17,4647.222222222223
-0.82,-0.17,4650.0
-0.805,-0.185,4652.777777777777
-0.79,-0.185,4655.555555555556
-0.77,-0.19,4658.333333333333
-0.75,-0.2,4661.111111111111
-0.74,-0.205,4663.888888888889
-0.7,-0.205,4666.666666666667
-0.69,-0.205,4669.444444444444
-0.67,-0.21,4672.222222222223
-0.65,-0.21,4675.0
-0.625,-0.21,4677.777777777777
-0.615,-0.225,4680.555555555556
-0.61,-0.24,4683.333333333333
-0.6,-0.255,4686.111111111111
-0.595,-0.275,4688.888888888889
-0.6,-0.285,4691.666666666667
-0.605,-0.285,4694.444444444444
-0.6,-0.285,4697.222222222223
-0.595,-0.29,4700.0
-0.59,-0.29,4702.777777777777
-0.58,-0.29,4705.555555555556
-0.58,-0.29,4708.333333333333
-0.565,-0.285,4711.111111111111
-0.57,-0.3,4713.888888888889
-0.565,-0.31,4716.666666666667
-0.56,-0.31,4719.444444444444
-0.575,-0.33,4722.222222222223
-0.565,-0.345,4725.0
-0.575,-0.35,4727.777777777777
-0.575,-0.34,4730.555555555556
-0.57,-0.34,4733.333333333333
-0.565,-0.335,4736.111111111111
-0.575,-0.34,4738.888888888889
-0.565,-0.33,4741.666666666667
-0.55,-0.335,4744.444444444444
-0.56,-0.34,4747.222222222223
-0.56,-0.345,4750.0
-0.56,-0.355,4752.777777777777
-0.57,-0.37,4755.555555555556
-0.565,-0.37,4758.333333333333
-0.575,-0.37,4761.111111111111
-0.58,-0.36,4763.888888888889
-0.58,-0.365,4766.666666666667
-0.58,-0.36,4769.444444444444
-0.57,-0.365,4772.222222222223
-0.555,-0.36,4775.0
-0.575,-0.345,4777.777777777777
-0.575,-0.365,4780.555555555556
-0.58,-0.37,4783.333333333333
-0.595,-0.375,4786.111111111111
-0.595,-0.385,4788.888888888889
-0.59,-0.395,4791.666666666667
-0.61,-0.39,4794.444444444444
-0.61,-0.39,4797.222222222223
-0.61,-0.38,4800.0
-0.595,-0.37,4802.777777777777
-0.59,-0.365,4805.555555555556
-0.585,-0.36,4808.333333333333
-0.58,-0.36,4811.111111111111
-0.59,-0.375,4813.888888888889
-0.58,-0.37,4816.666666666667
-0.59,-0.38,4819.444444444444
-0.59,-0.385,4822.222222222223
-0.6,-0.385,4825.0
-0.6,-0.385,4827.777777777777
-0.61,-0.385,4830.555555555556
-0.605,-0.39,4833.333333333333
-0.605,-0.37,4836.111111111111
-0.59,-0.37,4838.888888888889
-0.58,-0.36,4841.666666666667
-0.57,-0.365,4844.444444444444
-0.57,-0.37,4847.222222222223
-0.57,-0.36,4850.0
-0.585,-0.375,4852.777777777777
-0.57,-0.38,4855.555555555556
-0.58,-0.385,4858.333333333333
-0.575,-0.395,4861.111111111111
-0.585,-0.395,4863.888888888889
-0.58,-0.39,4866.666666666667
-0.575,-0.375,4869.444444444444
-0.565,-0.385,4872.222222222223
-0.56,-0.36,4875.0
-0.56,-0.36,4877.777777777777
-0.545,-0.37,4880.555555555556
-0.545,-0.37,4883.333333333333
-0.535,-0.39,4886.111111111111
-0.55,-0.4,4888.888888888889
-0.55,-0.39,4891.666666666667
-0.56,-0.41,4894.444444444444
-0.555,-0.4,4897.222222222223
-0.545,-0.395,4900.0
-0.555,-0.39,4902.777777777777
-0.54,-0.385,4905.555555555556
-0.535,-0.38,4908.333333333333
-0.52,-0.37,4911.111111111111
-0.505,-0.38,4913.888888888889
-0.52,-0.385,4916.666666666667
-0.515,-0.395,4919.444444444444
-0.52,-0.41,4922.222222222223
-0.515,-0.41,4925.0
-0.52,-0.42,4927.777777777777
-0.525,-0.41,4930.555555555556
-0.51,-0.405,4933.333333333333
-0.51,-0.405,4936.111111111111
-0.495,-0.39,4938.888888888889
-0.48,-0.39,4941.666666666667
-0.465,-0.38,4944.444444444444
-0.46,-0.39,4947.222222222223
-0.455,-0.39,4950.0
-0.45,-0.395,4952.777777777777
-0.46,-0.395,4955.555555555556
-0.465,-0.395,4958.333333333333
-0.465,-0.405,4961.111111111111
-0.46,-0.39,4963.888888888889
-0.445,-0.385,4966.666666666667
-0.435,-0.385,4969.444444444444
-0.415,-0.375,4972.222222222223
-0.405,-0.375,4975.0
-0.38,-0.375,4977.777777777777
-0.365,-0.385,4980.555555555556
-0.355,-0.39,4983.333333333333
-0.355,-0.42,4986.111111111111
-0.36,-0.425,4988.888888888889
-0.37,-0.445,4991.666666666667
-0.37,-0.475,4994.444444444444
-0.385,-0.48,4997.222222222223
-0.4,-0.48,5000.0
-0.405,-0.485,5002.777777777777
-0.41,-0.48,5005.555555555556
-0.405,-0.455,5008.333333333333
-0.405,-0.455,5011.111111111111
-0.41,-0.445,5013.888888888889
-0.415,-0.445,5016.666666666667
-0.445,-0.445,5019.444444444444
-0.465,-0.45,5022.222222222223
-0.485,-0.45,5025.0
-0.49,-0.44,5027.777777777777
-0.505,-0.44,5030.555555555556
-0.51,-0.44,5033.333333333333
-0.515,-0.425,5036.111111111111
-0.53,-0.405,5038.888888888889
-0.52,-0.41,5041.666666666667
-0.525,-0.4,5044.444444444444
-0.54,-0.4,5047.222222222223
-0.555,-0.405,5050.0
-0.555,-0.415,5052.777777777777
-0.56,-0.41,5055.555555555556
-0.56,-0.425,5058.333333333333
-0.555,-0.435,5061.111111111111
-0.565,-0.425,5063.888888888889
-0.555,-0.415,5066.666666666667
-0.555,-0.425,5069.444444444444
-0.555,-0.41,5072.222222222223
-0.535,-0.4,5075.0
-0.54,-0.4,5077.777777777777
-0.535,-0.41,5080.555555555556
-0.515,-0.41,5083.333333333333
-0.515,-0.42,5086.111111111111
-0.52,-0.435,5088.888888888889
-0.52,-0.44,5091.666666666667
-0.505,-0.445,5094.444444444444
-0.505,-0.445,5097.222222222223
-0.49,-0.445,5100.0
-0.475,-0.43,5102.777777777777
-0.445,-0.42,5105.555555555556
-0.425,-0.41,5108.333333333333
-0.37,-0.405,5111.111111111111
-0.32,-0.425,5113.888888888889
-0.255,-0.43,5116.666666666667
-0.175,-0.435,5119.444444444444
-0.085,-0.45,5122.222222222223
0.025,-0.45,5125.0
0.145,-0.46,5127.777777777777
0.29,-0.475,5130.555555555556
0.47,-0.495,5133.333333333333
0.68,-0.53,5136.111111111111
0.86,-0.575,5138.888888888889
1.04,-0.675,5141.666666666667
1.185,-0.775,5144.444444444444
1.32,-0.885,5147.222222222223
1.42,-0.99,5150.0
1.525,-1.105,5152.777777777777
1.615,-1.215,5155.555555555556
1.635,-1.32,5158.333333333333
1.57,-1.42,5161.111111111111
1.345,-1.52,5163.888888888889
1.02,-1.59,5166.666666666667
0.61,-1.625,5169.444444444444
0.215,-1.635,5172.222222222223
-0.15,-1.59,5175.0
-0.415,-1.51,5177.777777777777
-0.575,-1.42,5180.555555555556
-0.65,-1.31,5183.333333333333
-0.66,-1.195,5186.111111111111
-0.66,-1.095,5188.888888888889
-0.655,-1.025,5191.666666666667
-0.655,-0.96,5194.444444444444
-0.66,-0.895,5197.222222222223
-0.635,-0.83,5200.0
-0.63,-0.765,5202.777777777777
-0.62,-0.69,5205.555555555556
-0.605,-0.62,5208.333333333333
-0.6,-0.56,5211.111111111111
-0.6,-0.495,5213.888888888889
-0.605,-0.46,5216.666666666667
-0.615,-0.455,5219.444444444444
-0.625,-0.445,5222.222222222223
-0.64,-0.465,5225.0
-0.65,-0.45,5227.777777777777
-0.66,-0.44,5230.555555555556
-0.665,-0.435,5233.333333333333
-0.655,-0.42,5236.111111111111
-0.67,-0.41,5238.888888888889
-0.65,-0.4,5241.666666666667
-0.645,-0.38,5244.444444444444
-0.65,-0.385,5247.222222222223
-0.66,-0.4,5250.0
-0.66,-0.39,5252.777777777777
-0.67,-0.405,5255.555555555556
-0.67,-0.41,5258.333333333333
-0.695,-0.41,5261.111111111111
-0.685,-0.4,5263.888888888889
-0.69,-0.39,5266.666666666667
-0.7,-0.395,5269.444444444444
-0.705,-0.39,5272.222222222223
-0.69,-0.38,5275.0
-0.685,-0.355,5277.777777777777
-0.68,-0.37,5280.555555555556
-0.68,-0.375,5283.333333333333
-0.685,-0.385,5286.111111111111
-0.695,-0.38,5288.888888888889
-0.705,-0.395,5291.666666666667
-0.72,-0.395,5294.444444444444
-0.725,-0.385,5297.222222222223
-0.735,-0.38,5300.0
-0.73,-0.37,5302.777777777777
-0.73,-0.37,5305.555555555556
-0.735,-0.36,5308.333333333333
-0.73,-0.355,5311.111111111111
-0.72,-0.355,5313.888888888889
-0.725,-0.345,5316.666666666667
-0.73,-0.365,5319.444444444444
-0.74,-0.37,5322.222222222223
-0.745,-0.365,5325.0
-0.76,-0.37,5327.777777777777
-0.78,-0.36,5330.555555555556
-0.785,-0.355,5333.333333333333
-0.79,-0.35,5336.111111111111
-0.785,-0.35,5338.888888888889
-0.775,-0.33,5341.666666666667
-0.77,-0.325,5344.444444444444
-0.765,-0.32,5347.222222222223
-0.78,-0.325,5350.0
-0.78,-0.325,5352.777777777777
-0.795,-0.32,5355.555555555556
-0.8,-0.335,5358.333333333333
-0.815,-0.33,5361.111111111111
-0.825,-0.335,5363.888888888889
-0.825,-0.325,5366.666666666667
-0.835,-0.32,5369.444444444444
-0.83,-0.29,5372.222222222223
-0.83,-0.29,5375.0
-0.83,-0.265,5377.777777777777
-0.825,-0.27,5380.555555555556
-0.84,-0.27,5383.333333333333
-0.835,-0.275,5386.111111111111
-0.845,-0.285,5388.888888888889
-0.83,-0.27,5391.666666666667
-0.85,-0.27,5394.444444444444
-0.85,-0.26,5397.222222222223
-0.84,-0.255,5400.0
-0.84,-0.245,5402.777777777777
-0.83,-0.23,5405.555555555556
-0.815,-0.22,5408.333333333333
-0.805,-0.215,5411.111111111111
-0.805,-0.215,5413.888888888889
-0.785,-0.205,5416.666666666667
-0.785,-0.215,5419.444444444444
-0.775,-0.235,5422.222222222223
-0.77,-0.23,5425.0
-0.765,-0.24,5427.777777777777
-0.765,-0.235,5430.555555555556
-0.75,-0.22,5433.333333333333
-0.73,-0.23,5436.111111111111
-0.71,-0.225,5438.888888888889
-0.68,-0.23,5441.666666666667
-0.655,-0.225,5444.444444444444
-0.645,-0.225,5447.222222222223
-0.625,-0.25,5450.0
-0.625,-0.255,5452.777777777777
-0.62,-0.265,5455.555555555556
-0.625,-0.27,5458.333333333333
-0.61,-0.29,5461.111111111111
-0.605,-0.3,5463.888888888889
-0.58,-0.31,5466.666666666667
-0.59,-0.3,5469.444444444444
-0.56,-0.315,5472.222222222223
-0.56,-0.325,5475.0
-0.555,-0.32,5477.777777777777
-0.545,-0.33,5480.555555555556
-0.545,-0.34,5483.333333333333
-0.54,-0.355,5486.111111111111
-0.535,-0.37,5488.888888888889
-0.54,-0.37,5491.666666666667
-0.545,-0.385,5494.444444444444
-0.55,-0.385,5497.222222222223
-0.545,-0.39,5500.0
-0.54,-0.38,5502.777777777777
-0.535,-0.385,5505.555555555556
-0.54,-0.375,5508.333333333333
-0.52,-0.375,5511.111111111111
-0.515,-0.385,5513.888888888889
-0.53,-0.375,5516.666666666667
-0.54,-0.395,5519.444444444444
-0.55,-0.405,5522.222222222223
-0.56,-0.405,5525.0
-0.55,-0.41,5527.777777777777
-0.56,-0.405,5530.555555555556
-0.56,-0.4,5533.333333333333
-0.565,-0.395,5536.111111111111
-0.545,-0.4,5538.888888888889
-0.55,-0.4,5541.666666666667
-0.55,-0.39,5544.444444444444
-0.55,-0.4,5547.222222222223
-0.555,-0.39,5550.0
-0.565,-0.405,5552.777777777777
-0.565,-0.415,5555.555555555556
-0.575,-0.42,5558.333333333333
-0.585,-0.415,5561.111111111111
-0.585,-0.41,5563.888888888889
-0.585,-0.415,5566.666666666667
-0.59,-0.41,5569.444444444444
-0.585,-0.395,5572.222222222223
-0.58,-0.395,5575.0
-0.585,-0.385,5577.777777777777
-0.58,-0.385,5580.555555555556
-0.6,-0.395,5583.333333333333
-0.58,-0.405,5586.111111111111
-0.59,-0.39,5588.888888888889
-0.585,-0.415,5591.666666666667
-0.6,-0.41,5594.444444444444
-0.6,-0.4,5597.222222222223
-0.605,-0.405,5600.0
-0.6,-0.4,5602.777777777777
-0.595,-0.395,5605.555555555556
-0.595,-0.395,5608.333333333333
-0.585,-0.385,5611.111111111111
-0.585,-0.385,5613.888888888889
-0.575,-0.39,5616.666666666667
-0.575,-0.395,5619.444444444444
-0.595,-0.405,5622.222222222223
-0.585,-0.41,5625.0
-0.6,-0.405,5627.777777777777
-0.605,-0.405,5630.555555555556
-0.6,-0.415,5633.333333333333
-0.585,-0.405,5636.111111111111
-0.58,-0.4,5638.888888888889
-0.57,-0.385,5641.666666666667
-0.575,-0.375,5644.444444444444
-0.565,-0.385,5647.222222222223
-0.57,-0.385,5650.0
-0.57,-0.405,5652.777777777777
-0.58,-0.405,5655.555555555556
-0.575,-0.41,5658.333333333333
-0.575,-0.415,5661.111111111111
-0.58,-0.41,5663.888888888889
-0.57,-0.405,5666.666666666667
-0.565,-0.395,5669.444444444444
-0.56,-0.395,5672.222222222223
-0.56,-0.385,5675.0
-0.56,-0.385,5677.777777777777
-0.54,-0.395,5680.555555555556
-0.54,-0.405,5683.333333333333
-0.53,-0.395,5686.111111111111
-0.54,-0.405,5688.888888888889
-0.52,-0.4,5691.666666666667
-0.53,-0.42,5694.444444444444
-0.52,-0.425,5697.222222222223
-0.52,-0.415,5700.0
-0.515,-0.41,5702.777777777777
-0.5,-0.385,5705.555555555556
-0.5,-0.385,5708.333333333333
-0.49,-0.37,5711.111111111111
-0.475,-0.37,5713.888888888889
-0.475,-0.385,5716.666666666667
-0.47,-0.38,5719.444444444444
-0.465,-0.385,5722.222222222223
-0.47,-0.385,5725.0
-0.46,-0.4,5727.777777777777
-0.465,-0.395,5730.555555555556
-0.455,-0.39,5733.333333333333
-0.445,-0.385,5736.111111111111
-0.415,-0.385,5738.888888888889
-0.405,-0.385,5741.666666666667
-0.39,-0.39,5744.444444444444
-0.385,-0.41,5747.222222222223
-0.375,-0.42,5750.0
-0.385,-0.445,5752.777777777777
-0.39,-0.46,5755.555555555556
-0.405,-0.48,5758.333333333333
-0.425,-0.5,5761.111111111111
-0.425,-0.495,5763.888888888889
-0.445,-0.485,5766.666666666667
-0.45,-0.48,5769.444444444444
-0.46,-0.455,5772.222222222223
-0.47,-0.425,5775.0
-0.465,-0.43,5777.777777777777
-0.475,-0.42,5780.555555555556
-0.495,-0.43,5783.333333333333
-0.515,-0.425,5786.111111111111
-0.525,-0.42,5788.888888888889
-0.54,-0.435,5791.666666666667
-0.56,-0.435,5794.444444444444
-0.575,-0.44,5797.222222222223
-0.6,-0.42,5800.0
-0.595,-0.415,5802.777777777777
-0.59,-0.405,5805.555555555556
-0.585,-0.41,5808.333333333333
-0.58,-0.395,5811.111111111111
-0.575,-0.4,5813.888888888889
-0.575,-0.415,5816.666666666667
-0.585,-0.42,5819.444444444444
-0.585,-0.425,5822.222222222223
-0.6,-0.43,5825.0
-0.605,-0.445,5827.777777777777
-0.61,-0.435,5830.555555555556
-0.605,-0.43,5833.333333333333
-0.61,-0.42,5836.111111111111
-0.595,-0.415,5838.888888888889
-0.585,-0.41,5841.666666666667
-0.575,-0.405,5844.444444444444
-0.545,-0.415,5847.222222222223
-0.54,-0.415,5850.0
-0.53,-0.42,5852.777777777777
-0.555,-0.435,5855.555555555556
-0.53,-0.44,5858.333333333333
-0.53,-0.46,5861.111111111111
-0.505,-0.45,5863.888888888889
-0.48,-0.445,5866.666666666667
-0.425,-0.44,5869.444444444444
-0.34,-0.44,5872.222222222223
-0.25,-0.43,5875.0
-0.13,-0.435,5877.777777777777
0.025,-0.435,5880.555555555556
0.205,-0.455,5883.333333333333
0.42,-0.495,5886.111111111111
0.625,-0.57,5888.888888888889
0.83,-0.665,5891.666666666667
1.015,-0.775,5894.444444444444
1.17,-0.895,5897.222222222223
1.28,-1.03,5900.0
1.37,-1.145,5902.777777777777
1.44,-1.25,5905.555555555556
1.435,-1.355,5908.333333333333
1.3,-1.465,5911.111111111111
1.065,-1.56,5913.888888888889
0.715,-1.63,5916.666666666667
0.33,-1.68,5919.444444444444
-0.045,-1.675,5922.222222222223
-0.355,-1.615,5925.0
-0.585,-1.535,5927.777777777777
-0.705,-1.42,5930.555555555556
-0.745,-1.295,5933.333333333333
-0.75,-1.185,5936.111111111111
-0.72,-1.08,5938.888888888889
-0.695,-1.0,5941.666666666667
-0.7,-0.93,5944.444444444444
-0.695,-0.88,5947.222222222223
-0.69,-0.82,5950.0
-0.685,-0.755,5952.777777777777
-0.68,-0.695,5955.555555555556
-0.685,-0.62,5958.333333333333
-0.69,-0.555,5961.111111111111
-0.715,-0.515,5963.888888888889
-0.715,-0.465,5966.666666666667
-0.71,-0.455,5969.444444444444
-0.715,-0.44,5972.222222222223
-0.71,-0.435,5975.0
-0.725,-0.425,5977.777777777777
-0.7,-0.42,5980.555555555556
-0.71,-0.42,5983.333333333333
-0.715,-0.405,5986.111111111111
-0.72,-0.415,5988.888888888889
-0.725,-0.425,5991.666666666667
-0.73,-0.42,5994.444444444444
-0.74,-0.415,5997.222222222223
-0.745,-0.42,6000.0
-0.755,-0.41,6002.777777777777
-0.755,-0.395,6005.555555555556
-0.76,-0.39,6008.333333333333
-0.745,-0.38,6011.111111111111
-0.735,-0.385,6013.888888888889
-0.74,-0.39,6016.666666666667
-0.74,-0.405,6019.444444444444
-0.755,-0.4,6022.222222222223
-0.765,-0.405,6025.0
-0.77,-0.4,6027.777777777777
-0.78,-0.395,6030.555555555556
-0.77,-0.39,6033.333333333333
-0.78,-0.39,6036.111111111111
-0.775,-0.36,6038.888888888889
-0.78,-0.37,6041.666666666667
-0.765,-0.365,6044.444444444444
-0.775,-0.365,6047.222222222223
-0.785,-0.375,6050.0
-0.78,-0.375,6052.777777777777
-0.78,-0.375,6055.555555555556
-0.795,-0.385,6058.333333333333
-0.8,-0.39,6061.111111111111
-0.82,-0.38,6063.888888888889
-0.81,-0.375,6066.666666666667
-0.81,-0.37,6069.444444444444
-0.805,-0.36,6072.222222222223
-0.81,-0.345,6075.0
-0.805,-0.34,6077.777777777777
-0.81,-0.33,6080.555555555556
-0.81,-0.35,6083.333333333333
-0.825,-0.345,6086.111111111111
-0.825,-0.36,6088.888888888889
-0.845,-0.35,6091.666666666667
-0.855,-0.37,6094.444444444444
-0.855,-0.355,6097.222222222223
-0.86,-0.345,6100.0
-0.875,-0.335,6102.777777777777
-0.87,-0.335,6105.555555555556
-0.87,-0.32,6108.333333333333
-0.87,-0.305,6111.111111111111
-0.875,-0.3,6113.888888888889
-0.88,-0.295,6116.666666666667
-0.875,-0.31,6119.444444444444
-0.895,-0.3,6122.222222222223
-0.895,-0.305,6125.0
-0.91,-0.3,6127.777777777777
-0.915,-0.285,6130.555555555556
-0.915,-0.295,6133.333333333333
-0.93,-0.275,6136.111111111111
-0.915,-0.265,6138.888888888889
-0.915,-0.25,6141.666666666667
-0.905,-0.24,6144.444444444444
-0.895,-0.24,6147.222222222223
-0.9,-0.225,6150.0
-0.9,-0.235,6152.777777777777
-0.895,-0.23,6155.555555555556
-0.905,-0.24,6158.333333333333
-0.9,-0.235,6161.111111111111
-0.92,-0.23,6163.888888888889
-0.905,-0.225,6166.666666666667
-0.89,-0.22,6169.444444444444
-0.87,-0.21,6172.222222222223
-0.86,-0.19,6175.0
-0.84,-0.19,6177.777777777777
-0.83,-0.19,6180.555555555556
-0.815,-0.2,6183.333333333333
-0.81,-0.21,6186.111111111111
-0.8,-0.22,6188.888888888889
-0.785,-0.22,6191.666666666667
-0.77,-0.235,6194.444444444444
-0.76,-0.24,6197.222222222223
-0.75,-0.25,6200.0
-0.725,-0.235,6202.777777777777
-0.715,-0.245,6205.555555555556
-0.69,-0.235,6208.333333333333
-0.67,-0.24,6211.111111111111
-0.655,-0.26,6213.888888888889
-0.655,-0.255,6216.666666666667
-0.65,-0.285,6219.444444444444
-0.64,-0.3,6222.222222222223
-0.65,-0.305,6225.0
-0.655,-0.32,6227.777777777777
-0.66,-0.335,6230.555555555556
-0.65,-0.33,6233.333333333333
-0.64,-0.325,6236.111111111111
-0.64,-0.32,6238.888888888889
-0.625,-0.325,6241.666666666667
-0.615,-0.325,6244.444444444444
-0.61,-0.325,6247.222222222223
-0.62,-0.335,6250.0
-0.625,-0.345,6252.777777777777
-0.63,-0.37,6255.555555555556
-0.63,-0.37,6258.333333333333
-0.63,-0.395,6261.111111111111
-0.63,-0.395,6263.888888888889
-0.64,-0.38,6266.666666666667
-0.645,-0.385,6269.444444444444
-0.645,-0.38,6272.222222222223
-0.61,-0.37,6275.0
-0.62,-0.37,6277.777777777777
-0.61,-0.38,6280.555555555556
-0.61,-0.37,6283.333333333333
-0.62,-0.39,6286.111111111111
-0.635,-0.41,6288.888888888889
-0.635,-0.405,6291.666666666667
-0.645,-0.42,6294.444444444444
-0.65,-0.42,6297.222222222223
-0.64,-0.41,6300.0
-0.65,-0.395,6302.777777777777
-0.635,-0.4,6305.555555555556
-0.65,-0.39,6308.333333333333
-0.645,-0.37,6311.111111111111
-0.64,-0.385,6313.888888888889
-0.655,-0.39,6316.666666666667
-0.665,-0.39,6319.444444444444
-0.665,-0.4,6322.222222222223
-0.67,-0.41,6325.0
-0.67,-0.41,6327.777777777777
-0.675,-0.405,6330.555555555556
-0.67,-0.405,6333.333333333333
-0.68,-0.395,6336.111111111111
-0.665,-0.385,6338.888888888889
-0.655,-0.38,6341.666666666667
-0.655,-0.37,6344.444444444444
-0.655,-0.37,6347.222222222223
-0.655,-0.385,6350.0
-0.655,-0.39,6352.777777777777
-0.66,-0.385,6355.555555555556
-0.68,-0.385,6358.333333333333
-0.67,-0.395,6361.111111111111
-0.68,-0.385,6363.888888888889
-0.68,-0.39,6366.666666666667
-0.67,-0.38,6369.444444444444
-0.665,-0.38,6372.222222222223
-0.66,-0.365,6375.0
-0.66,-0.365,6377.777777777777
-0.64,-0.36,6380.555555555556
-0.65,-0.38,6383.333333333333
-0.645,-0.375,6386.111111111111
-0.645,-0.395,6388.888888888889
-0.645,-0.385,6391.666666666667
-0.65,-0.405,6394.444444444444
-0.645,-0.39,6397.222222222223
-0.64,-0.395,6400.0
-0.635,-0.38,6402.777777777777
-0.635,-0.385,6405.555555555556
-0.64,-0.37,6408.333333333333
-0.62,-0.365,6411.111111111111
-0.6,-0.37,6413.888888888889
-0.6,-0.38,6416.666666666667
-0.595,-0.385,6419.444444444444
-0.595,-0.38,6422.222222222223
-0.605,-0.39,6425.0
-0.6,-0.4,6427.777777777777
-0.595,-0.39,6430.555555555556
-0.59,-0.385,6433.333333333333
-0.595,-0.385,6436.111111111111
-0.58,-0.375,6438.888888888889
-0.575,-0.36,6441.666666666667
-0.555,-0.36,6444.444444444444
-0.555,-0.35,6447.222222222223
-0.545,-0.35,6450.0
-0.53,-0.37,6452.777777777777
-0.54,-0.36,6455.555555555556
-0.525,-0.37,6458.333333333333
-0.52,-0.36,6461.111111111111
-0.52,-0.36,6463.888888888889
-0.5,-0.365,6466.666666666667
-0.49,-0.36,6469.444444444444
-0.465,-0.36,6472.222222222223
-0.455,-0.37,6475.0
-0.44,-0.37,6477.777777777777
-0.43,-0.385,6480.555555555556
-0.445,-0.4,6483.333333333333
-0.445,-0.425,6486.111111111111
-0.47,-0.455,6488.888888888889
-0.475,-0.455,6491.666666666667
-0.505,-0.465,6494.444444444444
-0.525,-0.465,6497.222222222223
-0.535,-0.44,6500.0
-0.55,-0.415,6502.777777777777
-0.55,-0.4,6505.555555555556
-0.56,-0.39,6508.333333333333
-0.57,-0.375,6511.111111111111
-0.575,-0.385,6513.888888888889
-0.605,-0.385,6516.666666666667
-0.61,-0.385,6519.444444444444
-0.63,-0.38,6522.222222222223
-0.635,-0.39,6525.0
-0.655,-0.39,6527.777777777777
-0.65,-0.385,6530.555555555556
-0.65,-0.395,6533.333333333333
-0.65,-0.385,6536.111111111111
-0.64,-0.375,6538.888888888889
-0.635,-0.375,6541.666666666667
-0.63,-0.355,6544.444444444444
-0.61,-0.365,6547.222222222223
-0.63,-0.38,6550.0
-0.62,-0.385,6552.777777777777
-0.63,-0.385,6555.555555555556
-0.61,-0.4,6558.333333333333
-0.615,-0.4,6561.111111111111
-0.625,-0.4,6563.888888888889
-0.605,-0.4,6566.666666666667
-0.595,-0.39,6569.444444444444
-0.585,-0.375,6572.222222222223
-0.57,-0.375,6575.0
-0.535,-0.375,6577.777777777777
-0.5,-0.38,6580.555555555556
-0.455,-0.385,6583.333333333333
-0.395,-0.4,6586.111111111111
-0.32,-0.405,6588.888888888889
-0.22,-0.4,6591.666666666667
-0.095,-0.415,6594.444444444444
0.04,-0.415,6597.222222222223
0.21,-0.44,6600.0
0.4,-0.465,6602.777777777777
0.625,-0.515,6605.555555555556
0.815,-0.575,6608.333333333333
0.99,-0.68,6611.111111111111
1.12,-0.795,6613.888888888889
1.215,-0.94,6616.666666666667
1.285,-1.05,6619.444444444444
1.345,-1.17,6622.222222222223
1.33,-1.29,6625.0
1.215,-1.41,6627.777777777777
1.035,-1.515,6630.555555555556
0.74,-1.585,6633.333333333333
0.395,-1.635,6636.111111111111
0.05,-1.635,6638.888888888889
-0.25,-1.6,6641.666666666667
-0.5,-1.535,6644.444444444444
-0.64,-1.445,6647.222222222223
-0.73,-1.34,6650.0
-0.76,-1.23,6652.777777777777
-0.755,-1.125,6655.555555555556
-0.75,-1.03,6658.333333333333
-0.75,-0.95,6661.111111111111
-0.755,-0.875,6663.888888888889
-0.75,-0.795,6666.666666666667
-0.74,-0.725,6669.444444444444
-0.725,-0.64,6672.222222222223
-0.715,-0.555,6675.0
-0.715,-0.485,6677.777777777777
-0.705,-0.43,6680.555555555556
-0.715,-0.395,6683.333333333333
-0.72,-0.38,6686.111111111111
-0.75,-0.365,6688.888888888889
-0.74,-0.385,6691.666666666667
-0.755,-0.37,6694.444444444444
-0.765,-0.365,6697.222222222223
-0.76,-0.36,6700.0
-0.755,-0.355,6702.777777777777
-0.76,-0.345,6705.555555555556
-0.76,-0.33,6708.333333333333
-0.765,-0.325,6711.111111111111
-0.745,-0.325,6713.888888888889
-0.76,-0.325,6716.666666666667
-0.755,-0.32,6719.444444444444
-0.77,-0.34,6722.222222222223
-0.76,-0.345,6725.0
-0.765,-0.34,6727.777777777777
-0.77,-0.345,6730.555555555556
-0.77,-0.335,6733.333333333333
-0.77,-0.325,6736.111111111111
-0.775,-0.32,6738.888888888889
-0.77,-0.315,6741.666666666667
-0.765,-0.31,6744.444444444444
-0.765,-0.315,6747.222222222223
-0.775,-0.32,6750.0
-0.77,-0.315,6752.777777777777
-0.79,-0.315,6755.555555555556
-0.8,-0.33,6758.333333333333
-0.8,-0.33,6761.111111111111
-0.805,-0.33,6763.888888888889
-0.805,-0.315,6766.666666666667
-0.8,-0.31,6769.444444444444
-0.8,-0.295,6772.222222222223
-0.81,-0.305,6775.0
-0.8,-0.3,6777.777777777777
-0.8,-0.29,6780.555555555556
-0.815,-0.295,6783.333333333333
-0.815,-0.305,6786.111111111111
-0.82,-0.305,6788.888888888889
-0.845,-0.3,6791.666666666667
-0.85,-0.325,6794.444444444444
-0.845,-0.305,6797.222222222223
-0.835,-0.315,6800.0
-0.84,-0.29,6802.777777777777
-0.84,-0.28,6805.555555555556
-0.83,-0.28,6808.333333333333
-0.83,-0.27,6811.111111111111
-0.83,-0.26,6813.888888888889
-0.84,-0.28,6816.666666666667
-0.855,-0.27,6819.444444444444
-0.86,-0.28,6822.222222222223
-0.865,-0.28,6825.0
-0.895,-0.27,6827.777777777777
-0.905,-0.285,6830.555555555556
-0.9,-0.27,6833.333333333333
-0.9,-0.26,6836.111111111111
-0.9,-0.24,6838.888888888889
-0.89,-0.23,6841.666666666667
-0.895,-0.22,6844.444444444444
-0.89,-0.215,6847.222222222223
-0.89,-0.215,6850.0
-0.91,-0.225,6852.777777777777
-0.92,-0.215,6855.555555555556
-0.92,-0.22,6858.333333333333
-0.915,-0.225,6861.111111111111
-0.92,-0.215,6863.888888888889
-0.92,-0.195,6866.666666666667
-0.915,-0.185,6869.444444444444
-0.9,-0.17,6872.222222222223
-0.89,-0.165,6875.0
-0.895,-0.155,6877.777777777777
-0.87,-0.135,6880.555555555556
-0.865,-0.16,6883.333333333333
-0.86,-0.145,6886.111111111111
-0.87,-0.16,6888.888888888889
-0.85,-0.16,6891.666666666667
-0.855,-0.17,6894.444444444444
-0.835,-0.155,6897.222222222223
-0.82,-0.16,6900.0
-0.795,-0.155,6902.777777777777
-0.77,-0.15,6905.555555555556
-0.745,-0.15,6908.333333333333
-0.74,-0.15,6911.111111111111
-0.7,-0.15,6913.888888888889
-0.69,-0.175,6916.666666666667
-0.68,-0.18,6919.444444444444
-0.68,-0.19,6922.222222222223
-0.67,-0.21,6925.0
-0.67,-0.215,6927.777777777777
-0.66,-0.23,6930.555555555556
-0.65,-0.23,6933.333333333333
-0.65,-0.23,6936.111111111111
-0.63,-0.24,6938.888888888889
-0.62,-0.25,6941.666666666667
-0.615,-0.235,6944.444444444444
-0.6,-0.245,6947.222222222223
-0.595,-0.265,6950.0
-0.6,-0.265,6952.777777777777
-0.6,-0.28,6955.555555555556
-0.605,-0.29,6958.333333333333
-0.61,-0.295,6961.111111111111
-0.615,-0.31,6963.888888888889
-0.61,-0.305,6966.666666666667
-0.61,-0.3,6969.444444444444
-0.615,-0.3,6972.222222222223
-0.605,-0.29,6975.0
-0.6,-0.29,6977.777777777777
-0.6,-0.295,6980.555555555556
-0.585,-0.305,6983.333333333333
-0.59,-0.32,6986.111111111111
-0.59,-0.31,6988.888888888889
-0.595,-0.34,6991.666666666667
-0.615,-0.34,6994.444444444444
-0.62,-0.34,6997.222222222223
-0.615,-0.325,7000.0
-0.62,-0.32,7002.777777777777
-0.605,-0.315,7005.555555555556
-0.605,-0.305,7008.333333333333
-0.595,-0.315,7011.111111111111
-0.595,-0.3,7013.888888888889
-0.585,-0.32,7016.666666666667
-0.595,-0.305,7019.444444444444
-0.605,-0.325,7022.222222222223
-0.61,-0.335,7025.0
-0.615,-0.33,7027.777777777777
-0.63,-0.335,7030.555555555556
-0.625,-0.33,7033.333333333333
-0.625,-0.315,7036.111111111111
-0.625,-0.31,7038.888888888889
-0.62,-0.305,7041.666666666667
-0.61,-0.3,7044.444444444444
-0.615,-0.305,7047.222222222223
-0.605,-0.31,7050.0
-0.61,-0.31,7052.777777777777
-0.62,-0.305,7055.555555555556
-0.63,-0.315,7058.333333333333
-0.63,-0.315,7061.111111111111
-0.625,-0.32,7063.888888888889
-0.635,-0.315,7066.666666666667
-0.64,-0.3,7069.444444444444
-0.63,-0.29,7072.222222222223
-0.63,-0.285,7075.0
-0.63,-0.28,7077.777777777777
-0.63,-0.28,7080.555555555556
-0.62,-0.28,7083.333333333333
-0.625,-0.29,7086.111111111111
-0.63,-0.3,7088.888888888889
-0.63,-0.3,7091.666666666667
-0.63,-0.31,7094.444444444444
-0.635,-0.3,7097.222222222223
-0.635,-0.29,7100.0
-0.625,-0.29,7102.777777777777
-0.62,-0.28,7105.555555555556
-0.615,-0.28,7108.333333333333
-0.605,-0.27,7111.111111111111
-0.595,-0.27,7113.888888888889
-0.585,-0.285,7116.666666666667
-0.59,-0.28,7119.444444444444
-0.585,-0.28,7122.222222222223
-0.59,-0.29,7125.0
-0.6,-0.3,7127.777777777777
-0.595,-0.295,7130.555555555556
-0.585,-0.285,7133.333333333333
-0.58,-0.275,7136.111111111111
-0.565,-0.27,7138.888888888889
-0.555,-0.27,7141.666666666667
-0.545,-0.255,7144.444444444444
-0.535,-0.255,7147.222222222223
-0.525,-0.255,7150.0
-0.53,-0.26,7152.777777777777
-0.535,-0.275,7155.555555555556
-0.54,-0.285,7158.333333333333
-0.53,-0.27,7161.111111111111
-0.53,-0.27,7163.888888888889
-0.515,-0.265,7166.666666666667
-0.52,-0.26,7169.444444444444
-0.505,-0.245,7172.222222222223
-0.48,-0.24,7175.0
-0.48,-0.23,7177.777777777777
-0.465,-0.23,7180.555555555556
-0.435,-0.245,7183.333333333333
-0.415,-0.245,7186.111111111111
-0.41,-0.26,7188.888888888889
-0.405,-0.27,7191.666666666667
-0.405,-0.29,7194.444444444444
-0.42,-0.3,7197.222222222223
-0.415,-0.305,7200.0
-0.43,-0.31,7202.777777777777
-0.425,-0.32,7205.555555555556
-0.425,-0.33,7208.333333333333
-0.435,-0.33,7211.111111111111
-0.425,-0.32,7213.888888888889
-0.44,-0.31,7216.666666666667
-0.45,-0.31,7219.444444444444
-0.475,-0.32,7222.222222222223
-0.485,-0.305,7225.0
-0.505,-0.3,7227.777777777777
-0.525,-0.305,7230.555555555556
-0.54,-0.295,7233.333333333333
-0.545,-0.285,7236.111111111111
-0.535,-0.265,7238.888888888889
-0.55,-0.26,7241.666666666667
-0.555,-0.26,7244.444444444444
-0.56,-0.245,7247.222222222223
-0.575,-0.26,7250.0
-0.585,-0.265,7252.777777777777
-0.595,-0.265,7255.555555555556
-0.605,-0.27,7258.333333333333
-0.615,-0.275,7261.111111111111
-0.615,-0.28,7263.888888888889
-0.605,-0.265,7266.666666666667
-0.61,-0.27,7269.444444444444
-0.605,-0.245,7272.222222222223
-0.595,-0.255,7275.0
-0.595,-0.24,7277.777777777777
-0.59,-0.25,7280.555555555556
-0.58,-0.255,7283.333333333333
-0.575,-0.27,7286.111111111111
-0.585,-0.27,7288.888888888889
-0.575,-0.285,7291.666666666667
-0.575,-0.28,7294.444444444444
-0.585,-0.295,7297.222222222223
-0.58,-0.28,7300.0
-0.555,-0.285,7302.777777777777
-0.56,-0.285,7305.555555555556
-0.535,-0.27,7308.333333333333
-0.485,-0.27,7311.111111111111
-0.43,-0.265,7313.888888888889
-0.365,-0.27,7316.666666666667
-0.275,-0.26,7319.444444444444
-0.16,-0.285,7322.222222222223
-0.025,-0.29,7325.0
0.12,-0.305,7327.777777777777
0.285,-0.315,7330.555555555556
0.48,-0.34,7333.333333333333
0.665,-0.38,7336.111111111111
0.845,-0.46,7338.888888888889
0.995,-0.545,7341.666666666667
1.11,-0.655,7344.444444444444
1.2,-0.78,7347.222222222223
1.27,-0.885,7350.0
1.335,-0.995,7352.777777777777
1.36,-1.095,7355.555555555556
1.29,-1.2,7358.333333333333
1.105,-1.32,7361.111111111111
0.815,-1.41,7363.888888888889
0.445,-1.465,7366.666666666667
0.075,-1.485,7369.444444444444
-0.275,-1.46,7372.222222222223
-0.53,-1.395,7375.0
-0.69,-1.28,7377.777777777777
-0.75,-1.165,7380.555555555556
-0.77,-1.05,7383.333333333333
-0.76,-0.945,7386.111111111111
-0.745,-0.87,7388.888888888889
-0.72,-0.81,7391.666666666667
-0.72,-0.75,7394.444444444444
-0.72,-0.69,7397.222222222223
-0.71,-0.635,7400.0
-0.705,-0.565,7402.777777777777
-0.685,-0.495,7405.555555555556
-0.69,-0.43,7408.333333333333
-0.685,-0.37,7411.111111111111
-0.67,-0.315,7413.888888888889
-0.675,-0.29,7416.666666666667
-0.68,-0.27,7419.444444444444
-0.705,-0.27,7422.222222222223
-0.705,-0.265,7425.0
-0.715,-0.285,7427.777777777777
-0.715,-0.28,7430.555555555556
-0.72,-0.25,7433.333333333333
-0.72,-0.255,7436.111111111111
-0.715,-0.24,7438.888888888889
-0.715,-0.225,7441.666666666667
-0.715,-0.215,7444.444444444444
-0.695,-0.21,7447.222222222223
-0.715,-0.23,7450.0
-0.72,-0.225,7452.777777777777
-0.73,-0.22,7455.555555555556
-0.72,-0.23,7458.333333333333
-0.74,-0.23,7461.111111111111
-0.75,-0.23,7463.888888888889
-0.745,-0.22,7466.666666666667
-0.75,-0.215,7469.444444444444
-0.74,-0.195,7472.222222222223
-0.735,-0.2,7475.0
-0.735,-0.19,7477.777777777777
-0.735,-0.19,7480.555555555556
-0.73,-0.2,7483.333333333333
-0.745,-0.185,7486.111111111111
-0.755,-0.2,7488.888888888889
-0.765,-0.21,7491.666666666667
-0.765,-0.21,7494.444444444444
-0.77,-0.195,7497.222222222223
-0.775,-0.195,7500.0
-0.78,-0.19,7502.777777777777
-0.78,-0.185,7505.555555555556
-0.765,-0.175,7508.333333333333
-0.755,-0.155,7511.111111111111
-0.755,-0.165,7513.888888888889
-0.765,-0.18,7516.666666666667
-0.765,-0.17,7519.444444444444
-0.775,-0.18,7522.222222222223
-0.79,-0.175,7525.0
-0.805,-0.195,7527.777777777777
-0.815,-0.185,7530.555555555556
-0.81,-0.17,7533.333333333333
-0.82,-0.175,7536.111111111111
-0.82,-0.15,7538.888888888889
-0.815,-0.15,7541.666666666667
-0.805,-0.14,7544.444444444444
-0.815,-0.125,7547.222222222223
-0.815,-0.145,7550.0
-0.83,-0.14,7552.777777777777
-0.84,-0.15,7555.555555555556
-0.845,-0.15,7558.333333333333
-0.845,-0.145,7561.111111111111
-0.86,-0.145,7563.888888888889
-0.865,-0.135,7566.666666666667
-0.865,-0.12,7569.444444444444
-0.87,-0.1,7572.222222222223
-0.855,-0.1,7575.0
-0.85,-0.095,7577.777777777777
-0.865,-0.075,7580.555555555556
-0.87,-0.09,7583.333333333333
-0.875,-0.09,7586.111111111111
-0.88,-0.085,7588.888888888889
-0.885,-0.08,7591.666666666667
-0.885,-0.075,7594.444444444444
-0.89,-0.075,7597.222222222223
-0.89,-0.075,7600.0
-0.89,-0.05,7602.777777777777
-0.87,-0.05,7605.555555555556
-0.86,-0.03,7608.333333333333
-0.855,-0.03,7611.111111111111
-0.84,-0.02,7613.888888888889
-0.835,-0.025,7616.666666666667
-0.835,-0.035,7619.444444444444
-0.825,-0.035,7622.222222222223
-0.835,-0.035,7625.0
-0.835,-0.05,7627.777777777777
-0.82,-0.045,7630.555555555556
-0.825,-0.035,7633.333333333333
-0.815,-0.035,7636.111111111111
-0.79,-0.04,7638.888888888889
-0.77,-0.01,7641.666666666667
-0.745,-0.005,7644.444444444444
-0.725,-0.01,7647.222222222223
-0.72,-0.03,7650.0
-0.695,-0.035,7652.777777777777
-0.7,-0.055,7655.555555555556
-0.69,-0.05,7658.333333333333
-0.685,-0.06,7661.111111111111
-0.68,-0.07,7663.888888888889
-0.675,-0.07,7666.666666666667
-0.665,-0.065,7669.444444444444
-0.635,-0.065,7672.222222222223
-0.63,-0.07,7675.0
-0.615,-0.07,7677.777777777777
-0.605,-0.08,7680.555555555556
-0.595,-0.09,7683.333333333333
-0.595,-0.095,7686.111111111111
-0.6,-0.115,7688.888888888889
-0.6,-0.135,7691.666666666667
-0.6,-0.14,7694.444444444444
-0.6,-0.15,7697.222222222223
-0.605,-0.14,7700.0
-0.605,-0.15,7702.777777777777
-0.6,-0.14,7705.555555555556
-0.595,-0.135,7708.333333333333
-0.58,-0.15,7711.111111111111
-0.565,-0.145,7713.888888888889
-0.565,-0.15,7716.666666666667
-0.585,-0.165,7719.444444444444
-0.59,-0.185,7722.222222222223
-0.59,-0.19,7725.0
-0.59,-0.19,7727.777777777777
-0.605,-0.195,7730.555555555556
-0.61,-0.175,7733.333333333333
-0.615,-0.19,7736.111111111111
-0.62,-0.185,7738.888888888889
-0.61,-0.17,7741.666666666667
-0.6,-0.18,7744.444444444444
-0.58,-0.17,7747.222222222223
-0.59,-0.19,7750.0
-0.59,-0.195,7752.777777777777
-0.605,-0.205,7755.555555555556
-0.605,-0.2,7758.333333333333
-0.61,-0.2,7761.111111111111
-0.62,-0.21,7763.888888888889
-0.625,-0.2,7766.666666666667
-0.63,-0.205,7769.444444444444
-0.615,-0.185,7772.222222222223
-0.625,-0.185,7775.0
-0.61,-0.18,7777.777777777777
-0.615,-0.175,7780.555555555556
-0.615,-0.18,7783.333333333333
-0.625,-0.18,7786.111111111111
-0.635,-0.2,7788.888888888889
-0.625,-0.2,7791.666666666667
-0.66,-0.195,7794.444444444444
-0.65,-0.2,7797.222222222223
-0.655,-0.19,7800.0
-0.665,-0.195,7802.777777777777
-0.655,-0.185,7805.555555555556
-0.65,-0.18,7808.333333333333
-0.645,-0.18,7811.111111111111
-0.625,-0.165,7813.888888888889
-0.615,-0.18,7816.666666666667
-0.625,-0.18,7819.444444444444
-0.63,-0.19,7822.222222222223
-0.625,-0.195,7825.0
-0.64,-0.21,7827.777777777777
-0.65,-0.205,7830.555555555556
-0.65,-0.19,7833.333333333333
-0.65,-0.205,7836.111111111111
-0.645,-0.19,7838.888888888889
-0.64,-0.185,7841.666666666667
-0.645,-0.185,7844.444444444444
-0.61,-0.185,7847.222222222223
-0.615,-0.195,7850.0
-0.61,-0.185,7852.777777777777
-0.615,-0.2,7855.555555555556
-0.635,-0.19,7858.333333333333
-0.615,-0.21,7861.111111111111
-0.635,-0.215,7863.888888888889
-0.625,-0.2,7866.666666666667
-0.615,-0.215,7869.444444444444
-0.61,-0.195,7872.222222222223
-0.605,-0.185,7875.0
-0.585,-0.18,7877.777777777777
-0.585,-0.175,7880.555555555556
-0.57,-0.185,7883.333333333333
-0.565,-0.185,7886.111111111111
-0.565,-0.185,7888.888888888889
-0.57,-0.21,7891.666666666667
-0.575,-0.215,7894.444444444444
-0.555,-0.21,7897.222222222223
-0.57,-0.2,7900.0
-0.56,-0.205,7902.777777777777
-0.555,-0.19,7905.555555555556
-0.54,-0.18,7908.333333333333
-0.525,-0.175,7911.111111111111
-0.505,-0.16,7913.888888888889
-0.475,-0.175,7916.666666666667
-0.47,-0.185,7919.444444444444
-0.45,-0.205,7922.222222222223
-0.445,-0.22,7925.0
-0.445,-0.225,7927.777777777777
-0.45,-0.255,7930.555555555556
-0.45,-0.265,7933.333333333333
-0.455,-0.28,7936.111111111111
-0.46,-0.285,7938.888888888889
-0.47,-0.28,7941.666666666667
-0.475,-0.255,7944.444444444444
-0.47,-0.255,7947.222222222223
-0.495,-0.235,7950.0
-0.515,-0.25,7952.777777777777
-0.535,-0.24,7955.555555555556
-0.55,-0.24,7958.333333333333
-0.57,-0.23,7961.111111111111
-0.59,-0.23,7963.888888888889
-0.595,-0.215,7966.666666666667
-0.61,-0.23,7969.444444444444
-0.615,-0.21,7972.222222222223
-0.625,-0.205,7975.0
-0.635,-0.195,7977.777777777777
-0.63,-0.195,7980.555555555556
-0.625,-0.21,7983.333333333333
-0.625,-0.205,7986.111111111111
-0.625,-0.21,7988.888888888889
-0.625,-0.22,7991.666666666667
-0.625,-0.23,7994.444444444444
-0.64,-0.23,7997.222222222223
-0.64,-0.23,8000.0
-0.66,-0.225,8002.777777777777
-0.645,-0.225,8005.555555555556
-0.64,-0.205,8008.333333333333
-0.615,-0.195,8011.111111111111
-0.6,-0.21,8013.888888888889
-0.595,-0.225,8016.666666666667
-0.585,-0.22,8019.444444444444
-0.585,-0.225,8022.222222222223
-0.585,-0.235,8025.0
-0.585,-0.235,8027.777777777777
-0.575,-0.245,8030.555555555556
-0.555,-0.235,8033.333333333333
-0.52,-0.22,8036.111111111111
-0.495,-0.22,8038.888888888889
-0.435,-0.225,8041.666666666667
-0.37,-0.22,8044.444444444444
-0.285,-0.21,8047.222222222223
-0.19,-0.22,8050.0
-0.075,-0.22,8052.777777777777
0.035,-0.225,8055.555555555556
0.21,-0.25,8058.333333333333
0.39,-0.27,8061.111111111111
0.58,-0.3,8063.888888888889
0.78,-0.375,8066.666666666667
0.945,-0.465,8069.444444444444
1.09,-0.56,8072.222222222223
1.185,-0.68,8075.0
1.295,-0.78,8077.777777777777
1.36,-0.89,8080.555555555556
1.375,-1.015,8083.333333333333
1.27,-1.125,8086.111111111111
1.005,-1.25,8088.888888888889
0.62,-1.33,8091.666666666667
0.145,-1.385,8094.444444444444
-0.29,-1.375,8097.222222222223
-0.615,-1.305,8100.0
-0.825,-1.2,8102.777777777777
-0.905,-1.06,8105.555555555556
-0.905,-0.93,8108.333333333333
-0.86,-0.83,8111.111111111111
-0.81,-0.725,8113.888888888889
-0.765,-0.66,8116.666666666667
-0.74,-0.6,8119.444444444444
-0.73,-0.535,8122.222222222223
-0.715,-0.465,8125.0
-0.735,-0.395,8127.777777777777
-0.74,-0.34,8130.555555555556
-0.75,-0.28,8133.333333333333
-0.755,-0.25,8136.111111111111
-0.745,-0.215,8138.888888888889
-0.74,-0.21,8141.666666666667
-0.75,-0.2,8144.444444444444
-0.76,-0.2,8147.222222222223
-0.755,-0.215,8150.0
-0.755,-0.185,8152.777777777777
-0.76,-0.2,8155.555555555556
-0.75,-0.205,8158.333333333333
-0.77,-0.2,8161.111111111111
-0.78,-0.205,8163.888888888889
-0.78,-0.19,8166.666666666667
-0.775,-0.185,8169.444444444444
-0.775,-0.185,8172.222222222223
-0.775,-0.17,8175.0
-0.78,-0.155,8177.777777777777
-0.765,-0.15,8180.555555555556
-0.78,-0.16,8183.333333333333
-0.77,-0.175,8186.111111111111
-0.78,-0.175,8188.888888888889
-0.795,-0.18,8191.666666666667
-0.795,-0.175,8194.444444444445
-0.8,-0.18,8197.222222222223
-0.81,-0.17,8200.0
-0.815,-0.165,8202.777777777777
-0.805,-0.15,8205.555555555555
-0.8,-0.15,8208.333333333334
-0.79,-0.14,8211.111111111111
-0.79,-0.14,8213.888888888889
-0.795,-0.15,8216.666666666666
-0.795,-0.15,8219.444444444445
-0.815,-0.17,8222.222222222223
-0.835,-0.16,8225.0
-0.845,-0.165,8227.777777777777
-0.845,-0.16,8230.555555555555
-0.84,-0.165,8233.333333333334
-0.845,-0.155,8236.111111111111
-0.82,-0.135,8238.888888888889
-0.83,-0.145,8241.666666666666
-0.815,-0.135,8244.444444444445
-0.81,-0.125,8247.222222222223
-0.825,-0.135,8250.0
-0.825,-0.135,8252.777777777777
-0.825,-0.13,8255.555555555555
-0.845,-0.145,8258.333333333334
-0.855,-0.14,8261.111111111111
-0.86,-0.14,8263.888888888889
-0.875,-0.14,8266.666666666666
-0.875,-0.12,8269.444444444445
-0.865,-0.125,8272.222222222223
-0.865,-0.12,8275.0
-0.87,-0.1,8277.777777777777
-0.87,-0.09,8280.555555555555
-0.87,-0.1,8283.333333333334
-0.89,-0.1,8286.111111111111
-0.89,-0.1,8288.888888888889
-0.89,-0.1,8291.666666666666
-0.915,-0.115,8294.444444444445
-0.915,-0.1,8297.222222222223
-0.915,-0.09,8300.0
-0.915,-0.085,8302.777777777777
-0.925,-0.07,8305.555555555555
-0.905,-0.05,8308.333333333334
-0.91,-0.045,8311.111111111111
-0.905,-0.04,8313.888888888889
-0.905,-0.04,8316.666666666666
-0.91,-0.04,8319.444444444445
-0.93,-0.04,8322.222222222223
-0.91,-0.035,8325.0
-0.91,-0.04,8327.777777777777
-0.915,-0.045,8330.555555555555
-0.91,-0.03,8333.333333333334
-0.9,-0.01,8336.111111111111
-0.88,-0.005,8338.888888888889
-0.865,-0.01,8341.666666666666
-0.85,0.0,8344.444444444445
-0.83,0.015,8347.222222222223
-0.825,0.0,8350.0
-0.805,-0.005,8352.777777777777
-0.8,-0.01,8355.555555555555
-0.8,-0.015,8358.333333333334
-0.79,-0.03,8361.111111111111
-0.785,-0.03,8363.888888888889
-0.77,-0.025,8366.666666666666
-0.76,-0.035,8369.444444444445
-0.735,-0.03,8372.222222222223
-0.72,-0.02,8375.0
-0.715,-0.02,8377.777777777777
-0.7,-0.025,8380.555555555555
-0.69,-0.04,8383.333333333334
-0.685,-0.055,8386.111111111111
-0.66,-0.065,8388.888888888889
-0.665,-0.08,8391.666666666666
-0.67,-0.08,8394.444444444445
-0.665,-0.1,8397.222222222223
-0.66,-0.085,8400.0
-0.665,-0.09,8402.777777777777
-0.655,-0.085,8405.555555555555
-0.645,-0.09,8408.333333333334
-0.63,-0.1,8411.111111111111
-0.63,-0.085,8413.888888888889
-0.62,-0.1,8416.666666666666
-0.63,-0.11,8419.444444444445
-0.615,-0.13,8422.222222222223
-0.625,-0.135,8425.0
-0.64,-0.14,8427.777777777777
-0.64,-0.145,8430.555555555555
-0.65,-0.135,8433.333333333334
-0.65,-0.14,8436.111111111111
-0.665,-0.14,8438.888888888889
-0.65,-0.125,8441.666666666666
-0.635,-0.135,8444.444444444445
-0.645,-0.13,8447.222222222223
-0.635,-0.14,8450.0
-0.64,-0.145,8452.777777777777
-0.64,-0.15,8455.555555555555
-0.645,-0.16,8458.333333333334
-0.655,-0.17,8461.111111111111
-0.665,-0.18,8463.888888888889
-0.67,-0.175,8466.666666666666
-0.655,-0.165,8469.444444444445
-0.655,-0.165,8472.222222222223
-0.66,-0.16,8475.0
-0.645,-0.145,8477.777777777777
-0.645,-0.145,8480.555555555555
-0.655,-0.16,8483.333333333334
-0.66,-0.165,8486.111111111111
-0.665,-0.165,8488.888888888889
-0.675,-0.17,8491.666666666666
-0.685,-0.185,8494.444444444445
-0.69,-0.19,8497.222222222223
-0.685,-0.185,8500.0
-0.695,-0.17,8502.777777777777
-0.68,-0.17,8505.555555555555
-0.68,-0.165,8508.333333333334
-0.685,-0.165,8511.111111111111
-0.675,-0.165,8513.888888888889
-0.675,-0.165,8516.666666666666
-0.67,-0.165,8519.444444444445
-0.68,-0.185,8522.222222222223
-0.685,-0.185,8525.0
-0.7,-0.19,8527.777777777777
-0.695,-0.185,8530.555555555555
-0.705,-0.185,8533.333333333334
-0.715,-0.175,8536.111111111111
-0.705,-0.18,8538.888888888889
-0.71,-0.18,8541.666666666666
-0.69,-0.175,8544.444444444445
-0.69,-0.165,8547.222222222223
-0.685,-0.175,8550.0
-0.69,-0.17,8552.777777777777
-0.685,-0.185,8555.555555555555
-0.695,-0.19,8558.333333333334
-0.7,-0.19,8561.111111111111
-0.7,-0.19,8563.888888888889
-0.69,-0.195,8566.666666666666
-0.685,-0.185,8569.444444444445
-0.68,-0.175,8572.222222222223
-0.67,-0.185,8575.0
-0.685,-0.165,8577.777777777777
-0.66,-0.165,8580.555555555555
-0.655,-0.18,8583.333333333334
-0.67,-0.185,8586.111111111111
-0.67,-0.185,8588.888888888889
-0.67,-0.195,8591.666666666666
-0.665,-0.21,8594.444444444445
-0.67,-0.205,8597.222222222223
-0.67,-0.195,8600.0
-0.66,-0.195,8602.777777777777
-0.645,-0.185,8605.555555555555
-0.635,-0.19,8608.333333333334
-0.62,-0.175,8611.111111111111
-0.62,-0.175,8613.888888888889
-0.61,-0.18,8616.666666666666
-0.615,-0.19,8619.444444444445
-0.6,-0.2,8622.222222222223
-0.6,-0.21,8625.0
-0.6,-0.205,8627.777777777777
-0.61,-0.21,8630.555555555555
-0.6,-0.195,8633.333333333334
-0.58,-0.19,8636.111111111111
-0.57,-0.185,8638.888888888889
-0.565,-0.175,8641.666666666666
-0.545,-0.18,8644.444444444445
-0.525,-0.175,8647.222222222223
-0.515,-0.18,8650.0
-0.51,-0.19,8652.777777777777
-0.5,-0.205,8655.555555555555
-0.495,-0.205,8658.333333333334
-0.485,-0.23,8661.111111111111
-0.495,-0.24,8663.888888888889
-0.49,-0.25,8666.666666666666
-0.495,-0.25,8669.444444444445
-0.495,-0.26,8672.222222222223
-0.495,-0.265,8675.0
-0.49,-0.27,8677.777777777777
-0.485,-0.275,8680.555555555555
-0.495,-0.285,8683.333333333334
-0.5,-0.29,8686.111111111111
-0.52,-0.28,8688.888888888889
-0.535,-0.29,8691.666666666666
-0.565,-0.29,8694.444444444445
-0.58,-0.275,8697.222222222223
-0.6,-0.26,8700.0
-0.61,-0.255,8702.777777777777
-0.62,-0.24,8705.555555555555
-0.615,-0.23,8708.333333333334
-0.625,-0.23,8711.111111111111
-0.635,-0.21,8713.888888888889
-0.655,-0.235,8716.666666666666
-0.66,-0.23,8719.444444444445
-0.665,-0.23,8722.222222222223
-0.67,-0.235,8725.0
-0.685,-0.255,8727.777777777777
-0.675,-0.25,8730.555555555555
-0.68,-0.245,8733.333333333334
-0.68,-0.24,8736.111111111111
-0.67,-0.24,8738.888888888889
-0.655,-0.24,8741.666666666666
-0.655,-0.23,8744.444444444445
-0.64,-0.225,8747.222222222223
-0.64,-0.235,8750.0
-0.645,-0.245,8752.777777777777
-0.645,-0.245,8755.555555555555
-0.635,-0.25,8758.333333333334
-0.63,-0.27,8761.111111111111
-0.635,-0.265,8763.888888888889
-0.625,-0.265,8766.666666666666
-0.615,-0.26,8769.444444444445
-0.585,-0.26,8772.222222222223
-0.56,-0.25,8775.0
-0.53,-0.26,8777.777777777777
-0.49,-0.255,8780.555555555555
-0.44,-0.26,8783.333333333334
-0.355,-0.265,8786.111111111111
-0.275,-0.255,8788.888888888889
-0.155,-0.265,8791.666666666666
-0.03,-0.27,8794.444444444445
0.105,-0.285,8797.222222222223
0.3,-0.305,8800.0
0.515,-0.34,8802.777777777777
0.73,-0.395,8805.555555555555
0.915,-0.48,8808.333333333334
1.07,-0.59,8811.111111111111
1.175,-0.695,8813.888888888889
1.29,-0.805,8816.666666666666
1.375,-0.925,8819.444444444445
1.445,-1.03,8822.222222222223
1.42,-1.135,8825.0
1.27,-1.235,8827.777777777777
0.965,-1.325,8830.555555555555
0.58,-1.39,8833.333333333334
0.135,-1.42,8836.111111111111
-0.265,-1.415,8838.888888888889
-0.565,-1.35,8841.666666666666
-0.75,-1.255,8844.444444444445
-0.83,-1.15,8847.222222222223
-0.835,-1.04,8850.0
-0.81,-0.955,8852.777777777777
-0.775,-0.875,8855.555555555555
-0.745,-0.8,8858.333333333334
-0.735,-0.755,8861.111111111111
-0.735,-0.685,8863.888888888889
-0.735,-0.625,8866.666666666666
-0.72,-0.565,8869.444444444445
-0.71,-0.49,8872.222222222223
-0.71,-0.42,8875.0
-0.705,-0.365,8877.777777777777
-0.695,-0.325,8880.555555555555
-0.71,-0.3,8883.333333333334
-0.72,-0.295,8886.111111111111
-0.72,-0.29,8888.888888888889
-0.745,-0.31,8891.666666666666
-0.745,-0.305,8894.444444444445
-0.765,-0.3,8897.222222222223
-0.745,-0.3,8900.0
-0.75,-0.275,8902.777777777777
-0.76,-0.27,8905.555555555555
-0.75,-0.26,8908.333333333334
-0.735,-0.26,8911.111111111111
-0.73,-0.245,8913.888888888889
-0.735,-0.25,8916.666666666666
-0.73,-0.265,8919.444444444445
-0.74,-0.26,8922.222222222223
-0.755,-0.265,8925.0
-0.75,-0.28,8927.777777777777
-0.755,-0.275,8930.555555555555
-0.765,-0.27,8933.333333333334
-0.765,-0.26,8936.111111111111
-0.76,-0.25,8938.888888888889
-0.765,-0.24,8941.666666666666
-0.76,-0.235,8944.444444444445
-0.75,-0.245,8947.222222222223
-0.76,-0.235,8950.0
-0.765,-0.25,8952.777777777777
-0.775,-0.245,8955.555555555555
-0.795,-0.255,8958.333333333334
-0.79,-0.26,8961.111111111111
-0.8,-0.26,8963.888888888889
-0.805,-0.245,8966.666666666666
-0.795,-0.255,8969.444444444445
-0.8,-0.24,8972.222222222223
-0.8,-0.23,8975.0
-0.8,-0.21,8977.777777777777
-0.795,-0.22,8980.555555555555
-0.795,-0.22,8983.333333333334
-0.8,-0.235,8986.111111111111
-0.805,-0.225,8988.888888888889
-0.82,-0.235,8991.666666666666
-0.825,-0.25,8994.444444444445
-0.855,-0.25,8997.222222222223
-0.86,-0.24,9000.0
-0.845,-0.23,9002.777777777777
-0.84,-0.225,9005.555555555555
-0.84,-0.225,9008.333333333334
-0.84,-0.2,9011.111111111111
-0.835,-0.19,9013.888888888889
-0.835,-0.2,9016.666666666666
-0.835,-0.205,9019.444444444445
-0.855,-0.205,9022.222222222223
-0.86,-0.2,9025.0
-0.86,-0.2,9027.777777777777
-0.875,-0.205,9030.555555555555
-0.87,-0.195,9033.333333333334
-0.89,-0.18,9036.111111111111
-0.875,-0.155,9038.888888888889
-0.875,-0.155,9041.666666666666
-0.865,-0.15,9044.444444444445
-0.865,-0.145,9047.222222222223
-0.865,-0.16,9050.0
-0.87,-0.14,9052.777777777777
-0.88,-0.145,9055.555555555555
-0.875,-0.16,9058.333333333334
-0.885,-0.15,9061.111111111111
-0.89,-0.15,9063.888888888889
-0.885,-0.15,9066.666666666666
-0.875,-0.145,9069.444444444445
-0.865,-0.135,9072.222222222223
-0.865,-0.13,9075.0
-0.845,-0.125,9077.777777777777
-0.825,-0.115,9080.555555555555
-0.815,-0.12,9083.333333333334
-0.805,-0.13,9086.111111111111
-0.805,-0.13,9088.888888888889
-0.79,-0.13,9091.666666666666
-0.79,-0.145,9094.444444444445
-0.775,-0.155,9097.222222222223
-0.77,-0.135,9100.0
-0.755,-0.14,9102.777777777777
-0.725,-0.14,9105.555555555555
-0.705,-0.135,9108.333333333334
-0.685,-0.12,9111.111111111111
-0.665,-0.135,9113.888888888889
-0.645,-0.16,9116.666666666666
-0.635,-0.16,9119.444444444445
-0.63,-0.175,9122.222222222223
-0.625,-0.185,9125.0
-0.62,-0.2,9127.777777777777
-0.605,-0.215,9130.555555555555
-0.6,-0.215,9133.333333333334
-0.59,-0.22,9136.111111111111
-0.575,-0.225,9138.888888888889
-0.58,-0.22,9141.666666666666
-0.56,-0.225,9144.444444444445
-0.555,-0.225,9147.222222222223
-0.55,-0.235,9150.0
-0.555,-0.25,9152.777777777777
-0.56,-0.275,9155.555555555555
-0.565,-0.275,9158.333333333334
-0.57,-0.29,9161.111111111111
-0.575,-0.29,9163.888888888889
-0.565,-0.285,9166.666666666666
-0.57,-0.29,9169.444444444445
-0.565,-0.28,9172.222222222223
-0.56,-0.28,9175.0
-0.55,-0.275,9177.777777777777
-0.55,-0.285,9180.555555555555
-0.55,-0.3,9183.333333333334
-0.555,-0.295,9186.111111111111
-0.565,-0.305,9188.888888888889
-0.57,-0.31,9191.666666666666
-0.58,-0.325,9194.444444444445
-0.58,-0.33,9197.222222222223
-0.595,-0.33,9200.0
-0.6,-0.33,9202.777777777777
-0.59,-0.315,9205.555555555555
-0.59,-0.315,9208.333333333334
-0.565,-0.315,9211.111111111111
-0.565,-0.295,9213.888888888889
-0.56,-0.315,9216.666666666666
-0.57,-0.315,9219.444444444445
-0.575,-0.325,9222.222222222223
-0.58,-0.32,9225.0
-0.6,-0.335,9227.777777777777
-0.595,-0.345,9230.555555555555
-0.605,-0.33,9233.333333333334
-0.61,-0.33,9236.111111111111
-0.595,-0.32,9238.888888888889
-0.605,-0.32,9241.666666666666
-0.59,-0.31,9244.444444444445
-0.58,-0.305,9247.222222222223
-0.595,-0.31,9250.0
-0.615,-0.32,9252.777777777777
-0.6,-0.325,9255.555555555555
-0.61,-0.335,9258.333333333334
-0.625,-0.34,9261.111111111111
-0.615,-0.34,9263.888888888889
-0.625,-0.33,9266.666666666666
-0.635,-0.315,9269.444444444445
-0.62,-0.315,9272.222222222223
-0.615,-0.315,9275.0
-0.595,-0.3,9277.777777777777
-0.6,-0.295,9280.555555555555
-0.595,-0.31,9283.333333333334
-0.595,-0.32,9286.111111111111
-0.595,-0.32,9288.888888888889
-0.6,-0.33,9291.666666666666
-0.61,-0.335,9294.444444444445
-0.62,-0.345,9297.222222222223
-0.62,-0.335,9300.0
-0.615,-0.335,9302.777777777777
-0.605,-0.32,9305.555555555555
-0.605,-0.31,9308.333333333334
-0.595,-0.305,9311.111111111111
-0.585,-0.31,9313.888888888889
-0.585,-0.315,9316.666666666666
-0.575,-0.31,9319.444444444445
-0.575,-0.33,9322.222222222223
-0.59,-0.34,9325.0
-0.59,-0.34,9327.777777777777
-0.595,-0.335,9330.555555555555
-0.605,-0.345,9333.333333333334
-0.6,-0.335,9336.111111111111
-0.575,-0.33,9338.888888888889
-0.565,-0.325,9341.666666666666
-0.555,-0.325,9344.444444444445
-0.54,-0.315,9347.222222222223
-0.535,-0.32,9350.0
-0.545,-0.325,9352.777777777777
-0.545,-0.335,9355.555555555555
-0.525,-0.335,9358.333333333334
-0.525,-0.325,9361.111111111111
-0.525,-0.34,9363.888888888889
-0.52,-0.335,9366.666666666666
-0.51,-0.32,9369.444444444445
-0.515,-0.315,9372.222222222223
-0.5,-0.305,9375.0
-0.49,-0.305,9377.777777777777
-0.475,-0.305,9380.555555555555
-0.465,-0.31,9383.333333333334
-0.46,-0.3,9386.111111111111
-0.45,-0.315,9388.888888888889
-0.45,-0.32,9391.666666666666
-0.435,-0.33,9394.444444444445
-0.43,-0.335,9397.222222222223
-0.425,-0.345,9400.0
-0.42,-0.345,9402.777777777777
-0.41,-0.34,9405.555555555555
-0.405,-0.355,9408.333333333334
-0.395,-0.355,9411.111111111111
-0.39,-0.365,9413.888888888889
-0.395,-0.385,9416.666666666666
-0.405,-0.4,9419.444444444445
-0.42,-0.4,9422.222222222223
-0.43,-0.415,9425.0
-0.435,-0.41,9427.777777777777
-0.455,-0.41,9430.555555555555
-0.48,-0.395,9433.333333333334
-0.49,-0.385,9436.111111111111
-0.5,-0.36,9438.888888888889
-0.495,-0.35,9441.666666666666
-0.515,-0.345,9444.444444444445
-0.53,-0.335,9447.222222222223
-0.53,-0.34,9450.0
-0.53,-0.34,9452.777777777777
-0.545,-0.355,9455.555555555555
-0.57,-0.36,9458.333333333334
-0.585,-0.355,9461.111111111111
-0.605,-0.35,9463.888888888889
-0.62,-0.355,9466.666666666666
-0.615,-0.335,9469.444444444445
-0.625,-0.34,9472.222222222223
-0.605,-0.335,9475.0
-0.595,-0.33,9477.777777777777
-0.59,-0.335,9480.555555555555
-0.585,-0.32,9483.333333333334
-0.59,-0.34,9486.111111111111
-0.6,-0.35,9488.888888888889
-0.6,-0.35,9491.666666666666
-0.615,-0.35,9494.444444444445
-0.61,-0.355,9497.222222222223
-0.605,-0.345,9500.0
-0.605,-0.36,9502.777777777777
-0.59,-0.35,9505.555555555555
-0.595,-0.35,9508.333333333334
-0.57,-0.34,9511.111111111111
-0.555,-0.335,9513.888888888889
-0.55,-0.345,9516.666666666666
-0.55,-0.345,9519.444444444445
-0.56,-0.36,9522.222222222223
-0.55,-0.36,9525.0
-0.53,-0.365,9527.777777777777
-0.495,-0.38,9530.555555555555
-0.445,-0.375,9533.333333333334
-0.36,-0.37,9536.111111111111
-0.275,-0.365,9538.888888888889
-0.145,-0.365,9541.666666666666
0.005,-0.36,9544.444444444445
0.185,-0.37,9547.222222222223
0.4,-0.42,9550.0
0.63,-0.47,9552.777777777777
0.84,-0.54,9555.555555555555
1.025,-0.655,9558.333333333334
1.165,-0.79,9561.111111111111
1.275,-0.895,9563.888888888889
1.37,-1.01,9566.666666666666
1.47,-1.115,9569.444444444445
1.51,-1.215,9572.222222222223
1.445,-1.31,9575.0
1.215,-1.405,9577.777777777777
0.875,-1.48,9580.555555555555
0.465,-1.54,9583.333333333334
0.04,-1.535,9586.111111111111
-0.305,-1.525,9588.888888888889
-0.565,-1.455,9591.666666666666
-0.715,-1.365,9594.444444444445
-0.775,-1.26,9597.222222222223
-0.785,-1.135,9600.0
-0.75,-1.03,9602.777777777777
-0.725,-0.94,9605.555555555555
-0.72,-0.88,9608.333333333334
-0.71,-0.79,9611.111111111111
-0.675,-0.72,9613.888888888889
-0.67,-0.655,9616.666666666666
-0.67,-0.595,9619.444444444445
-0.67,-0.54,9622.222222222223
-0.68,-0.475,9625.0
-0.705,-0.44,9627.777777777777
-0.705,-0.405,9630.555555555555
-0.72,-0.38,9633.333333333334
-0.72,-0.365,9636.111111111111
-0.725,-0.355,9638.888888888889
-0.7,-0.345,9641.666666666666
-0.705,-0.345,9644.444444444445
-0.69,-0.32,9647.222222222223
-0.695,-0.325,9650.0
-0.715,-0.325,9652.777777777777
-0.725,-0.325,9655.555555555555
-0.705,-0.325,9658.333333333334
-0.72,-0.34,9661.111111111111
-0.735,-0.34,9663.888888888889
-0.735,-0.32,9666.666666666666
-0.75,-0.32,9669.444444444445
-0.73,-0.31,9672.222222222223
-0.73,-0.295,9675.0
-0.72,-0.305,9677.777777777777
-0.715,-0.295,9680.555555555555
-0.725,-0.285,9683.333333333334
-0.73,-0.3,9686.111111111111
-0.735,-0.3,9688.888888888889
-0.74,-0.305,9691.666666666666
-0.75,-0.315,9694.444444444445
-0.755,-0.315,9697.222222222223
-0.77,-0.31,9700.0
-0.78,-0.31,9702.777777777777
-0.78,-0.3,9705.555555555555
-0.765,-0.29,9708.333333333334
-0.76,-0.285,9711.111111111111
-0.755,-0.27,9713.888888888889
-0.75,-0.275,9716.666666666666
-0.76,-0.27,9719.444444444445
-0.76,-0.275,9722.222222222223
-0.785,-0.29,9725.0
-0.785,-0.29,9727.777777777777
-0.79,-0.29,9730.555555555555
-0.8,-0.3,9733.333333333334
-0.815,-0.28,9736.111111111111
-0.82,-0.275,9738.888888888889
-0.82,-0.265,9741.666666666666
-0.805,-0.255,9744.444444444445
-0.805,-0.255,9747.222222222223
-0.815,-0.26,9750.0
-0.825,-0.255,9752.777777777777
-0.825,-0.26,9755.555555555555
-0.845,-0.26,9758.333333333334
-0.85,-0.27,9761.111111111111
-0.85,-0.26,9763.888888888889
-0.865,-0.25,9766.666666666666
-0.865,-0.24,9769.444444444445
-0.88,-0.24,9772.222222222223
-0.865,-0.22,9775.0
-0.87,-0.21,9777.777777777777
-0.865,-0.2,9780.555555555555
-0.855,-0.2,9783.333333333334
-0.87,-0.19,9786.111111111111
-0.88,-0.195,9788.888888888889
-0.875,-0.205,9791.666666666666
-0.89,-0.2,9794.444444444445
-0.89,-0.195,9797.222222222223
-0.9,-0.18,9800.0
-0.89,-0.18,9802.777777777777
-0.88,-0.16,9805.555555555555
-0.875,-0.15,9808.333333333334
-0.87,-0.14,9811.111111111111
-0.86,-0.135,9813.888888888889
-0.85,-0.135,9816.666666666666
-0.855,-0.14,9819.444444444445
-0.835,-0.14,9822.222222222223
-0.84,-0.15,9825.0
-0.835,-0.145,9827.777777777777
-0.825,-0.155,9830.555555555555
-0.82,-0.145,9833.333333333334
-0.805,-0.14,9836.111111111111
-0.79,-0.14,9838.888888888889
-0.76,-0.14,9841.666666666666
-0.75,-0.125,9844.444444444445
-0.725,-0.135,9847.222222222223
-0.695,-0.13,9850.0
-0.68,-0.145,9852.777777777777
-0.68,-0.155,9855.555555555555
-0.68,-0.18,9858.333333333334
-0.665,-0.185,9861.111111111111
-0.665,-0.2,9863.888888888889
-0.665,-0.2,9866.666666666666
-0.655,-0.205,9869.444444444445
-0.64,-0.205,9872.222222222223
-0.62,-0.21,9875.0
-0.61,-0.195,9877.777777777777
-0.6,-0.215,9880.555555555555
-0.595,-0.225,9883.333333333334
-0.58,-0.24,9886.111111111111
-0.58,-0.255,9888.888888888889
-0.6,-0.265,9891.666666666666
-0.595,-0.27,9894.444444444445
-0.595,-0.295,9897.222222222223
-0.59,-0.295,9900.0
-0.59,-0.29,9902.777777777777
-0.585,-0.275,9905.555555555555
-0.58,-0.28,9908.333333333334
-0.57,-0.275,9911.111111111111
-0.57,-0.28,9913.888888888889
-0.57,-0.28,9916.666666666666
-0.575,-0.295,9919.444444444445
-0.565,-0.3,9922.222222222223
-0.575,-0.31,9925.0
-0.58,-0.32,9927.777777777777
-0.6,-0.325,9930.555555555555
-0.62,-0.33,9933.333333333334
-0.6,-0.32,9936.111111111111
-0.605,-0.315,9938.888888888889
-0.61,-0.315,9941.666666666666
-0.595,-0.305,9944.444444444445
-0.595,-0.305,9947.222222222223
-0.585,-0.315,9950.0
-0.595,-0.32,9952.777777777777
-0.605,-0.325,9955.555555555555
-0.625,-0.34,9958.333333333334
-0.62,-0.35,9961.111111111111
-0.62,-0.345,9963.888888888889
-0.63,-0.35,9966.666666666666
-0.63,-0.33,9969.444444444445
-0.63,-0.325,9972.222222222223
-0.63,-0.32,9975.0
-0.635,-0.31,9977.777777777777
-0.615,-0.305,9980.555555555555
-0.62,-0.32,9983.333333333334
-0.61,-0.315,9986.111111111111
-0.625,-0.325,9988.888888888889
-0.63,-0.345,9991.666666666666
-0.64,-0.34,9994.444444444445
-0.64,-0.335,9997.222222222223
-0.645,-0.335,10000.0
-0.655,-0.32,10002.777777777777
-0.645,-0.315,10005.555555555555
-0.635,-0.315,10008.333333333334
-0.635,-0.305,10011.111111111111
-0.635,-0.3,10013.888888888889
-0.63,-0.3,10016.666666666666
-0.635,-0.31,10019.444444444445
-0.64,-0.315,10022.222222222223
-0.65,-0.32,10025.0
-0.65,-0.315,10027.777777777777
-0.66,-0.33,10030.555555555555
-0.65,-0.32,10033.333333333334
-0.64,-0.32,10036.111111111111
-0.65,-0.3,10038.888888888889
-0.635,-0.305,10041.666666666666
-0.635,-0.29,10044.444444444445
-0.625,-0.29,10047.222222222223
-0.62,-0.3,10050.0
-0.62,-0.3,10052.777777777777
-0.635,-0.305,10055.555555555555
-0.615,-0.31,10058.333333333334
-0.62,-0.31,10061.111111111111
-0.625,-0.32,10063.888888888889
-0.615,-0.325,10066.666666666666
-0.61,-0.315,10069.444444444445
-0.615,-0.31,10072.222222222223
-0.605,-0.305,10075.0
-0.6,-0.3,10077.777777777777
-0.58,-0.29,10080.555555555555
-0.575,-0.295,10083.333333333334
-0.57,-0.305,10086.111111111111
-0.57,-0.31,10088.888888888889
-0.565,-0.32,10091.666666666666
-0.575,-0.325,10094.444444444445
-0.575,-0.335,10097.222222222223
-0.565,-0.32,10100.0
-0.56,-0.315,10102.777777777777
-0.545,-0.3,10105.555555555555
-0.545,-0.295,10108.333333333334
-0.53,-0.29,10111.111111111111
-0.52,-0.285,10113.888888888889
-0.515,-0.285,10116.666666666666
-0.51,-0.3,10119.444444444445
-0.5,-0.295,10122.222222222223
-0.5,-0.3,10125.0
-0.505,-0.305,10127.777777777777
-0.49,-0.305,10130.555555555555
-0.495,-0.295,10133.333333333334
-0.485,-0.31,10136.111111111111
-0.455,-0.3,10138.888888888889
-0.44,-0.3,10141.666666666666
-0.43,-0.305,10144.444444444445
-0.42,-0.305,10147.222222222223
-0.415,-0.325,10150.0
-0.41,-0.345,10152.777777777777
-0.42,-0.375,10155.555555555555
-0.425,-0.385,10158.333333333334
-0.45,-0.41,10161.111111111111
-0.46,-0.415,10163.888888888889
-0.475,-0.42,10166.666666666666
-0.49,-0.385,10169.444444444445
-0.505,-0.37,10172.222222222223
-0.51,-0.36,10175.0
-0.52,-0.335,10177.777777777777
-0.53,-0.325,10180.555555555555
-0.54,-0.33,10183.333333333334
-0.55,-0.325,10186.111111111111
-0.56,-0.345,10188.888888888889
-0.585,-0.34,10191.666666666666
-0.605,-0.34,10194.444444444445
-0.62,-0.335,10197.222222222223
-0.635,-0.335,10200.0
-0.63,-0.33,10202.777777777777
-0.63,-0.32,10205.555555555555
-0.625,-0.31,10208.333333333334
-0.615,-0.305,10211.111111111111
-0.605,-0.3,10213.888888888889
-0.6,-0.315,10216.666666666666
-0.61,-0.305,10219.444444444445
-0.605,-0.32,10222.222222222223
-0.62,-0.33,10225.0
-0.62,-0.34,10227.777777777777
-0.62,-0.33,10230.555555555555
-0.62,-0.32,10233.333333333334
-0.62,-0.33,10236.111111111111
-0.62,-0.33,10238.888888888889
-0.6,-0.315,10241.666666666666
-0.59,-0.31,10244.444444444445
-0.58,-0.31,10247.222222222223
-0.58,-0.315,10250.0
-0.58,-0.315,10252.777777777777
-0.57,-0.32,10255.555555555555
-0.555,-0.33,10258.333333333334
-0.55,-0.34,10261.111111111111
-0.53,-0.34,10263.888888888889
-0.505,-0.35,10266.666666666666
-0.445,-0.345,10269.444444444445
-0.37,-0.335,10272.222222222223
-0.27,-0.33,10275.0
-0.16,-0.325,10277.777777777777
-0.025,-0.32,10280.555555555555
0.125,-0.34,10283.333333333334
0.29,-0.365,10286.111111111111
0.48,-0.405,10288.888888888889
0.675,-0.465,10291.666666666666
0.86,-0.54,10294.444444444445
1.01,-0.635,10297.222222222223
1.125,-0.735,10300.0
1.22,-0.85,10302.777777777777
1.32,-0.965,10305.555555555555
1.415,-1.065,10308.333333333334
1.46,-1.17,10311.111111111111
1.415,-1.285,10313.888888888889
1.24,-1.4,10316.666666666666
0.925,-1.5,10319.444444444445
0.515,-1.565,10322.222222222223
0.085,-1.585,10325.0
-0.285,-1.56,10327.777777777777
-0.575,-1.49,10330.555555555555
-0.735,-1.375,10333.333333333334
-0.81,-1.265,10336.111111111111
-0.81,-1.135,10338.888888888889
-0.775,-1.015,10341.666666666666
-0.745,-0.915,10344.444444444445
-0.72,-0.835,10347.222222222223
-0.705,-0.765,10350.0
-0.695,-0.69,10352.777777777777
-0.69,-0.63,10355.555555555555
-0.69,-0.56,10358.333333333334
-0.695,-0.495,10361.111111111111
-0.72,-0.43,10363.888888888889
-0.725,-0.38,10366.666666666666
-0.715,-0.355,10369.444444444445
-0.73,-0.335,10372.222222222223
-0.725,-0.335,10375.0
-0.72,-0.32,10377.777777777777
-0.72,-0.315,10380.555555555555
-0.715,-0.33,10383.333333333334
-0.73,-0.3,10386.111111111111
-0.745,-0.31,10388.888888888889
-0.74,-0.31,10391.666666666666
-0.74,-0.3,10394.444444444445
-0.75,-0.31,10397.222222222223
-0.755,-0.305,10400.0
-0.755,-0.3,10402.777777777777
-0.755,-0.295,10405.555555555555
-0.74,-0.285,10408.333333333334
-0.745,-0.275,10411.111111111111
-0.735,-0.27,10413.888888888889
-0.735,-0.28,10416.666666666666
-0.745,-0.265,10419.444444444445
-0.75,-0.29,10422.222222222223
-0.755,-0.285,10425.0
-0.755,-0.285,10427.777777777777
-0.765,-0.3,10430.555555555555
-0.775,-0.285,10433.333333333334
-0.78,-0.285,10436.111111111111
-0.775,-0.275,10438.888888888889
-0.76,-0.255,10441.666666666666
-0.765,-0.265,10444.444444444445
-0.76,-0.25,10447.222222222223
-0.755,-0.275,10450.0
-0.765,-0.26,10452.777777777777
-0.77,-0.265,10455.555555555555
-0.775,-0.26,10458.333333333334
-0.77,-0.285,10461.111111111111
-0.8,-0.275,10463.888888888889
-0.805,-0.27,10466.666666666666
-0.815,-0.265,10469.444444444445
-0.805,-0.25,10472.222222222223
-0.81,-0.24,10475.0
-0.805,-0.25,10477.777777777777
-0.82,-0.24,10480.555555555555
-0.825,-0.25,10483.333333333334
-0.82,-0.235,10486.111111111111
-0.825,-0.245,10488.888888888889
-0.84,-0.245,10491.666666666666
-0.845,-0.245,10494.444444444445
-0.85,-0.25,10497.222222222223
-0.87,-0.24,10500.0
-0.87,-0.235,10502.777777777777
-0.87,-0.23,10505.555555555555
-0.865,-0.205,10508.333333333334
-0.87,-0.21,10511.111111111111
-0.87,-0.2,10513.888888888889
-0.875,-0.185,10516.666666666666
-0.88,-0.19,10519.444444444445
-0.885,-0.185,10522.222222222223
-0.885,-0.185,10525.0
-0.9,-0.195,10527.777777777777
-0.9,-0.19,10530.555555555555
-0.91,-0.185,10533.333333333334
-0.91,-0.165,10536.111111111111
-0.92,-0.15,10538.888888888889
-0.9,-0.14,10541.666666666666
-0.9,-0.145,10544.444444444445
-0.89,-0.11,10547.222222222223
-0.88,-0.125,10550.0
-0.88,-0.115,10552.777777777777
-0.88,-0.125,10555.555555555555
-0.86,-0.12,10558.333333333334
-0.855,-0.13,10561.111111111111
-0.85,-0.13,10563.888888888889
-0.84,-0.125,10566.666666666666
-0.82,-0.13,10569.444444444445
-0.805,-0.115,10572.222222222223
-0.77,-0.115,10575.0
-0.755,-0.1,10577.777777777777
-0.735,-0.12,10580.555555555555
-0.71,-0.135,10583.333333333334
-0.7,-0.13,10586.111111111111
-0.695,-0.135,10588.888888888889
-0.675,-0.17,10591.666666666666
-0.66,-0.18,10594.444444444445
-0.665,-0.18,10597.222222222223
-0.65,-0.18,10600.0
-0.635,-0.185,10602.777777777777
-0.635,-0.195,10605.555555555555
-0.635,-0.195,10608.333333333334
-0.615,-0.21,10611.111111111111
-0.605,-0.2,10613.888888888889
-0.6,-0.21,10616.666666666666
-0.605,-0.23,10619.444444444445
-0.595,-0.235,10622.222222222223
-0.6,-0.245,10625.0
-0.6,-0.265,10627.777777777777
-0.615,-0.26,10630.555555555555
-0.595,-0.275,10633.333333333334
-0.62,-0.275,10636.111111111111
-0.615,-0.255,10638.888888888889
-0.605,-0.255,10641.666666666666
-0.59,-0.265,10644.444444444445
-0.59,-0.26,10647.222222222223
-0.585,-0.265,10650.0
-0.595,-0.28,10652.777777777777
-0.58,-0.285,10655.555555555555
-0.595,-0.295,10658.333333333334
-0.59,-0.3,10661.111111111111
-0.6,-0.305,10663.888888888889
-0.61,-0.29,10666.666666666666
-0.6,-0.295,10669.444444444445
-0.6,-0.295,10672.222222222223
-0.605,-0.28,10675.0
-0.59,-0.275,10677.777777777777
-0.595,-0.28,10680.555555555555
-0.585,-0.285,10683.333333333334
-0.59,-0.29,10686.111111111111
-0.595,-0.295,10688.888888888889
-0.61,-0.305,10691.666666666666
-0.615,-0.325,10694.444444444445
-0.635,-0.32,10697.222222222223
-0.645,-0.3,10700.0
-0.64,-0.31,10702.777777777777
-0.625,-0.3,10705.555555555555
-0.625,-0.305,10708.333333333334
-0.61,-0.295,10711.111111111111
-0.615,-0.29,10713.888888888889
-0.62,-0.295,10716.666666666666
-0.62,-0.285,10719.444444444445
-0.62,-0.29,10722.222222222223
-0.625,-0.3,10725.0
-0.64,-0.305,10727.777777777777
-0.655,-0.31,10730.555555555555
-0.655,-0.315,10733.333333333334
-0.65,-0.3,10736.111111111111
-0.645,-0.3,10738.888888888889
-0.64,-0.29,10741.666666666666
-0.655,-0.275,10744.444444444445
-0.63,-0.28,10747.222222222223
-0.635,-0.27,10750.0
-0.645,-0.28,10752.777777777777
-0.645,-0.29,10755.555555555555
-0.645,-0.285,10758.333333333334
-0.65,-0.305,10761.111111111111
-0.645,-0.3,10763.888888888889
-0.65,-0.295,10766.666666666666
-0.65,-0.295,10769.444444444445
-0.64,-0.285,10772.222222222223
-0.625,-0.27,10775.0
-0.62,-0.28,10777.777777777777
-0.615,-0.27,10780.555555555555
-0.61,-0.275,10783.333333333334
-0.605,-0.285,10786.111111111111
-0.615,-0.285,10788.888888888889
-0.61,-0.29,10791.666666666666
-0.61,-0.3,10794.444444444445
-0.61,-0.305,10797.222222222223
-0.61,-0.295,10800.0
-0.6,-0.295,10802.777777777777
-0.605,-0.285,10805.555555555555
-0.59,-0.285,10808.333333333334
-0.575,-0.265,10811.111111111111
-0.555,-0.265,10813.888888888889
-0.535,-0.27,10816.666666666666
-0.555,-0.27,10819.444444444445
-0.54,-0.275,10822.222222222223
-0.54,-0.285,10825.0
-0.55,-0.285,10827.777777777777
-0.55,-0.29,10830.555555555555
-0.535,-0.28,10833.333333333334
-0.53,-0.265,10836.111111111111
-0.54,-0.26,10838.888888888889
-0.515,-0.26,10841.666666666666
-0.515,-0.23,10844.444444444445
-0.485,-0.235,10847.222222222223
-0.48,-0.245,10850.0
-0.455,-0.25,10852.777777777777
-0.445,-0.255,10855.555555555555
-0.445,-0.275,10858.333333333334
-0.45,-0.265,10861.111111111111
-0.44,-0.29,10863.888888888889
-0.43,-0.3,10866.666666666666
-0.43,-0.305,10869.444444444445
-0.425,-0.305,10872.222222222223
-0.43,-0.32,10875.0
-0.43,-0.315,10877.777777777777
-0.435,-0.325,10880.555555555555
-0.43,-0.345,10883.333333333334
-0.445,-0.355,10886.111111111111
-0.45,-0.355,10888.888888888889
-0.465,-0.345,10891.666666666666
-0.48,-0.355,10894.444444444445
-0.49,-0.35,10897.222222222223
-0.525,-0.34,10900.0
-0.53,-0.33,10902.777777777777
-0.555,-0.315,10905.555555555555
-0.545,-0.3,10908.333333333334
-0.55,-0.295,10911.111111111111
-0.555,-0.275,10913.888888888889
-0.565,-0.29,10916.666666666666
-0.585,-0.29,10919.444444444445
-0.59,-0.29,10922.222222222223
-0.63,-0.295,10925.0
-0.625,-0.3,10927.777777777777
-0.635,-0.31,10930.555555555555
-0.65,-0.295,10933.333333333334
-0.645,-0.28,10936.111111111111
-0.64,-0.295,10938.888888888889
-0.62,-0.285,10941.666666666666
-0.61,-0.28,10944.444444444445
-0.6,-0.28,10947.222222222223
-0.6,-0.29,10950.0
-0.595,-0.29,10952.777777777777
-0.6,-0.295,10955.555555555555
-0.615,-0.305,10958.333333333334
-0.605,-0.31,10961.111111111111
-0.61,-0.32,10963.888888888889
-0.595,-0.31,10966.666666666666
-0.58,-0.31,10969.444444444445
-0.57,-0.305,10972.222222222223
-0.555,-0.305,10975.0
-0.54,-0.3,10977.777777777777
-0.505,-0.3,10980.555555555555
-0.465,-0.295,10983.333333333334
-0.415,-0.3,10986.111111111111
-0.335,-0.315,10988.888888888889
-0.245,-0.325,10991.666666666666
-0.12,-0.335,10994.444444444445
0.02,-0.35,10997.222222222223
0.185,-0.35,11000.0
0.385,-0.375,11002.777777777777
0.59,-0.41,11005.555555555555
0.795,-0.47,11008.333333333334
0.975,-0.555,11011.111111111111
1.115,-0.645,11013.888888888889
1.23,-0.78,11016.666666666666
1.31,-0.895,11019.444444444445
1.38,-1.01,11022.222222222223
1.4,-1.13,11025.0
1.345,-1.26,11027.777777777777
1.155,-1.37,11030.555555555555
0.825,-1.46,11033.333333333334
0.42,-1.52,11036.111111111111
0.005,-1.54,11038.888888888889
-0.36,-1.5,11041.666666666666
-0.62,-1.395,11044.444444444445
-0.765,-1.28,11047.222222222223
-0.8,-1.15,11050.0
-0.79,-1.04,11052.777777777777
-0.755,-0.945,11055.555555555555
-0.73,-0.875,11058.333333333334
-0.715,-0.815,11061.111111111111
-0.71,-0.77,11063.888888888889
-0.71,-0.705,11066.666666666666
-0.715,-0.65,11069.444444444445
-0.71,-0.57,11072.222222222223
-0.69,-0.51,11075.0
-0.68,-0.435,11077.777777777777
-0.68,-0.37,11080.555555555555
-0.675,-0.345,11083.333333333334
-0.685,-0.32,11086.111111111111
-0.695,-0.305,11088.888888888889
-0.7,-0.305,11091.666666666666
-0.71,-0.31,11094.444444444445
-0.72,-0.315,11097.222222222223
-0.72,-0.315,11100.0
-0.72,-0.3,11102.777777777777
-0.715,-0.275,11105.555555555555
-0.725,-0.27,11108.333333333334
-0.71,-0.255,11111.111111111111
-0.71,-0.245,11113.888888888889
-0.705,-0.245,11116.666666666666
-0.72,-0.245,11119.444444444445
-0.725,-0.26,11122.222222222223
-0.735,-0.26,11125.0
-0.745,-0.27,11127.777777777777
-0.75,-0.27,11130.555555555555
-0.765,-0.255,11133.333333333334
-0.77,-0.255,11136.111111111111
-0.765,-0.25,11138.888888888889
-0.76,-0.25,11141.666666666666
-0.76,-0.25,11144.444444444445
-0.745,-0.235,11147.222222222223
