MLII,V1,time_ms
-0.155,-0.095,0.0
-0.155,-0.095,2.7777777777777777
-0.155,-0.095,5.555555555555555
-0.155,-0.095,8.333333333333334
-0.155,-0.095,11.11111111111111
-0.155,-0.095,13.88888888888889
-0.155,-0.095,16.666666666666668
-0.155,-0.095,19.444444444444443
-0.17,-0.105,22.22222222222222
-0.175,-0.13,25.0
-0.195,-0.14,27.77777777777778
-0.22,-0.125,30.555555555555557
-0.21,-0.085,33.333333333333336
-0.215,-0.055,36.111111111111114
-0.24,-0.03,38.888888888888886
-0.26,-0.03,41.666666666666664
-0.265,-0.035,44.44444444444444
-0.27,-0.055,47.22222222222222
-0.28,-0.065,50.0
-0.29,-0.07,52.77777777777778
-0.285,-0.06,55.55555555555556
-0.3,-0.045,58.333333333333336
-0.305,-0.05,61.111111111111114
-0.32,-0.06,63.888888888888886
-0.345,-0.015,66.66666666666667
-0.34,0.015,69.44444444444444
-0.325,0.06,72.22222222222223
-0.305,0.075,75.0
-0.305,0.05,77.77777777777777
-0.31,0.015,80.55555555555556
-0.32,0.0,83.33333333333333
-0.32,0.04,86.11111111111111
-0.31,0.08,88.88888888888889
-0.315,0.1,91.66666666666667
-0.34,0.095,94.44444444444444
-0.36,0.06,97.22222222222223
-0.375,0.07,100.0
-0.355,0.08,102.77777777777777
-0.35,0.1,105.55555555555556
-0.335,0.095,108.33333333333333
-0.345,0.06,111.11111111111111
-0.365,0.045,113.88888888888889
-0.4,0.05,116.66666666666667
-0.4,0.075,119.44444444444444
-0.365,0.07,122.22222222222223
-0.37,0.055,125.0
-0.34,0.045,127.77777777777777
-0.355,0.045,130.55555555555554
-0.35,0.045,133.33333333333334
-0.355,0.04,136.11111111111111
-0.37,0.035,138.88888888888889
-0.37,0.025,141.66666666666666
-0.355,0.02,144.44444444444446
-0.35,0.0,147.22222222222223
-0.355,0.0,150.0
-0.355,0.005,152.77777777777777
-0.375,0.005,155.55555555555554
-0.385,0.02,158.33333333333334
-0.405,0.015,161.11111111111111
-0.435,0.025,163.88888888888889
-0.415,0.005,166.66666666666666
-0.355,-0.005,169.44444444444446
-0.3,-0.01,172.22222222222223
-0.275,-0.005,175.0
-0.275,-0.005,177.77777777777777
-0.27,0.01,180.55555555555554
-0.27,0.035,183.33333333333334
-0.265,0.075,186.11111111111111
-0.265,0.085,188.88888888888889
-0.26,0.085,191.66666666666666
-0.25,0.065,194.44444444444446
-0.235,0.025,197.22222222222223
-0.21,0.015,200.0
-0.18,0.01,202.77777777777777
-0.165,0.03,205.55555555555554
-0.18,0.055,208.33333333333334
-0.19,0.07,211.11111111111111
-0.19,0.065,213.88888888888889
-0.175,0.055,216.66666666666666
-0.165,0.035,219.44444444444446
-0.16,-0.015,222.22222222222223
-0.18,-0.105,225.0
-0.23,-0.17,227.77777777777777
-0.28,-0.18,230.55555555555554
-0.31,-0.145,233.33333333333334
-0.33,-0.125,236.11111111111111
-0.325,-0.125,238.88888888888889
-0.33,-0.125,241.66666666666666
-0.335,-0.17,244.44444444444446
-0.34,-0.195,247.22222222222223
-0.345,-0.215,250.0
-0.33,-0.22,252.77777777777777
-0.35,-0.21,255.55555555555554
-0.355,-0.2,258.3333333333333
-0.385,-0.22,261.1111111111111
-0.405,-0.21,263.8888888888889
-0.43,-0.195,266.6666666666667
-0.43,-0.16,269.44444444444446
-0.4,-0.145,272.22222222222223
-0.4,-0.17,275.0
-0.39,-0.185,277.77777777777777
-0.38,-0.2,280.55555555555554
-0.37,-0.21,283.3333333333333
-0.355,-0.23,286.1111111111111
-0.365,-0.215,288.8888888888889
-0.345,-0.195,291.6666666666667
-0.345,-0.23,294.44444444444446
-0.39,-0.27,297.22222222222223
-0.41,-0.29,300.0
-0.415,-0.275,302.77777777777777
-0.425,-0.255,305.55555555555554
-0.39,-0.24,308.3333333333333
-0.385,-0.245,311.1111111111111
-0.395,-0.24,313.8888888888889
-0.41,-0.25,316.6666666666667
-0.405,-0.255,319.44444444444446
-0.435,-0.24,322.22222222222223
-0.435,-0.24,325.0
-0.41,-0.215,327.77777777777777
-0.38,-0.2,330.55555555555554
-0.37,-0.175,333.3333333333333
-0.36,-0.155,336.1111111111111
-0.36,-0.13,338.8888888888889
-0.39,-0.13,341.6666666666667
-0.39,-0.125,344.44444444444446
-0.375,-0.095,347.22222222222223
-0.345,-0.07,350.0
-0.325,-0.07,352.77777777777777
-0.33,-0.075,355.55555555555554
-0.335,-0.09,358.3333333333333
-0.335,-0.115,361.1111111111111
-0.36,-0.085,363.8888888888889
-0.37,-0.065,366.6666666666667
-0.35,-0.04,369.44444444444446
-0.29,-0.05,372.22222222222223
-0.23,-0.08,375.0
-0.185,-0.075,377.77777777777777
-0.205,-0.085,380.55555555555554
-0.265,-0.055,383.3333333333333
-0.285,-0.015,386.1111111111111
-0.27,-0.005,388.8888888888889
-0.28,-0.03,391.6666666666667
-0.315,-0.06,394.44444444444446
-0.365,-0.07,397.22222222222223
-0.405,-0.07,400.0
-0.43,-0.185,402.77777777777777
-0.445,-0.48,405.55555555555554
-0.45,-0.865,408.3333333333333
-0.415,-1.255,411.1111111111111
-0.375,-1.69,413.8888888888889
-0.29,-2.16,416.6666666666667
-0.225,-2.57,419.44444444444446
-0.165,-2.85,422.22222222222223
-0.14,-2.945,425.0
-0.13,-2.94,427.77777777777777
-0.115,-2.83,430.55555555555554
-0.04,-2.52,433.3333333333333
0.175,-1.925,436.1111111111111
0.425,-1.29,438.8888888888889
0.565,-0.655,441.6666666666667
0.55,-0.08,444.44444444444446
0.44,0.02,447.22222222222223
0.33,0.04,450.0
0.225,0.065,452.77777777777777
0.105,0.09,455.55555555555554
-0.005,0.12,458.3333333333333
-0.085,0.15,461.1111111111111
-0.175,0.17,463.8888888888889
-0.21,0.18,466.6666666666667
-0.225,0.195,469.44444444444446
-0.22,0.16,472.22222222222223
-0.235,0.13,475.0
-0.235,0.135,477.77777777777777
-0.235,0.165,480.55555555555554
-0.21,0.235,483.3333333333333
-0.18,0.275,486.1111111111111
-0.2,0.25,488.8888888888889
-0.185,0.22,491.6666666666667
-0.225,0.2,494.44444444444446
-0.245,0.185,497.22222222222223
-0.255,0.19,500.0
-0.26,0.21,502.77777777777777
-0.245,0.215,505.55555555555554
-0.235,0.22,508.3333333333333
-0.23,0.21,511.1111111111111
-0.225,0.19,513.8888888888889
-0.225,0.18,516.6666666666666
-0.24,0.19,519.4444444444445
-0.225,0.175,522.2222222222222
-0.21,0.175,525.0
-0.21,0.205,527.7777777777778
-0.2,0.225,530.5555555555555
-0.19,0.22,533.3333333333334
-0.165,0.215,536.1111111111111
-0.15,0.2,538.8888888888889
-0.17,0.185,541.6666666666666
-0.195,0.175,544.4444444444445
-0.2,0.155,547.2222222222222
-0.205,0.165,550.0
-0.175,0.19,552.7777777777778
-0.15,0.195,555.5555555555555
-0.13,0.2,558.3333333333334
-0.12,0.2,561.1111111111111
-0.12,0.205,563.8888888888889
-0.145,0.205,566.6666666666666
-0.14,0.21,569.4444444444445
-0.115,0.21,572.2222222222222
-0.115,0.2,575.0
-0.105,0.18,577.7777777777778
-0.11,0.16,580.5555555555555
-0.11,0.18,583.3333333333334
-0.1,0.175,586.1111111111111
-0.1,0.16,588.8888888888889
-0.115,0.15,591.6666666666666
-0.115,0.13,594.4444444444445
-0.105,0.135,597.2222222222222
-0.075,0.135,600.0
-0.045,0.14,602.7777777777778
-0.03,0.1,605.5555555555555
-0.02,0.08,608.3333333333334
-0.025,0.035,611.1111111111111
-0.06,-0.005,613.8888888888889
-0.075,-0.03,616.6666666666666
-0.065,-0.005,619.4444444444445
-0.06,-0.02,622.2222222222222
-0.055,-0.015,625.0
-0.01,-0.035,627.7777777777778
0.01,-0.03,630.5555555555555
0.005,-0.025,633.3333333333334
-0.01,-0.02,636.1111111111111
-0.005,-0.035,638.8888888888889
-0.015,-0.05,641.6666666666666
-0.01,-0.075,644.4444444444445
-0.02,-0.12,647.2222222222222
-0.005,-0.15,650.0
0.01,-0.15,652.7777777777778
-0.01,-0.145,655.5555555555555
-0.01,-0.16,658.3333333333334
0.0,-0.18,661.1111111111111
-0.025,-0.21,663.8888888888889
-0.045,-0.19,666.6666666666666
-0.055,-0.175,669.4444444444445
-0.025,-0.185,672.2222222222222
0.0,-0.205,675.0
0.01,-0.225,677.7777777777778
0.0,-0.235,680.5555555555555
-0.035,-0.24,683.3333333333334
-0.045,-0.235,686.1111111111111
-0.075,-0.2,688.8888888888889
-0.13,-0.195,691.6666666666666
-0.135,-0.195,694.4444444444445
-0.11,-0.215,697.2222222222222
-0.105,-0.205,700.0
-0.095,-0.19,702.7777777777778
-0.13,-0.165,705.5555555555555
-0.175,-0.17,708.3333333333334
-0.2,-0.185,711.1111111111111
-0.22,-0.22,713.8888888888889
-0.245,-0.205,716.6666666666666
-0.24,-0.17,719.4444444444445
-0.225,-0.145,722.2222222222222
-0.23,-0.135,725.0
-0.235,-0.135,727.7777777777778
-0.245,-0.145,730.5555555555555
-0.265,-0.135,733.3333333333334
-0.29,-0.13,736.1111111111111
-0.31,-0.105,738.8888888888889
-0.305,-0.105,741.6666666666666
-0.32,-0.11,744.4444444444445
-0.31,-0.095,747.2222222222222
-0.295,-0.075,750.0
-0.275,-0.045,752.7777777777778
-0.29,-0.025,755.5555555555555
-0.32,-0.03,758.3333333333334
-0.35,-0.06,761.1111111111111
-0.35,-0.075,763.8888888888889
-0.355,-0.06,766.6666666666666
-0.34,-0.035,769.4444444444445
-0.345,-0.005,772.2222222222222
-0.32,-0.005,775.0
-0.34,-0.01,777.7777777777778
-0.375,-0.015,780.5555555555555
-0.375,-0.005,783.3333333333334
-0.375,0.03,786.1111111111111
-0.345,0.04,788.8888888888889
-0.34,0.04,791.6666666666666
-0.34,0.035,794.4444444444445
-0.365,0.025,797.2222222222222
-0.38,0.03,800.0
-0.405,0.06,802.7777777777778
-0.415,0.075,805.5555555555555
-0.41,0.09,808.3333333333334
-0.41,0.065,811.1111111111111
-0.435,0.035,813.8888888888889
-0.435,0.04,816.6666666666666
-0.415,0.08,819.4444444444445
-0.4,0.105,822.2222222222222
-0.385,0.12,825.0
-0.4,0.105,827.7777777777778
-0.42,0.065,830.5555555555555
-0.45,0.03,833.3333333333334
-0.455,0.05,836.1111111111111
-0.465,0.075,838.8888888888889
-0.46,0.095,841.6666666666666
-0.45,0.07,844.4444444444445
-0.425,0.045,847.2222222222222
-0.415,0.055,850.0
-0.4,0.07,852.7777777777778
-0.395,0.08,855.5555555555555
-0.41,0.075,858.3333333333334
-0.425,0.04,861.1111111111111
-0.45,0.02,863.8888888888889
-0.455,0.025,866.6666666666666
-0.44,0.025,869.4444444444445
-0.425,0.02,872.2222222222222
-0.415,0.02,875.0
-0.4,0.01,877.7777777777778
-0.43,0.015,880.5555555555555
-0.43,0.025,883.3333333333334
-0.43,0.035,886.1111111111111
-0.42,0.04,888.8888888888889
-0.42,0.035,891.6666666666666
-0.42,0.0,894.4444444444445
-0.395,-0.025,897.2222222222222
-0.385,-0.005,900.0
-0.345,-0.005,902.7777777777778
-0.32,-0.015,905.5555555555555
-0.31,-0.03,908.3333333333334
-0.31,-0.02,911.1111111111111
-0.315,-0.035,913.8888888888889
-0.325,-0.005,916.6666666666666
-0.345,0.03,919.4444444444445
-0.34,0.07,922.2222222222222
-0.315,0.07,925.0
-0.28,0.075,927.7777777777778
-0.305,0.075,930.5555555555555
-0.33,0.08,933.3333333333334
-0.385,0.095,936.1111111111111
-0.395,0.115,938.8888888888889
-0.385,0.11,941.6666666666666
-0.36,0.06,944.4444444444445
-0.355,-0.015,947.2222222222222
-0.37,-0.045,950.0
-0.375,-0.065,952.7777777777778
-0.395,-0.09,955.5555555555555
-0.39,-0.115,958.3333333333334
-0.39,-0.155,961.1111111111111
-0.405,-0.185,963.8888888888889
-0.415,-0.175,966.6666666666666
-0.435,-0.155,969.4444444444445
-0.42,-0.15,972.2222222222222
-0.44,-0.155,975.0
-0.47,-0.18,977.7777777777778
-0.505,-0.195,980.5555555555555
-0.53,-0.195,983.3333333333334
-0.505,-0.175,986.1111111111111
-0.48,-0.17,988.8888888888889
-0.49,-0.175,991.6666666666666
-0.49,-0.19,994.4444444444445
-0.51,-0.22,997.2222222222222
-0.52,-0.225,1000.0
-0.51,-0.23,1002.7777777777778
-0.5,-0.2,1005.5555555555555
-0.505,-0.19,1008.3333333333334
-0.515,-0.19,1011.1111111111111
-0.53,-0.215,1013.8888888888889
-0.52,-0.225,1016.6666666666666
-0.51,-0.225,1019.4444444444445
-0.515,-0.215,1022.2222222222222
-0.505,-0.22,1025.0
-0.505,-0.24,1027.7777777777778
-0.525,-0.28,1030.5555555555557
-0.55,-0.29,1033.3333333333333
-0.555,-0.29,1036.111111111111
-0.555,-0.28,1038.888888888889
-0.535,-0.285,1041.6666666666667
-0.555,-0.3,1044.4444444444443
-0.55,-0.28,1047.2222222222222
-0.55,-0.275,1050.0
-0.555,-0.26,1052.7777777777778
-0.55,-0.245,1055.5555555555557
-0.54,-0.25,1058.3333333333333
-0.53,-0.255,1061.111111111111
-0.545,-0.27,1063.888888888889
-0.525,-0.265,1066.6666666666667
-0.515,-0.245,1069.4444444444443
-0.485,-0.24,1072.2222222222222
-0.475,-0.205,1075.0
-0.45,-0.18,1077.7777777777778
-0.455,-0.155,1080.5555555555557
-0.465,-0.14,1083.3333333333333
-0.47,-0.13,1086.111111111111
-0.46,-0.13,1088.888888888889
-0.465,-0.115,1091.6666666666667
-0.47,-0.09,1094.4444444444443
-0.47,-0.085,1097.2222222222222
-0.475,-0.075,1100.0
-0.46,-0.055,1102.7777777777778
-0.43,-0.04,1105.5555555555557
-0.425,-0.04,1108.3333333333333
-0.42,-0.055,1111.111111111111
-0.425,-0.075,1113.888888888889
-0.45,-0.085,1116.6666666666667
-0.445,-0.07,1119.4444444444443
-0.43,-0.07,1122.2222222222222
-0.405,-0.065,1125.0
-0.39,-0.065,1127.7777777777778
-0.375,-0.06,1130.5555555555557
-0.38,-0.065,1133.3333333333333
-0.4,-0.025,1136.111111111111
-0.425,-0.02,1138.888888888889
-0.45,-0.05,1141.6666666666667
-0.46,-0.085,1144.4444444444443
-0.485,-0.1,1147.2222222222222
-0.52,-0.05,1150.0
-0.555,-0.065,1152.7777777777778
-0.585,-0.235,1155.5555555555557
-0.61,-0.59,1158.3333333333333
-0.59,-1.03,1161.111111111111
-0.56,-1.47,1163.888888888889
-0.53,-1.925,1166.6666666666667
-0.48,-2.345,1169.4444444444443
-0.45,-2.675,1172.2222222222222
-0.415,-2.895,1175.0
-0.385,-3.0,1177.7777777777778
-0.385,-3.025,1180.5555555555557
-0.39,-2.985,1183.3333333333333
-0.33,-2.82,1186.111111111111
-0.245,-2.495,1188.888888888889
-0.085,-1.93,1191.6666666666667
0.125,-1.295,1194.4444444444443
0.275,-0.66,1197.2222222222222
0.33,-0.125,1200.0
0.315,0.07,1202.7777777777778
0.255,0.155,1205.5555555555557
0.16,0.175,1208.3333333333333
0.03,0.15,1211.111111111111
-0.09,0.13,1213.888888888889
-0.175,0.16,1216.6666666666667
-0.225,0.2,1219.4444444444443
-0.265,0.225,1222.2222222222222
-0.29,0.235,1225.0
-0.32,0.225,1227.7777777777778
-0.33,0.215,1230.5555555555557
-0.355,0.22,1233.3333333333333
-0.355,0.24,1236.111111111111
-0.345,0.255,1238.888888888889
-0.325,0.24,1241.6666666666667
-0.32,0.255,1244.4444444444443
-0.335,0.26,1247.2222222222222
-0.305,0.275,1250.0
-0.25,0.29,1252.7777777777778
-0.23,0.3,1255.5555555555557
-0.25,0.3,1258.3333333333333
-0.28,0.3,1261.111111111111
-0.295,0.275,1263.888888888889
-0.305,0.265,1266.6666666666667
-0.3,0.265,1269.4444444444443
-0.28,0.28,1272.2222222222222
-0.28,0.29,1275.0
-0.29,0.295,1277.7777777777778
-0.275,0.32,1280.5555555555557
-0.28,0.325,1283.3333333333333
-0.27,0.33,1286.111111111111
-0.25,0.305,1288.888888888889
-0.245,0.29,1291.6666666666667
-0.255,0.275,1294.4444444444443
-0.26,0.28,1297.2222222222222
-0.26,0.305,1300.0
-0.245,0.315,1302.7777777777778
-0.235,0.33,1305.5555555555557
-0.215,0.325,1308.3333333333333
-0.21,0.315,1311.111111111111
-0.195,0.305,1313.888888888889
-0.215,0.29,1316.6666666666667
-0.23,0.285,1319.4444444444443
-0.215,0.28,1322.2222222222222
-0.2,0.29,1325.0
-0.205,0.295,1327.7777777777778
-0.185,0.29,1330.5555555555557
-0.18,0.3,1333.3333333333333
-0.17,0.32,1336.111111111111
-0.165,0.315,1338.888888888889
-0.16,0.325,1341.6666666666667
-0.17,0.295,1344.4444444444443
-0.17,0.275,1347.2222222222222
-0.17,0.26,1350.0
-0.135,0.28,1352.7777777777778
-0.11,0.29,1355.5555555555557
-0.12,0.275,1358.3333333333333
-0.13,0.25,1361.111111111111
-0.135,0.22,1363.888888888889
-0.125,0.205,1366.6666666666667
-0.105,0.22,1369.4444444444443
-0.095,0.225,1372.2222222222222
-0.08,0.21,1375.0
-0.09,0.21,1377.7777777777778
-0.09,0.205,1380.5555555555557
-0.06,0.21,1383.3333333333333
-0.04,0.215,1386.111111111111
-0.02,0.2,1388.888888888889
-0.035,0.16,1391.6666666666667
-0.06,0.105,1394.4444444444443
-0.06,0.075,1397.2222222222222
-0.06,0.05,1400.0
-0.05,0.045,1402.7777777777778
-0.025,0.045,1405.5555555555557
-0.015,0.05,1408.3333333333333
-0.055,0.04,1411.111111111111
-0.05,0.04,1413.888888888889
-0.04,0.02,1416.6666666666667
-0.005,0.02,1419.4444444444443
0.04,0.01,1422.2222222222222
0.055,-0.005,1425.0
0.06,-0.04,1427.7777777777778
0.055,-0.06,1430.5555555555557
0.04,-0.06,1433.3333333333333
0.02,-0.065,1436.111111111111
0.01,-0.06,1438.888888888889
0.01,-0.065,1441.6666666666667
0.01,-0.11,1444.4444444444443
-0.005,-0.135,1447.2222222222222
-0.02,-0.14,1450.0
-0.02,-0.14,1452.7777777777778
-0.015,-0.14,1455.5555555555557
-0.015,-0.15,1458.3333333333333
-0.03,-0.165,1461.111111111111
-0.065,-0.16,1463.888888888889
-0.09,-0.17,1466.6666666666667
-0.085,-0.145,1469.4444444444443
-0.06,-0.145,1472.2222222222222
-0.055,-0.14,1475.0
-0.075,-0.145,1477.7777777777778
-0.1,-0.145,1480.5555555555557
-0.125,-0.135,1483.3333333333333
-0.135,-0.13,1486.111111111111
-0.14,-0.11,1488.888888888889
-0.175,-0.1,1491.6666666666667
-0.17,-0.11,1494.4444444444443
-0.2,-0.11,1497.2222222222222
-0.18,-0.11,1500.0
-0.19,-0.09,1502.7777777777778
-0.205,-0.1,1505.5555555555557
-0.23,-0.1,1508.3333333333333
-0.24,-0.11,1511.111111111111
-0.265,-0.105,1513.888888888889
-0.285,-0.07,1516.6666666666667
-0.28,-0.055,1519.4444444444443
-0.29,-0.06,1522.2222222222222
-0.29,-0.075,1525.0
-0.295,-0.085,1527.7777777777778
-0.285,-0.045,1530.5555555555557
-0.275,0.005,1533.3333333333333
-0.265,0.03,1536.111111111111
-0.275,0.045,1538.888888888889
-0.25,0.03,1541.6666666666667
-0.255,0.01,1544.4444444444443
-0.275,0.01,1547.2222222222222
-0.305,0.045,1550.0
-0.305,0.07,1552.7777777777778
-0.27,0.08,1555.5555555555557
-0.255,0.07,1558.3333333333333
-0.245,0.05,1561.111111111111
-0.26,0.055,1563.888888888889
-0.29,0.075,1566.6666666666667
-0.305,0.09,1569.4444444444443
-0.31,0.095,1572.2222222222222
-0.315,0.105,1575.0
-0.315,0.095,1577.7777777777778
-0.315,0.08,1580.5555555555557
-0.315,0.08,1583.3333333333333
-0.335,0.11,1586.111111111111
-0.355,0.14,1588.888888888889
-0.345,0.155,1591.6666666666667
-0.355,0.145,1594.4444444444443
-0.36,0.125,1597.2222222222222
-0.375,0.105,1600.0
-0.38,0.115,1602.7777777777778
-0.36,0.115,1605.5555555555557
-0.35,0.115,1608.3333333333333
-0.36,0.12,1611.111111111111
-0.375,0.115,1613.888888888889
-0.395,0.105,1616.6666666666667
-0.385,0.1,1619.4444444444443
-0.39,0.1,1622.2222222222222
-0.38,0.095,1625.0
-0.375,0.085,1627.7777777777778
-0.375,0.065,1630.5555555555557
-0.39,0.055,1633.3333333333333
-0.39,0.07,1636.111111111111
-0.395,0.08,1638.888888888889
-0.385,0.07,1641.6666666666667
-0.385,0.055,1644.4444444444443
-0.385,0.025,1647.2222222222222
-0.395,0.03,1650.0
-0.4,0.035,1652.7777777777778
-0.385,0.025,1655.5555555555557
-0.385,0.025,1658.3333333333333
-0.385,0.005,1661.111111111111
-0.41,0.01,1663.888888888889
-0.41,0.02,1666.6666666666667
-0.38,0.04,1669.4444444444443
-0.37,0.05,1672.2222222222222
-0.36,0.055,1675.0
-0.365,0.025,1677.7777777777778
-0.38,0.01,1680.5555555555557
-0.385,0.005,1683.3333333333333
-0.375,0.025,1686.111111111111
-0.37,0.045,1688.888888888889
-0.345,0.045,1691.6666666666667
-0.35,0.045,1694.4444444444443
-0.355,0.035,1697.2222222222222
-0.34,0.05,1700.0
-0.315,0.06,1702.7777777777778
-0.305,0.06,1705.5555555555557
-0.295,0.065,1708.3333333333333
-0.29,0.05,1711.111111111111
-0.29,0.04,1713.888888888889
-0.28,0.035,1716.6666666666667
-0.255,0.045,1719.4444444444443
-0.25,0.06,1722.2222222222222
-0.24,0.065,1725.0
-0.225,0.065,1727.7777777777778
-0.23,0.065,1730.5555555555557
-0.245,0.065,1733.3333333333333
-0.235,0.06,1736.111111111111
-0.225,0.04,1738.888888888889
-0.23,-0.005,1741.6666666666667
-0.245,-0.07,1744.4444444444443
-0.275,-0.125,1747.2222222222222
-0.295,-0.135,1750.0
-0.275,-0.145,1752.7777777777778
-0.265,-0.16,1755.5555555555557
-0.27,-0.18,1758.3333333333333
-0.3,-0.2,1761.111111111111
-0.345,-0.19,1763.888888888889
-0.365,-0.205,1766.6666666666667
-0.375,-0.2,1769.4444444444443
-0.39,-0.17,1772.2222222222222
-0.395,-0.17,1775.0
-0.41,-0.16,1777.7777777777778
-0.395,-0.16,1780.5555555555557
-0.39,-0.17,1783.3333333333333
-0.375,-0.18,1786.111111111111
-0.38,-0.165,1788.888888888889
-0.375,-0.17,1791.6666666666667
-0.395,-0.2,1794.4444444444443
-0.42,-0.21,1797.2222222222222
-0.435,-0.215,1800.0
-0.415,-0.215,1802.7777777777778
-0.4,-0.195,1805.5555555555557
-0.4,-0.215,1808.3333333333333
-0.41,-0.245,1811.111111111111
-0.43,-0.265,1813.888888888889
-0.445,-0.26,1816.6666666666667
-0.425,-0.245,1819.4444444444443
-0.45,-0.245,1822.2222222222222
-0.45,-0.24,1825.0
-0.435,-0.25,1827.7777777777778
-0.425,-0.265,1830.5555555555557
-0.445,-0.275,1833.3333333333333
-0.445,-0.275,1836.111111111111
-0.43,-0.285,1838.888888888889
-0.44,-0.285,1841.6666666666667
-0.455,-0.295,1844.4444444444443
-0.475,-0.28,1847.2222222222222
-0.495,-0.29,1850.0
-0.49,-0.26,1852.7777777777778
-0.495,-0.26,1855.5555555555557
-0.49,-0.265,1858.3333333333333
-0.47,-0.26,1861.111111111111
-0.45,-0.26,1863.888888888889
-0.46,-0.245,1866.6666666666667
-0.43,-0.225,1869.4444444444443
-0.395,-0.22,1872.2222222222222
-0.37,-0.205,1875.0
-0.365,-0.205,1877.7777777777778
-0.37,-0.195,1880.5555555555557
-0.38,-0.18,1883.3333333333333
-0.37,-0.14,1886.111111111111
-0.36,-0.115,1888.888888888889
-0.35,-0.1,1891.6666666666667
-0.35,-0.1,1894.4444444444443
-0.355,-0.085,1897.2222222222222
-0.35,-0.09,1900.0
-0.34,-0.085,1902.7777777777778
-0.34,-0.075,1905.5555555555557
-0.345,-0.07,1908.3333333333333
-0.36,-0.085,1911.111111111111
-0.36,-0.08,1913.888888888889
-0.335,-0.075,1916.6666666666667
-0.32,-0.06,1919.4444444444443
-0.305,-0.05,1922.2222222222222
-0.295,-0.045,1925.0
-0.295,-0.06,1927.7777777777778
-0.31,-0.075,1930.5555555555557
-0.32,-0.1,1933.3333333333333
-0.33,-0.1,1936.111111111111
-0.32,-0.095,1938.888888888889
-0.32,-0.07,1941.6666666666667
-0.335,-0.07,1944.4444444444443
-0.34,-0.065,1947.2222222222222
-0.35,-0.07,1950.0
-0.355,-0.085,1952.7777777777778
-0.375,-0.08,1955.5555555555557
-0.405,-0.065,1958.3333333333333
-0.455,-0.065,1961.111111111111
-0.52,-0.195,1963.888888888889
-0.55,-0.475,1966.6666666666667
-0.525,-0.745,1969.4444444444443
-0.485,-0.985,1972.2222222222222
-0.45,-1.255,1975.0
-0.415,-1.56,1977.7777777777778
-0.36,-1.915,1980.5555555555557
-0.305,-2.285,1983.3333333333333
-0.27,-2.6,1986.111111111111
-0.215,-2.825,1988.888888888889
-0.205,-2.94,1991.6666666666667
-0.195,-2.985,1994.4444444444443
-0.195,-2.945,1997.2222222222222
-0.145,-2.795,2000.0
-0.05,-2.5,2002.7777777777778
0.145,-1.985,2005.5555555555557
0.335,-1.35,2008.3333333333333
0.48,-0.715,2011.111111111111
0.545,-0.305,2013.888888888889
0.495,-0.085,2016.6666666666667
0.445,0.025,2019.4444444444443
0.375,0.105,2022.2222222222222
0.275,0.12,2025.0
0.135,0.105,2027.7777777777778
0.0,0.085,2030.5555555555557
-0.08,0.1,2033.3333333333333
-0.145,0.14,2036.111111111111
-0.175,0.165,2038.888888888889
-0.185,0.19,2041.6666666666667
-0.215,0.195,2044.4444444444443
-0.225,0.19,2047.2222222222222
-0.25,0.185,2050.0
-0.26,0.185,2052.777777777778
-0.255,0.21,2055.5555555555557
-0.25,0.23,2058.3333333333335
-0.235,0.22,2061.1111111111113
-0.235,0.2,2063.8888888888887
-0.235,0.22,2066.6666666666665
-0.235,0.25,2069.4444444444443
-0.225,0.25,2072.222222222222
-0.215,0.24,2075.0
-0.225,0.225,2077.777777777778
-0.24,0.21,2080.5555555555557
-0.24,0.205,2083.3333333333335
-0.235,0.24,2086.1111111111113
-0.215,0.27,2088.8888888888887
-0.21,0.3,2091.6666666666665
-0.195,0.26,2094.4444444444443
-0.19,0.23,2097.222222222222
-0.21,0.225,2100.0
-0.195,0.215,2102.777777777778
-0.21,0.23,2105.5555555555557
-0.205,0.245,2108.3333333333335
-0.205,0.235,2111.1111111111113
-0.21,0.23,2113.8888888888887
-0.24,0.245,2116.6666666666665
-0.23,0.255,2119.4444444444443
-0.22,0.265,2122.222222222222
-0.21,0.245,2125.0
-0.205,0.24,2127.777777777778
-0.2,0.215,2130.5555555555557
-0.19,0.2,2133.3333333333335
-0.175,0.22,2136.1111111111113
-0.17,0.24,2138.8888888888887
-0.175,0.22,2141.6666666666665
-0.195,0.215,2144.4444444444443
-0.205,0.225,2147.222222222222
-0.225,0.235,2150.0
-0.21,0.25,2152.777777777778
-0.17,0.265,2155.5555555555557
-0.14,0.265,2158.3333333333335
-0.125,0.26,2161.1111111111113
-0.135,0.245,2163.8888888888887
-0.135,0.24,2166.6666666666665
-0.145,0.255,2169.4444444444443
-0.125,0.265,2172.222222222222
-0.13,0.265,2175.0
-0.135,0.26,2177.777777777778
-0.125,0.23,2180.5555555555557
-0.105,0.21,2183.3333333333335
-0.115,0.225,2186.1111111111113
-0.105,0.245,2188.8888888888887
-0.1,0.26,2191.6666666666665
-0.1,0.245,2194.4444444444443
-0.11,0.23,2197.222222222222
-0.11,0.205,2200.0
-0.095,0.22,2202.777777777778
-0.09,0.22,2205.5555555555557
-0.055,0.215,2208.3333333333335
-0.04,0.195,2211.1111111111113
-0.045,0.185,2213.8888888888887
-0.045,0.175,2216.6666666666665
-0.055,0.165,2219.4444444444443
-0.035,0.16,2222.222222222222
-0.02,0.14,2225.0
-0.035,0.11,2227.777777777778
-0.045,0.1,2230.5555555555557
-0.065,0.075,2233.3333333333335
-0.05,0.105,2236.1111111111113
-0.04,0.1,2238.8888888888887
-0.05,0.075,2241.6666666666665
-0.06,0.065,2244.4444444444443
-0.055,0.035,2247.222222222222
-0.03,0.025,2250.0
-0.005,0.015,2252.777777777778
0.015,0.015,2255.5555555555557
0.005,0.0,2258.3333333333335
0.02,-0.035,2261.1111111111113
0.0,-0.06,2263.8888888888887
0.005,-0.07,2266.6666666666665
0.005,-0.065,2269.4444444444443
0.025,-0.065,2272.222222222222
0.035,-0.065,2275.0
0.04,-0.08,2277.777777777778
0.04,-0.1,2280.5555555555557
0.03,-0.125,2283.3333333333335
0.045,-0.13,2286.1111111111113
0.045,-0.16,2288.8888888888887
0.035,-0.19,2291.6666666666665
0.03,-0.195,2294.4444444444443
0.005,-0.185,2297.222222222222
-0.015,-0.18,2300.0
0.0,-0.17,2302.777777777778
0.005,-0.15,2305.5555555555557
0.015,-0.17,2308.3333333333335
0.025,-0.19,2311.1111111111113
0.01,-0.215,2313.8888888888887
0.015,-0.225,2316.6666666666665
0.02,-0.215,2319.4444444444443
0.01,-0.21,2322.222222222222
-0.005,-0.215,2325.0
-0.025,-0.225,2327.777777777778
-0.035,-0.23,2330.5555555555557
-0.06,-0.23,2333.3333333333335
-0.045,-0.23,2336.1111111111113
-0.03,-0.21,2338.8888888888887
-0.01,-0.21,2341.6666666666665
-0.05,-0.21,2344.4444444444443
-0.04,-0.22,2347.222222222222
-0.065,-0.225,2350.0
-0.1,-0.22,2352.777777777778
-0.115,-0.205,2355.5555555555557
-0.145,-0.225,2358.3333333333335
-0.15,-0.21,2361.1111111111113
-0.175,-0.2,2363.8888888888887
-0.18,-0.185,2366.6666666666665
-0.165,-0.165,2369.4444444444443
-0.14,-0.12,2372.222222222222
-0.12,-0.125,2375.0
-0.11,-0.12,2377.777777777778
-0.12,-0.14,2380.5555555555557
-0.14,-0.145,2383.3333333333335
-0.155,-0.135,2386.1111111111113
-0.16,-0.115,2388.8888888888887
-0.185,-0.125,2391.6666666666665
-0.19,-0.125,2394.4444444444443
-0.21,-0.135,2397.222222222222
-0.22,-0.13,2400.0
-0.215,-0.12,2402.777777777778
-0.205,-0.095,2405.5555555555557
-0.215,-0.1,2408.3333333333335
-0.225,-0.09,2411.1111111111113
-0.235,-0.085,2413.8888888888887
-0.255,-0.09,2416.6666666666665
-0.25,-0.085,2419.4444444444443
-0.235,-0.07,2422.222222222222
-0.24,-0.07,2425.0
-0.235,-0.07,2427.777777777778
-0.235,-0.075,2430.5555555555557
-0.24,-0.07,2433.3333333333335
-0.23,-0.03,2436.1111111111113
-0.24,-0.03,2438.8888888888887
-0.24,-0.03,2441.6666666666665
-0.265,-0.03,2444.4444444444443
-0.27,-0.035,2447.222222222222
-0.27,-0.02,2450.0
-0.27,-0.005,2452.777777777778
-0.265,0.02,2455.5555555555557
-0.265,0.0,2458.3333333333335
-0.26,0.0,2461.1111111111113
-0.275,0.01,2463.8888888888887
-0.285,0.015,2466.6666666666665
-0.285,0.025,2469.4444444444443
-0.28,0.045,2472.222222222222
-0.295,0.03,2475.0
-0.295,0.035,2477.777777777778
-0.32,0.04,2480.5555555555557
-0.345,0.035,2483.3333333333335
-0.33,0.055,2486.1111111111113
-0.325,0.075,2488.8888888888887
-0.305,0.065,2491.6666666666665
-0.3,0.05,2494.4444444444443
-0.315,0.03,2497.222222222222
-0.335,0.03,2500.0
-0.33,0.05,2502.777777777778
-0.305,0.045,2505.5555555555557
-0.31,0.07,2508.3333333333335
-0.34,0.06,2511.1111111111113
-0.355,0.07,2513.8888888888887
-0.355,0.065,2516.6666666666665
-0.33,0.075,2519.4444444444443
-0.315,0.08,2522.222222222222
-0.325,0.075,2525.0
-0.305,0.07,2527.777777777778
-0.305,0.055,2530.5555555555557
-0.32,0.05,2533.3333333333335
-0.325,0.05,2536.1111111111113
-0.31,0.06,2538.8888888888887
-0.31,0.05,2541.6666666666665
-0.325,0.04,2544.4444444444443
-0.35,0.02,2547.222222222222
-0.365,0.015,2550.0
-0.36,0.025,2552.777777777778
-0.34,0.045,2555.5555555555557
-0.305,0.05,2558.3333333333335
-0.3,0.035,2561.1111111111113
-0.295,0.035,2563.8888888888887
-0.3,0.01,2566.6666666666665
-0.305,0.015,2569.4444444444443
-0.305,0.025,2572.222222222222
-0.31,0.02,2575.0
-0.32,-0.005,2577.777777777778
-0.325,-0.015,2580.5555555555557
-0.34,-0.02,2583.3333333333335
-0.32,0.005,2586.1111111111113
-0.29,0.005,2588.8888888888887
-0.285,0.015,2591.6666666666665
-0.295,-0.005,2594.4444444444443
-0.29,-0.01,2597.222222222222
-0.305,-0.01,2600.0
-0.305,-0.015,2602.777777777778
-0.29,-0.01,2605.5555555555557
-0.3,-0.005,2608.3333333333335
-0.3,-0.005,2611.1111111111113
-0.29,0.0,2613.8888888888887
-0.27,0.0,2616.6666666666665
-0.245,0.02,2619.4444444444443
-0.23,0.045,2622.222222222222
-0.2,0.04,2625.0
-0.2,0.005,2627.777777777778
-0.205,-0.005,2630.5555555555557
-0.22,-0.005,2633.3333333333335
-0.195,0.015,2636.1111111111113
-0.185,0.035,2638.8888888888887
-0.16,0.065,2641.6666666666665
-0.145,0.065,2644.4444444444443
-0.14,0.09,2647.222222222222
-0.135,0.09,2650.0
-0.135,0.095,2652.777777777778
-0.135,0.07,2655.5555555555557
-0.14,0.03,2658.3333333333335
-0.16,0.0,2661.1111111111113
-0.19,-0.045,2663.8888888888887
-0.2,-0.09,2666.6666666666665
-0.2,-0.115,2669.4444444444443
-0.2,-0.135,2672.222222222222
-0.2,-0.145,2675.0
-0.195,-0.16,2677.777777777778
-0.215,-0.185,2680.5555555555557
-0.24,-0.21,2683.3333333333335
-0.24,-0.2,2686.1111111111113
-0.23,-0.18,2688.8888888888887
-0.245,-0.19,2691.6666666666665
-0.265,-0.21,2694.4444444444443
-0.3,-0.21,2697.222222222222
-0.32,-0.195,2700.0
-0.315,-0.165,2702.777777777778
-0.295,-0.15,2705.5555555555557
-0.27,-0.16,2708.3333333333335
-0.265,-0.175,2711.1111111111113
-0.265,-0.185,2713.8888888888887
-0.275,-0.185,2716.6666666666665
-0.27,-0.17,2719.4444444444443
-0.275,-0.185,2722.222222222222
-0.295,-0.195,2725.0
-0.305,-0.22,2727.777777777778
-0.335,-0.24,2730.5555555555557
-0.345,-0.24,2733.3333333333335
-0.325,-0.225,2736.1111111111113
-0.31,-0.22,2738.8888888888887
-0.295,-0.22,2741.6666666666665
-0.3,-0.23,2744.4444444444443
-0.335,-0.245,2747.222222222222
-0.335,-0.265,2750.0
-0.35,-0.26,2752.777777777778
-0.35,-0.265,2755.5555555555557
-0.37,-0.29,2758.3333333333335
-0.375,-0.315,2761.1111111111113
-0.37,-0.31,2763.8888888888887
-0.375,-0.31,2766.6666666666665
-0.355,-0.295,2769.4444444444443
-0.34,-0.29,2772.222222222222
-0.38,-0.325,2775.0
-0.405,-0.32,2777.777777777778
-0.405,-0.32,2780.5555555555557
-0.415,-0.275,2783.3333333333335
-0.38,-0.255,2786.1111111111113
-0.355,-0.245,2788.8888888888887
-0.345,-0.245,2791.6666666666665
-0.33,-0.245,2794.4444444444443
-0.3,-0.235,2797.222222222222
-0.29,-0.225,2800.0
-0.285,-0.2,2802.777777777778
-0.29,-0.19,2805.5555555555557
-0.295,-0.18,2808.3333333333335
-0.295,-0.19,2811.1111111111113
-0.305,-0.185,2813.8888888888887
-0.275,-0.155,2816.6666666666665
-0.245,-0.11,2819.4444444444443
-0.225,-0.11,2822.222222222222
-0.205,-0.09,2825.0
-0.225,-0.11,2827.777777777778
-0.23,-0.11,2830.5555555555557
-0.23,-0.1,2833.3333333333335
-0.24,-0.085,2836.1111111111113
-0.245,-0.075,2838.8888888888887
-0.24,-0.095,2841.6666666666665
-0.255,-0.1,2844.4444444444443
-0.26,-0.115,2847.222222222222
-0.25,-0.105,2850.0
-0.235,-0.085,2852.777777777778
-0.215,-0.085,2855.5555555555557
-0.21,-0.085,2858.3333333333335
-0.225,-0.085,2861.1111111111113
-0.24,-0.1,2863.8888888888887
-0.245,-0.105,2866.6666666666665
-0.24,-0.095,2869.4444444444443
-0.225,-0.09,2872.222222222222
-0.23,-0.09,2875.0
-0.275,-0.07,2877.777777777778
-0.28,-0.05,2880.5555555555557
-0.275,-0.035,2883.3333333333335
-0.265,-0.025,2886.1111111111113
-0.3,-0.04,2888.8888888888887
-0.35,-0.045,2891.6666666666665
-0.405,-0.09,2894.4444444444443
-0.455,-0.255,2897.222222222222
-0.45,-0.505,2900.0
-0.415,-0.825,2902.777777777778
-0.35,-1.15,2905.5555555555557
-0.305,-1.52,2908.3333333333335
-0.27,-1.93,2911.1111111111113
-0.24,-2.35,2913.8888888888887
-0.195,-2.655,2916.6666666666665
-0.17,-2.855,2919.4444444444443
-0.155,-2.975,2922.222222222222
-0.15,-3.025,2925.0
-0.13,-3.005,2927.777777777778
-0.1,-2.935,2930.5555555555557
-0.01,-2.71,2933.3333333333335
0.14,-2.285,2936.1111111111113
0.335,-1.675,2938.8888888888887
0.49,-1.04,2941.6666666666665
0.565,-0.49,2944.4444444444443
0.545,-0.18,2947.222222222222
0.485,-0.04,2950.0
0.425,0.05,2952.777777777778
0.33,0.09,2955.5555555555557
0.21,0.085,2958.3333333333335
0.1,0.075,2961.1111111111113
0.005,0.1,2963.8888888888887
-0.045,0.145,2966.6666666666665
-0.095,0.165,2969.4444444444443
-0.145,0.175,2972.222222222222
-0.16,0.165,2975.0
-0.19,0.155,2977.777777777778
-0.21,0.145,2980.5555555555557
-0.225,0.165,2983.3333333333335
-0.215,0.175,2986.1111111111113
-0.175,0.185,2988.8888888888887
-0.165,0.185,2991.6666666666665
-0.16,0.195,2994.4444444444443
-0.175,0.185,2997.222222222222
-0.16,0.19,3000.0
-0.155,0.2,3002.777777777778
-0.155,0.2,3005.5555555555557
-0.18,0.2,3008.3333333333335
-0.19,0.18,3011.1111111111113
-0.205,0.19,3013.8888888888887
-0.185,0.205,3016.6666666666665
-0.16,0.215,3019.4444444444443
-0.145,0.245,3022.222222222222
-0.14,0.22,3025.0
-0.155,0.215,3027.777777777778
-0.16,0.195,3030.5555555555557
-0.165,0.205,3033.3333333333335
-0.175,0.235,3036.1111111111113
-0.17,0.235,3038.8888888888887
-0.175,0.21,3041.6666666666665
-0.16,0.195,3044.4444444444443
-0.16,0.195,3047.222222222222
-0.14,0.22,3050.0
-0.135,0.235,3052.777777777778
-0.125,0.24,3055.5555555555557
-0.12,0.235,3058.3333333333335
-0.14,0.225,3061.1111111111113
-0.16,0.21,3063.8888888888887
-0.16,0.215,3066.6666666666665
-0.16,0.22,3069.4444444444443
-0.135,0.21,3072.222222222222
-0.145,0.195,3075.0
-0.155,0.205,3077.777777777778
-0.16,0.205,3080.5555555555557
-0.15,0.23,3083.3333333333335
-0.12,0.255,3086.1111111111113
-0.1,0.275,3088.8888888888887
-0.08,0.25,3091.6666666666665
-0.09,0.22,3094.4444444444443
-0.1,0.21,3097.222222222222
-0.095,0.23,3100.0
-0.085,0.23,3102.777777777778
-0.08,0.225,3105.5555555555557
-0.08,0.205,3108.3333333333335
-0.085,0.215,3111.1111111111113
-0.105,0.205,3113.8888888888887
-0.095,0.225,3116.6666666666665
-0.085,0.21,3119.4444444444443
-0.075,0.195,3122.222222222222
-0.085,0.165,3125.0
-0.1,0.15,3127.777777777778
-0.11,0.145,3130.5555555555557
-0.095,0.15,3133.3333333333335
-0.075,0.155,3136.1111111111113
-0.06,0.13,3138.8888888888887
-0.055,0.12,3141.6666666666665
-0.07,0.095,3144.4444444444443
-0.07,0.1,3147.222222222222
-0.065,0.12,3150.0
-0.03,0.105,3152.777777777778
-0.025,0.09,3155.5555555555557
-0.005,0.07,3158.3333333333335
-0.005,0.065,3161.1111111111113
-0.01,0.045,3163.8888888888887
-0.03,0.05,3166.6666666666665
-0.005,0.04,3169.4444444444443
0.01,0.025,3172.222222222222
0.01,-0.01,3175.0
0.005,-0.065,3177.777777777778
-0.005,-0.07,3180.5555555555557
-0.005,-0.08,3183.3333333333335
0.015,-0.095,3186.1111111111113
0.03,-0.105,3188.8888888888887
0.02,-0.13,3191.6666666666665
0.0,-0.145,3194.4444444444443
-0.005,-0.145,3197.222222222222
-0.02,-0.11,3200.0
-0.01,-0.1,3202.777777777778
-0.015,-0.135,3205.5555555555557
-0.02,-0.19,3208.3333333333335
-0.02,-0.23,3211.1111111111113
-0.015,-0.225,3213.8888888888887
-0.015,-0.22,3216.6666666666665
-0.01,-0.21,3219.4444444444443
0.0,-0.22,3222.222222222222
-0.02,-0.235,3225.0
-0.055,-0.245,3227.777777777778
-0.065,-0.255,3230.5555555555557
-0.05,-0.245,3233.3333333333335
-0.04,-0.245,3236.1111111111113
-0.055,-0.245,3238.8888888888887
-0.045,-0.215,3241.6666666666665
-0.06,-0.22,3244.4444444444443
-0.08,-0.2,3247.222222222222
-0.08,-0.195,3250.0
-0.08,-0.185,3252.777777777778
-0.08,-0.18,3255.5555555555557
-0.105,-0.175,3258.3333333333335
-0.145,-0.185,3261.1111111111113
-0.17,-0.2,3263.8888888888887
-0.165,-0.19,3266.6666666666665
-0.19,-0.185,3269.4444444444443
-0.195,-0.17,3272.222222222222
-0.19,-0.19,3275.0
-0.22,-0.185,3277.777777777778
-0.225,-0.175,3280.5555555555557
-0.23,-0.145,3283.3333333333335
-0.23,-0.13,3286.1111111111113
-0.235,-0.14,3288.8888888888887
-0.23,-0.145,3291.6666666666665
-0.245,-0.145,3294.4444444444443
-0.265,-0.15,3297.222222222222
-0.265,-0.12,3300.0
-0.26,-0.08,3302.777777777778
-0.265,-0.065,3305.5555555555557
-0.285,-0.075,3308.3333333333335
-0.305,-0.1,3311.1111111111113
-0.315,-0.11,3313.8888888888887
-0.305,-0.105,3316.6666666666665
-0.3,-0.1,3319.4444444444443
-0.275,-0.095,3322.222222222222
-0.28,-0.075,3325.0
-0.295,-0.08,3327.777777777778
-0.335,-0.08,3330.5555555555557
-0.31,-0.05,3333.3333333333335
-0.305,-0.025,3336.1111111111113
-0.3,-0.005,3338.8888888888887
-0.305,-0.02,3341.6666666666665
-0.32,-0.025,3344.4444444444443
-0.32,-0.05,3347.222222222222
-0.33,-0.045,3350.0
-0.335,-0.02,3352.777777777778
-0.31,0.02,3355.5555555555557
-0.315,0.035,3358.3333333333335
-0.325,0.03,3361.1111111111113
-0.35,0.04,3363.8888888888887
-0.36,0.055,3366.6666666666665
-0.35,0.045,3369.4444444444443
-0.345,0.04,3372.222222222222
-0.35,0.025,3375.0
-0.36,0.025,3377.777777777778
-0.36,0.02,3380.5555555555557
-0.35,0.055,3383.3333333333335
-0.36,0.095,3386.1111111111113
-0.365,0.1,3388.8888888888887
-0.39,0.075,3391.6666666666665
-0.395,0.055,3394.4444444444443
-0.4,0.035,3397.222222222222
-0.395,0.045,3400.0
-0.395,0.04,3402.777777777778
-0.38,0.055,3405.5555555555557
-0.4,0.055,3408.3333333333335
-0.4,0.065,3411.1111111111113
-0.415,0.06,3413.8888888888887
-0.415,0.065,3416.6666666666665
-0.405,0.085,3419.4444444444443
-0.385,0.06,3422.222222222222
-0.4,0.02,3425.0
-0.405,-0.005,3427.777777777778
-0.405,0.005,3430.5555555555557
-0.395,0.035,3433.3333333333335
-0.41,0.045,3436.1111111111113
-0.395,0.025,3438.8888888888887
-0.385,0.0,3441.6666666666665
-0.39,-0.02,3444.4444444444443
-0.405,-0.03,3447.222222222222
-0.4,-0.025,3450.0
-0.405,-0.055,3452.777777777778
-0.405,-0.055,3455.5555555555557
-0.415,-0.035,3458.3333333333335
-0.42,-0.025,3461.1111111111113
-0.42,-0.02,3463.8888888888887
-0.41,0.005,3466.6666666666665
-0.4,0.005,3469.4444444444443
-0.385,0.01,3472.222222222222
-0.395,-0.015,3475.0
-0.41,-0.04,3477.777777777778
-0.42,-0.035,3480.5555555555557
-0.39,-0.005,3483.3333333333335
-0.35,0.02,3486.1111111111113
-0.33,0.035,3488.8888888888887
-0.31,0.045,3491.6666666666665
-0.305,0.045,3494.4444444444443
-0.3,0.035,3497.222222222222
-0.29,0.035,3500.0
-0.29,0.02,3502.777777777778
-0.265,0.02,3505.5555555555557
-0.245,0.01,3508.3333333333335
-0.245,0.015,3511.1111111111113
-0.255,0.035,3513.8888888888887
-0.25,0.07,3516.6666666666665
-0.255,0.075,3519.4444444444443
-0.245,0.02,3522.222222222222
-0.27,-0.06,3525.0
-0.295,-0.135,3527.777777777778
-0.315,-0.195,3530.5555555555557
-0.31,-0.205,3533.3333333333335
-0.315,-0.18,3536.1111111111113
-0.31,-0.18,3538.8888888888887
-0.325,-0.215,3541.6666666666665
-0.35,-0.225,3544.4444444444443
-0.385,-0.21,3547.222222222222
-0.39,-0.18,3550.0
-0.41,-0.155,3552.777777777778
-0.41,-0.165,3555.5555555555557
-0.415,-0.19,3558.3333333333335
-0.42,-0.2,3561.1111111111113
-0.43,-0.195,3563.8888888888887
-0.435,-0.2,3566.6666666666665
-0.445,-0.205,3569.4444444444443
-0.415,-0.215,3572.222222222222
-0.41,-0.225,3575.0
-0.42,-0.25,3577.777777777778
-0.45,-0.25,3580.5555555555557
-0.475,-0.255,3583.3333333333335
-0.47,-0.24,3586.1111111111113
-0.44,-0.25,3588.8888888888887
-0.42,-0.255,3591.6666666666665
-0.43,-0.255,3594.4444444444443
-0.46,-0.255,3597.222222222222
-0.465,-0.255,3600.0
-0.46,-0.26,3602.777777777778
-0.46,-0.3,3605.5555555555557
-0.465,-0.32,3608.3333333333335
-0.49,-0.33,3611.1111111111113
-0.505,-0.325,3613.8888888888887
-0.495,-0.31,3616.6666666666665
-0.47,-0.305,3619.4444444444443
-0.47,-0.285,3622.222222222222
-0.485,-0.285,3625.0
-0.5,-0.29,3627.777777777778
-0.515,-0.29,3630.5555555555557
-0.505,-0.29,3633.3333333333335
-0.515,-0.285,3636.1111111111113
-0.51,-0.305,3638.8888888888887
-0.515,-0.31,3641.6666666666665
-0.505,-0.34,3644.4444444444443
-0.5,-0.32,3647.222222222222
-0.48,-0.27,3650.0
-0.455,-0.23,3652.777777777778
-0.41,-0.2,3655.5555555555557
-0.39,-0.185,3658.3333333333335
-0.37,-0.175,3661.1111111111113
-0.375,-0.19,3663.8888888888887
-0.39,-0.16,3666.6666666666665
-0.41,-0.125,3669.4444444444443
-0.39,-0.105,3672.222222222222
-0.38,-0.1,3675.0
-0.37,-0.1,3677.777777777778
-0.38,-0.105,3680.5555555555557
-0.37,-0.11,3683.3333333333335
-0.365,-0.105,3686.1111111111113
-0.355,-0.085,3688.8888888888887
-0.375,-0.095,3691.6666666666665
-0.375,-0.11,3694.4444444444443
-0.385,-0.11,3697.222222222222
-0.36,-0.11,3700.0
-0.335,-0.105,3702.777777777778
-0.305,-0.095,3705.5555555555557
-0.285,-0.105,3708.3333333333335
-0.295,-0.105,3711.1111111111113
-0.325,-0.11,3713.8888888888887
-0.335,-0.11,3716.6666666666665
-0.305,-0.09,3719.4444444444443
-0.3,-0.085,3722.222222222222
-0.325,-0.085,3725.0
-0.35,-0.08,3727.777777777778
-0.38,-0.06,3730.5555555555557
-0.37,-0.05,3733.3333333333335
-0.38,-0.055,3736.1111111111113
-0.44,-0.045,3738.8888888888887
-0.485,-0.035,3741.6666666666665
-0.54,-0.08,3744.4444444444443
-0.59,-0.265,3747.222222222222
-0.595,-0.585,3750.0
-0.55,-0.93,3752.777777777778
-0.5,-1.335,3755.5555555555557
-0.475,-1.79,3758.3333333333335
-0.44,-2.24,3761.1111111111113
-0.425,-2.655,3763.8888888888887
-0.42,-2.92,3766.6666666666665
-0.375,-3.07,3769.4444444444443
-0.325,-3.12,3772.222222222222
-0.28,-3.135,3775.0
-0.205,-3.06,3777.777777777778
-0.08,-2.835,3780.5555555555557
0.1,-2.365,3783.3333333333335
0.315,-1.73,3786.1111111111113
0.465,-1.095,3788.8888888888887
0.505,-0.46,3791.6666666666665
0.445,-0.02,3794.4444444444443
0.36,0.11,3797.222222222222
0.305,0.16,3800.0
0.225,0.15,3802.777777777778
0.145,0.14,3805.5555555555557
0.05,0.115,3808.3333333333335
-0.055,0.15,3811.1111111111113
-0.15,0.165,3813.8888888888887
-0.195,0.18,3816.6666666666665
-0.21,0.195,3819.4444444444443
-0.225,0.225,3822.222222222222
-0.24,0.225,3825.0
-0.245,0.22,3827.777777777778
-0.23,0.22,3830.5555555555557
-0.205,0.235,3833.3333333333335
-0.205,0.26,3836.1111111111113
-0.205,0.245,3838.8888888888887
-0.22,0.22,3841.6666666666665
-0.21,0.195,3844.4444444444443
-0.235,0.2,3847.222222222222
-0.245,0.235,3850.0
-0.23,0.27,3852.777777777778
-0.2,0.25,3855.5555555555557
-0.19,0.205,3858.3333333333335
-0.175,0.19,3861.1111111111113
-0.205,0.185,3863.8888888888887
-0.215,0.225,3866.6666666666665
-0.235,0.245,3869.4444444444443
-0.235,0.27,3872.222222222222
-0.23,0.24,3875.0
-0.205,0.195,3877.777777777778
-0.21,0.18,3880.5555555555557
-0.195,0.165,3883.3333333333335
-0.2,0.18,3886.1111111111113
-0.18,0.18,3888.8888888888887
-0.175,0.16,3891.6666666666665
-0.17,0.155,3894.4444444444443
-0.185,0.16,3897.222222222222
-0.16,0.185,3900.0
-0.13,0.21,3902.777777777778
-0.115,0.235,3905.5555555555557
-0.1,0.235,3908.3333333333335
-0.11,0.2,3911.1111111111113
-0.12,0.17,3913.8888888888887
-0.15,0.18,3916.6666666666665
-0.145,0.235,3919.4444444444443
-0.13,0.26,3922.222222222222
-0.14,0.28,3925.0
-0.14,0.255,3927.777777777778
-0.13,0.23,3930.5555555555557
-0.12,0.25,3933.3333333333335
-0.12,0.25,3936.1111111111113
-0.11,0.27,3938.8888888888887
-0.12,0.275,3941.6666666666665
-0.135,0.255,3944.4444444444443
-0.14,0.25,3947.222222222222
-0.125,0.25,3950.0
-0.11,0.26,3952.777777777778
-0.095,0.27,3955.5555555555557
-0.08,0.26,3958.3333333333335
-0.08,0.235,3961.1111111111113
-0.065,0.22,3963.8888888888887
-0.04,0.22,3966.6666666666665
-0.015,0.215,3969.4444444444443
-0.005,0.205,3972.222222222222
-0.005,0.18,3975.0
-0.025,0.155,3977.777777777778
-0.01,0.135,3980.5555555555557
-0.005,0.12,3983.3333333333335
-0.015,0.13,3986.1111111111113
-0.015,0.13,3988.8888888888887
-0.005,0.08,3991.6666666666665
0.0,0.045,3994.4444444444443
-0.01,0.01,3997.222222222222
-0.015,-0.01,4000.0
0.015,-0.035,4002.777777777778
0.05,-0.035,4005.5555555555557
0.035,-0.025,4008.3333333333335
0.035,-0.05,4011.1111111111113
0.02,-0.105,4013.8888888888887
0.03,-0.125,4016.6666666666665
0.03,-0.14,4019.4444444444443
-0.005,-0.125,4022.222222222222
-0.03,-0.13,4025.0
-0.05,-0.125,4027.777777777778
-0.03,-0.145,4030.5555555555557
0.01,-0.15,4033.3333333333335
0.055,-0.145,4036.1111111111113
0.07,-0.14,4038.8888888888887
0.075,-0.195,4041.6666666666665
0.085,-0.275,4044.4444444444443
0.08,-0.315,4047.222222222222
0.045,-0.28,4050.0
-0.005,-0.21,4052.777777777778
-0.04,-0.185,4055.5555555555557
-0.045,-0.2,4058.3333333333335
-0.035,-0.23,4061.1111111111113
-0.03,-0.225,4063.8888888888887
-0.045,-0.24,4066.6666666666665
-0.05,-0.255,4069.4444444444443
-0.075,-0.27,4072.222222222222
-0.08,-0.265,4075.0
-0.1,-0.235,4077.777777777778
-0.12,-0.22,4080.5555555555557
-0.105,-0.17,4083.3333333333335
-0.1,-0.12,4086.1111111111113
-0.075,-0.14,4088.8888888888887
-0.045,-0.195,4091.6666666666665
-0.055,-0.25,4094.4444444444443
-0.105,-0.24,4097.222222222223
-0.19,-0.18,4100.0
-0.25,-0.14,4102.777777777777
-0.255,-0.175,4105.555555555556
-0.215,-0.2,4108.333333333333
-0.21,-0.2,4111.111111111111
-0.25,-0.185,4113.888888888889
-0.265,-0.145,4116.666666666667
-0.235,-0.135,4119.444444444444
-0.175,-0.135,4122.222222222223
-0.185,-0.15,4125.0
-0.215,-0.17,4127.777777777777
-0.27,-0.15,4130.555555555556
-0.295,-0.1,4133.333333333333
-0.29,-0.08,4136.111111111111
-0.255,-0.06,4138.888888888889
-0.245,-0.05,4141.666666666667
-0.25,-0.11,4144.444444444444
-0.255,-0.145,4147.222222222223
-0.26,-0.135,4150.0
-0.315,-0.075,4152.777777777777
-0.34,-0.02,4155.555555555556
-0.325,0.0,4158.333333333333
-0.31,0.005,4161.111111111111
-0.27,0.01,4163.888888888889
-0.265,-0.005,4166.666666666667
-0.225,-0.04,4169.444444444444
-0.215,-0.075,4172.222222222223
-0.25,-0.055,4175.0
-0.29,-0.05,4177.777777777777
-0.31,-0.055,4180.555555555556
-0.31,-0.03,4183.333333333333
-0.345,-0.01,4186.111111111111
-0.355,-0.05,4188.888888888889
-0.36,-0.09,4191.666666666667
-0.345,-0.095,4194.444444444444
-0.385,-0.065,4197.222222222223
-0.37,-0.08,4200.0
-0.335,-0.14,4202.777777777777
-0.295,-0.155,4205.555555555556
-0.28,-0.09,4208.333333333333
-0.325,0.02,4211.111111111111
-0.37,0.13,4213.888888888889
-0.365,0.185,4216.666666666667
-0.365,0.175,4219.444444444444
-0.36,0.14,4222.222222222223
-0.365,0.06,4225.0
-0.395,-0.045,4227.777777777777
-0.45,-0.1,4230.555555555556
-0.455,-0.085,4233.333333333333
-0.455,-0.08,4236.111111111111
-0.395,-0.055,4238.888888888889
-0.365,-0.03,4241.666666666667
-0.36,-0.045,4244.444444444444
-0.39,-0.055,4247.222222222223
-0.41,-0.04,4250.0
-0.44,-0.025,4252.777777777777
-0.435,-0.04,4255.555555555556
-0.435,-0.055,4258.333333333333
-0.405,-0.035,4261.111111111111
-0.4,-0.01,4263.888888888889
-0.36,0.02,4266.666666666667
-0.325,-0.01,4269.444444444444
-0.315,-0.09,4272.222222222223
-0.32,-0.155,4275.0
-0.315,-0.195,4277.777777777777
-0.305,-0.185,4280.555555555556
-0.325,-0.11,4283.333333333333
-0.37,-0.115,4286.111111111111
-0.375,-0.195,4288.888888888889
-0.345,-0.265,4291.666666666667
-0.315,-0.21,4294.444444444444
-0.34,-0.08,4297.222222222223
-0.345,0.055,4300.0
-0.34,0.085,4302.777777777777
-0.315,0.055,4305.555555555556
-0.285,-0.01,4308.333333333333
-0.295,-0.055,4311.111111111111
-0.34,-0.115,4313.888888888889
-0.325,-0.15,4316.666666666667
-0.315,-0.125,4319.444444444444
-0.34,-0.045,4322.222222222223
-0.355,0.015,4325.0
-0.34,0.005,4327.777777777777
-0.295,-0.065,4330.555555555556
-0.23,-0.1,4333.333333333333
-0.22,-0.13,4336.111111111111
-0.24,-0.15,4338.888888888889
-0.265,-0.175,4341.666666666667
-0.285,-0.2,4344.444444444444
-0.31,-0.225,4347.222222222223
-0.295,-0.2,4350.0
-0.295,-0.22,4352.777777777777
-0.275,-0.285,4355.555555555556
-0.27,-0.35,4358.333333333333
-0.285,-0.395,4361.111111111111
-0.3,-0.385,4363.888888888889
-0.315,-0.335,4366.666666666667
-0.355,-0.26,4369.444444444444
-0.385,-0.235,4372.222222222223
-0.405,-0.235,4375.0
-0.445,-0.28,4377.777777777777
-0.465,-0.31,4380.555555555556
-0.44,-0.29,4383.333333333333
-0.395,-0.29,4386.111111111111
-0.365,-0.305,4388.888888888889
-0.37,-0.33,4391.666666666667
-0.39,-0.31,4394.444444444444
-0.44,-0.26,4397.222222222223
-0.445,-0.215,4400.0
-0.445,-0.22,4402.777777777777
-0.41,-0.28,4405.555555555556
-0.375,-0.355,4408.333333333333
-0.355,-0.445,4411.111111111111
-0.37,-0.495,4413.888888888889
-0.405,-0.46,4416.666666666667
-0.455,-0.39,4419.444444444444
-0.485,-0.295,4422.222222222223
-0.49,-0.27,4425.0
-0.47,-0.3,4427.777777777777
-0.44,-0.395,4430.555555555556
-0.42,-0.45,4433.333333333333
-0.46,-0.44,4436.111111111111
-0.5,-0.43,4438.888888888889
-0.535,-0.44,4441.666666666667
-0.5,-0.455,4444.444444444444
-0.465,-0.44,4447.222222222223
-0.455,-0.405,4450.0
-0.425,-0.365,4452.777777777777
-0.405,-0.31,4455.555555555556
-0.395,-0.28,4458.333333333333
-0.415,-0.285,4461.111111111111
-0.41,-0.265,4463.888888888889
-0.465,-0.2,4466.666666666667
-0.475,-0.17,4469.444444444444
-0.455,-0.2,4472.222222222223
-0.415,-0.21,4475.0
-0.43,-0.195,4477.777777777777
-0.46,-0.13,4480.555555555556
-0.41,-0.085,4483.333333333333
-0.35,-0.075,4486.111111111111
-0.29,-0.11,4488.888888888889
-0.24,-0.195,4491.666666666667
-0.235,-0.28,4494.444444444444
-0.285,-0.32,4497.222222222223
-0.37,-0.26,4500.0
-0.425,-0.19,4502.777777777777
-0.41,-0.155,4505.555555555556
-0.37,-0.17,4508.333333333333
-0.365,-0.195,4511.111111111111
-0.375,-0.19,4513.888888888889
-0.395,-0.18,4516.666666666667
-0.38,-0.17,4519.444444444444
-0.365,-0.105,4522.222222222223
-0.35,-0.05,4525.0
-0.36,-0.015,4527.777777777777
-0.355,-0.04,4530.555555555556
-0.355,-0.085,4533.333333333333
-0.395,-0.125,4536.111111111111
-0.48,-0.155,4538.888888888889
-0.565,-0.21,4541.666666666667
-0.595,-0.365,4544.444444444444
-0.605,-0.635,4547.222222222223
-0.59,-0.905,4550.0
-0.56,-1.225,4552.777777777777
-0.5,-1.635,4555.555555555556
-0.425,-2.1,4558.333333333333
-0.365,-2.535,4561.111111111111
-0.325,-2.805,4563.888888888889
-0.3,-2.92,4566.666666666667
-0.255,-2.91,4569.444444444444
-0.185,-2.825,4572.222222222223
-0.06,-2.65,4575.0
0.09,-2.28,4577.777777777777
0.265,-1.665,4580.555555555556
0.415,-1.03,4583.333333333333
0.475,-0.395,4586.111111111111
0.465,-0.04,4588.888888888889
0.405,0.0,4591.666666666667
0.285,-0.015,4594.444444444444
0.15,-0.02,4597.222222222223
0.025,0.0,4600.0
-0.075,0.055,4602.777777777777
-0.15,0.08,4605.555555555556
-0.21,0.095,4608.333333333333
-0.24,0.09,4611.111111111111
-0.275,0.085,4613.888888888889
-0.28,0.085,4616.666666666667
-0.28,0.095,4619.444444444444
-0.29,0.12,4622.222222222223
-0.3,0.125,4625.0
-0.265,0.145,4627.777777777777
-0.25,0.15,4630.555555555556
-0.21,0.14,4633.333333333333
-0.195,0.12,4636.111111111111
-0.205,0.115,4638.888888888889
-0.24,0.125,4641.666666666667
-0.285,0.12,4644.444444444444
-0.3,0.115,4647.222222222223
-0.275,0.105,4650.0
-0.25,0.11,4652.777777777777
-0.235,0.13,4655.555555555556
-0.285,0.135,4658.333333333333
-0.33,0.15,4661.111111111111
-0.33,0.135,4663.888888888889
-0.285,0.14,4666.666666666667
-0.225,0.11,4669.444444444444
-0.18,0.12,4672.222222222223
-0.175,0.135,4675.0
-0.225,0.155,4677.777777777777
-0.265,0.175,4680.555555555556
-0.285,0.195,4683.333333333333
-0.265,0.185,4686.111111111111
-0.225,0.17,4688.888888888889
-0.23,0.15,4691.666666666667
-0.225,0.11,4694.444444444444
-0.21,0.08,4697.222222222223
-0.19,0.09,4700.0
-0.21,0.115,4702.777777777777
-0.22,0.105,4705.555555555556
-0.245,0.1,4708.333333333333
-0.265,0.11,4711.111111111111
-0.27,0.11,4713.888888888889
-0.235,0.14,4716.666666666667
-0.185,0.14,4719.444444444444
-0.155,0.105,4722.222222222223
-0.155,0.085,4725.0
-0.2,0.085,4727.777777777777
-0.21,0.07,4730.555555555556
-0.22,0.095,4733.333333333333
-0.205,0.1,4736.111111111111
-0.165,0.095,4738.888888888889
-0.14,0.09,4741.666666666667
-0.11,0.05,4744.444444444444
-0.125,0.035,4747.222222222223
-0.16,0.06,4750.0
-0.18,0.095,4752.777777777777
-0.18,0.11,4755.555555555556
-0.16,0.095,4758.333333333333
-0.125,0.07,4761.111111111111
-0.1,0.03,4763.888888888889
-0.075,-0.01,4766.666666666667
-0.075,-0.025,4769.444444444444
-0.085,-0.035,4772.222222222223
-0.105,-0.05,4775.0
-0.125,-0.065,4777.777777777777
-0.14,-0.08,4780.555555555556
-0.115,-0.07,4783.333333333333
-0.105,-0.07,4786.111111111111
-0.075,-0.075,4788.888888888889
-0.045,-0.105,4791.666666666667
-0.02,-0.13,4794.444444444444
-0.045,-0.15,4797.222222222223
-0.06,-0.15,4800.0
-0.085,-0.16,4802.777777777777
-0.075,-0.155,4805.555555555556
-0.065,-0.165,4808.333333333333
-0.05,-0.17,4811.111111111111
-0.045,-0.195,4813.888888888889
-0.025,-0.21,4816.666666666667
-0.02,-0.235,4819.444444444444
-0.015,-0.26,4822.222222222223
-0.03,-0.28,4825.0
-0.085,-0.28,4827.777777777777
-0.14,-0.27,4830.555555555556
-0.145,-0.26,4833.333333333333
-0.12,-0.26,4836.111111111111
-0.105,-0.26,4838.888888888889
-0.095,-0.28,4841.666666666667
-0.1,-0.28,4844.444444444444
-0.125,-0.29,4847.222222222223
-0.125,-0.26,4850.0
-0.14,-0.25,4852.777777777777
-0.15,-0.235,4855.555555555556
-0.185,-0.23,4858.333333333333
-0.185,-0.235,4861.111111111111
-0.19,-0.235,4863.888888888889
-0.195,-0.24,4866.666666666667
-0.19,-0.215,4869.444444444444
-0.205,-0.22,4872.222222222223
-0.22,-0.23,4875.0
-0.255,-0.235,4877.777777777777
-0.26,-0.22,4880.555555555556
-0.235,-0.21,4883.333333333333
-0.235,-0.18,4886.111111111111
-0.245,-0.16,4888.888888888889
-0.265,-0.18,4891.666666666667
-0.29,-0.165,4894.444444444444
-0.295,-0.175,4897.222222222223
-0.31,-0.165,4900.0
-0.305,-0.14,4902.777777777777
-0.3,-0.13,4905.555555555556
-0.31,-0.125,4908.333333333333
-0.345,-0.14,4911.111111111111
-0.36,-0.155,4913.888888888889
-0.355,-0.135,4916.666666666667
-0.35,-0.12,4919.444444444444
-0.36,-0.1,4922.222222222223
-0.355,-0.07,4925.0
-0.35,-0.075,4927.777777777777
-0.365,-0.08,4930.555555555556
-0.37,-0.07,4933.333333333333
-0.39,-0.055,4936.111111111111
-0.4,-0.04,4938.888888888889
-0.4,-0.055,4941.666666666667
-0.39,-0.055,4944.444444444444
-0.385,-0.05,4947.222222222223
-0.355,-0.025,4950.0
-0.355,-0.01,4952.777777777777
-0.355,-0.015,4955.555555555556
-0.37,-0.03,4958.333333333333
-0.405,-0.05,4961.111111111111
-0.455,-0.045,4963.888888888889
-0.475,-0.015,4966.666666666667
-0.48,0.005,4969.444444444444
-0.445,0.015,4972.222222222223
-0.415,0.02,4975.0
-0.42,0.015,4977.777777777777
-0.435,0.01,4980.555555555556
-0.45,0.04,4983.333333333333
-0.455,0.055,4986.111111111111
-0.45,0.05,4988.888888888889
-0.46,0.04,4991.666666666667
-0.465,0.005,4994.444444444444
-0.47,0.005,4997.222222222223
-0.465,0.015,5000.0
-0.48,0.035,5002.777777777777
-0.48,0.04,5005.555555555556
-0.47,0.02,5008.333333333333
-0.49,0.0,5011.111111111111
-0.5,0.0,5013.888888888889
-0.49,0.02,5016.666666666667
-0.465,0.035,5019.444444444444
-0.445,0.03,5022.222222222223
-0.445,0.01,5025.0
-0.435,-0.025,5027.777777777777
-0.45,-0.05,5030.555555555556
-0.465,-0.03,5033.333333333333
-0.49,-0.005,5036.111111111111
-0.49,-0.02,5038.888888888889
-0.49,-0.045,5041.666666666667
-0.485,-0.065,5044.444444444444
-0.485,-0.07,5047.222222222223
-0.485,-0.045,5050.0
-0.495,-0.025,5052.777777777777
-0.47,-0.025,5055.555555555556
-0.48,-0.03,5058.333333333333
-0.495,-0.015,5061.111111111111
-0.47,-0.025,5063.888888888889
-0.47,-0.015,5066.666666666667
-0.44,-0.02,5069.444444444444
-0.435,-0.025,5072.222222222223
-0.425,-0.045,5075.0
-0.45,-0.04,5077.777777777777
-0.455,-0.03,5080.555555555556
-0.45,0.0,5083.333333333333
-0.45,0.005,5086.111111111111
-0.42,0.015,5088.888888888889
-0.425,0.005,5091.666666666667
-0.41,-0.005,5094.444444444444
-0.405,-0.01,5097.222222222223
-0.38,0.005,5100.0
-0.36,0.015,5102.777777777777
-0.33,0.025,5105.555555555556
-0.325,0.035,5108.333333333333
-0.34,0.025,5111.111111111111
-0.37,0.02,5113.888888888889
-0.375,0.04,5116.666666666667
-0.36,0.04,5119.444444444444
-0.36,0.03,5122.222222222223
-0.355,-0.03,5125.0
-0.365,-0.09,5127.777777777777
-0.38,-0.125,5130.555555555556
-0.385,-0.135,5133.333333333333
-0.41,-0.15,5136.111111111111
-0.41,-0.155,5138.888888888889
-0.425,-0.175,5141.666666666667
-0.455,-0.18,5144.444444444444
-0.475,-0.17,5147.222222222223
-0.47,-0.155,5150.0
-0.45,-0.145,5152.777777777777
-0.445,-0.135,5155.555555555556
-0.45,-0.145,5158.333333333333
-0.47,-0.175,5161.111111111111
-0.49,-0.16,5163.888888888889
-0.48,-0.15,5166.666666666667
-0.48,-0.155,5169.444444444444
-0.485,-0.16,5172.222222222223
-0.495,-0.18,5175.0
-0.51,-0.195,5177.777777777777
-0.53,-0.21,5180.555555555556
-0.54,-0.2,5183.333333333333
-0.525,-0.185,5186.111111111111
-0.52,-0.195,5188.888888888889
-0.525,-0.22,5191.666666666667
-0.525,-0.24,5194.444444444444
-0.535,-0.25,5197.222222222223
-0.54,-0.255,5200.0
-0.525,-0.235,5202.777777777777
-0.525,-0.22,5205.555555555556
-0.535,-0.24,5208.333333333333
-0.54,-0.255,5211.111111111111
-0.56,-0.26,5213.888888888889
-0.575,-0.26,5216.666666666667
-0.55,-0.27,5219.444444444444
-0.54,-0.255,5222.222222222223
-0.545,-0.265,5225.0
-0.55,-0.24,5227.777777777777
-0.55,-0.225,5230.555555555556
-0.535,-0.21,5233.333333333333
-0.515,-0.205,5236.111111111111
-0.51,-0.2,5238.888888888889
-0.485,-0.215,5241.666666666667
-0.48,-0.21,5244.444444444444
-0.47,-0.205,5247.222222222223
-0.435,-0.165,5250.0
-0.425,-0.15,5252.777777777777
-0.41,-0.125,5255.555555555556
-0.405,-0.105,5258.333333333333
-0.415,-0.095,5261.111111111111
-0.42,-0.065,5263.888888888889
-0.41,-0.035,5266.666666666667
-0.395,-0.015,5269.444444444444
-0.385,-0.03,5272.222222222223
-0.375,-0.05,5275.0
-0.38,-0.065,5277.777777777777
-0.385,-0.05,5280.555555555556
-0.385,-0.02,5283.333333333333
-0.37,-0.025,5286.111111111111
-0.335,-0.015,5288.888888888889
-0.335,-0.03,5291.666666666667
-0.335,-0.06,5294.444444444444
-0.34,-0.075,5297.222222222223
-0.345,-0.075,5300.0
-0.34,-0.07,5302.777777777777
-0.33,-0.075,5305.555555555556
-0.325,-0.06,5308.333333333333
-0.325,-0.05,5311.111111111111
-0.355,-0.02,5313.888888888889
-0.375,0.02,5316.666666666667
-0.365,0.03,5319.444444444444
-0.375,0.005,5322.222222222223
-0.4,-0.03,5325.0
-0.455,-0.045,5327.777777777777
-0.505,-0.135,5330.555555555556
-0.52,-0.385,5333.333333333333
-0.485,-0.7,5336.111111111111
-0.435,-1.04,5338.888888888889
-0.4,-1.42,5341.666666666667
-0.355,-1.87,5344.444444444444
-0.31,-2.275,5347.222222222223
-0.275,-2.575,5350.0
-0.245,-2.73,5352.777777777777
-0.21,-2.78,5355.555555555556
-0.175,-2.77,5358.333333333333
-0.125,-2.675,5361.111111111111
-0.025,-2.48,5363.888888888889
0.125,-2.095,5366.666666666667
0.3,-1.515,5369.444444444444
0.435,-0.88,5372.222222222223
0.485,-0.4,5375.0
0.425,-0.145,5377.777777777777
0.37,-0.035,5380.555555555556
0.275,0.025,5383.333333333333
0.17,0.075,5386.111111111111
0.07,0.075,5388.888888888889
-0.035,0.095,5391.666666666667
-0.135,0.105,5394.444444444444
-0.23,0.125,5397.222222222223
-0.26,0.145,5400.0
-0.265,0.155,5402.777777777777
-0.255,0.16,5405.555555555556
-0.25,0.135,5408.333333333333
-0.26,0.15,5411.111111111111
-0.285,0.16,5413.888888888889
-0.28,0.18,5416.666666666667
-0.28,0.205,5419.444444444444
-0.28,0.195,5422.222222222223
-0.295,0.2,5425.0
-0.275,0.195,5427.777777777777
-0.27,0.19,5430.555555555556
-0.255,0.205,5433.333333333333
-0.245,0.22,5436.111111111111
-0.23,0.24,5438.888888888889
-0.23,0.23,5441.666666666667
-0.245,0.205,5444.444444444444
-0.255,0.195,5447.222222222223
-0.265,0.2,5450.0
-0.245,0.205,5452.777777777777
-0.225,0.205,5455.555555555556
-0.22,0.2,5458.333333333333
-0.235,0.19,5461.111111111111
-0.225,0.19,5463.888888888889
-0.21,0.205,5466.666666666667
-0.215,0.215,5469.444444444444
-0.19,0.215,5472.222222222223
-0.18,0.22,5475.0
-0.18,0.195,5477.777777777777
-0.175,0.185,5480.555555555556
-0.18,0.195,5483.333333333333
-0.17,0.195,5486.111111111111
-0.16,0.205,5488.888888888889
-0.17,0.225,5491.666666666667
-0.17,0.22,5494.444444444444
-0.185,0.225,5497.222222222223
-0.175,0.24,5500.0
-0.16,0.23,5502.777777777777
-0.15,0.235,5505.555555555556
-0.145,0.225,5508.333333333333
-0.14,0.21,5511.111111111111
-0.165,0.205,5513.888888888889
-0.155,0.215,5516.666666666667
-0.135,0.225,5519.444444444444
-0.105,0.225,5522.222222222223
-0.11,0.215,5525.0
-0.115,0.205,5527.777777777777
-0.115,0.195,5530.555555555556
-0.1,0.2,5533.333333333333
-0.085,0.185,5536.111111111111
-0.065,0.185,5538.888888888889
-0.065,0.175,5541.666666666667
-0.075,0.16,5544.444444444444
-0.085,0.145,5547.222222222223
-0.075,0.16,5550.0
-0.045,0.165,5552.777777777777
-0.01,0.15,5555.555555555556
-0.03,0.14,5558.333333333333
-0.015,0.11,5561.111111111111
-0.025,0.095,5563.888888888889
-0.02,0.105,5566.666666666667
-0.015,0.1,5569.444444444444
0.0,0.085,5572.222222222223
0.0,0.065,5575.0
-0.005,0.02,5577.777777777777
-0.02,-0.01,5580.555555555556
-0.025,-0.01,5583.333333333333
-0.025,-0.005,5586.111111111111
0.0,-0.02,5588.888888888889
0.005,-0.025,5591.666666666667
-0.015,-0.04,5594.444444444444
-0.03,-0.05,5597.222222222223
0.005,-0.055,5600.0
0.005,-0.05,5602.777777777777
0.03,-0.05,5605.555555555556
0.03,-0.085,5608.333333333333
0.03,-0.125,5611.111111111111
0.01,-0.13,5613.888888888889
0.015,-0.14,5616.666666666667
0.02,-0.125,5619.444444444444
0.01,-0.125,5622.222222222223
0.005,-0.155,5625.0
0.0,-0.16,5627.777777777777
-0.02,-0.16,5630.555555555556
-0.02,-0.145,5633.333333333333
-0.01,-0.145,5636.111111111111
0.0,-0.17,5638.888888888889
-0.025,-0.165,5641.666666666667
-0.035,-0.19,5644.444444444444
-0.065,-0.185,5647.222222222223
-0.085,-0.16,5650.0
-0.085,-0.15,5652.777777777777
-0.085,-0.15,5655.555555555556
-0.08,-0.155,5658.333333333333
-0.115,-0.175,5661.111111111111
-0.125,-0.185,5663.888888888889
-0.135,-0.14,5666.666666666667
-0.14,-0.11,5669.444444444444
-0.125,-0.095,5672.222222222223
-0.145,-0.085,5675.0
-0.155,-0.09,5677.777777777777
-0.175,-0.08,5680.555555555556
-0.2,-0.075,5683.333333333333
-0.2,-0.09,5686.111111111111
-0.2,-0.085,5688.888888888889
-0.205,-0.09,5691.666666666667
-0.21,-0.095,5694.444444444444
-0.23,-0.085,5697.222222222223
-0.24,-0.09,5700.0
-0.235,-0.08,5702.777777777777
-0.245,-0.08,5705.555555555556
-0.25,-0.065,5708.333333333333
-0.26,-0.055,5711.111111111111
-0.285,-0.065,5713.888888888889
-0.275,-0.045,5716.666666666667
-0.255,-0.03,5719.444444444444
-0.245,-0.055,5722.222222222223
-0.255,-0.04,5725.0
-0.275,-0.04,5727.777777777777
-0.31,-0.025,5730.555555555556
-0.3,0.005,5733.333333333333
-0.29,0.02,5736.111111111111
-0.27,0.02,5738.888888888889
-0.28,0.015,5741.666666666667
-0.295,-0.005,5744.444444444444
-0.315,-0.015,5747.222222222223
-0.325,0.01,5750.0
-0.33,0.02,5752.777777777777
-0.33,0.04,5755.555555555556
-0.335,0.045,5758.333333333333
-0.355,0.05,5761.111111111111
-0.365,0.035,5763.888888888889
-0.355,0.05,5766.666666666667
-0.345,0.065,5769.444444444444
-0.34,0.07,5772.222222222223
-0.35,0.07,5775.0
-0.375,0.065,5777.777777777777
-0.4,0.065,5780.555555555556
-0.41,0.075,5783.333333333333
-0.4,0.08,5786.111111111111
-0.395,0.075,5788.888888888889
-0.39,0.065,5791.666666666667
-0.41,0.05,5794.444444444444
-0.42,0.065,5797.222222222223
-0.425,0.09,5800.0
-0.405,0.1,5802.777777777777
-0.41,0.085,5805.555555555556
-0.41,0.095,5808.333333333333
-0.425,0.065,5811.111111111111
-0.44,0.085,5813.888888888889
-0.43,0.075,5816.666666666667
-0.415,0.08,5819.444444444444
-0.405,0.06,5822.222222222223
-0.43,0.05,5825.0
-0.45,0.035,5827.777777777777
-0.47,0.03,5830.555555555556
-0.46,0.045,5833.333333333333
-0.43,0.04,5836.111111111111
-0.41,0.035,5838.888888888889
-0.41,0.025,5841.666666666667
-0.42,0.01,5844.444444444444
-0.445,0.0,5847.222222222223
-0.465,0.03,5850.0
-0.45,0.035,5852.777777777777
-0.425,0.045,5855.555555555556
-0.43,0.03,5858.333333333333
-0.415,0.02,5861.111111111111
-0.43,0.005,5863.888888888889
-0.415,0.0,5866.666666666667
-0.4,0.005,5869.444444444444
-0.395,0.02,5872.222222222223
-0.41,0.03,5875.0
-0.415,0.02,5877.777777777777
-0.42,0.01,5880.555555555556
-0.385,0.025,5883.333333333333
-0.35,0.045,5886.111111111111
-0.335,0.05,5888.888888888889
-0.335,0.05,5891.666666666667
-0.34,0.045,5894.444444444444
-0.35,0.035,5897.222222222223
-0.345,0.035,5900.0
-0.325,0.035,5902.777777777777
-0.305,0.07,5905.555555555556
-0.295,0.08,5908.333333333333
-0.295,0.065,5911.111111111111
-0.295,0.055,5913.888888888889
-0.305,0.085,5916.666666666667
-0.28,0.1,5919.444444444444
-0.275,0.065,5922.222222222223
-0.3,0.015,5925.0
-0.315,-0.07,5927.777777777777
-0.34,-0.115,5930.555555555556
-0.34,-0.135,5933.333333333333
-0.335,-0.12,5936.111111111111
-0.35,-0.125,5938.888888888889
-0.36,-0.125,5941.666666666667
-0.385,-0.165,5944.444444444444
-0.405,-0.175,5947.222222222223
-0.415,-0.16,5950.0
-0.435,-0.15,5952.777777777777
-0.435,-0.135,5955.555555555556
-0.43,-0.14,5958.333333333333
-0.435,-0.155,5961.111111111111
-0.43,-0.15,5963.888888888889
-0.42,-0.165,5966.666666666667
-0.385,-0.165,5969.444444444444
-0.39,-0.175,5972.222222222223
-0.405,-0.175,5975.0
-0.46,-0.205,5977.777777777777
-0.47,-0.21,5980.555555555556
-0.475,-0.19,5983.333333333333
-0.475,-0.175,5986.111111111111
-0.465,-0.17,5988.888888888889
-0.445,-0.19,5991.666666666667
-0.455,-0.22,5994.444444444444
-0.44,-0.235,5997.222222222223
-0.46,-0.23,6000.0
-0.475,-0.245,6002.777777777777
-0.48,-0.255,6005.555555555556
-0.49,-0.265,6008.333333333333
-0.5,-0.28,6011.111111111111
-0.5,-0.3,6013.888888888889
-0.48,-0.3,6016.666666666667
-0.465,-0.265,6019.444444444444
-0.45,-0.26,6022.222222222223
-0.47,-0.27,6025.0
-0.515,-0.3,6027.777777777777
-0.545,-0.285,6030.555555555556
-0.54,-0.245,6033.333333333333
-0.515,-0.225,6036.111111111111
-0.465,-0.205,6038.888888888889
-0.425,-0.195,6041.666666666667
-0.395,-0.195,6044.444444444444
-0.39,-0.2,6047.222222222223
-0.39,-0.18,6050.0
-0.395,-0.155,6052.777777777777
-0.385,-0.12,6055.555555555556
-0.39,-0.11,6058.333333333333
-0.385,-0.1,6061.111111111111
-0.37,-0.095,6063.888888888889
-0.34,-0.07,6066.666666666667
-0.31,-0.055,6069.444444444444
-0.315,-0.055,6072.222222222223
-0.35,-0.065,6075.0
-0.365,-0.075,6077.777777777777
-0.375,-0.07,6080.555555555556
-0.37,-0.055,6083.333333333333
-0.355,-0.05,6086.111111111111
-0.335,-0.055,6088.888888888889
-0.31,-0.065,6091.666666666667
-0.31,-0.065,6094.444444444444
-0.3,-0.065,6097.222222222223
-0.295,-0.055,6100.0
-0.305,-0.045,6102.777777777777
-0.3,-0.04,6105.555555555556
-0.315,-0.045,6108.333333333333
-0.345,-0.03,6111.111111111111
-0.375,-0.025,6113.888888888889
-0.375,-0.015,6116.666666666667
-0.38,-0.015,6119.444444444444
-0.385,-0.02,6122.222222222223
-0.445,-0.035,6125.0
-0.49,-0.08,6127.777777777777
-0.525,-0.285,6130.555555555556
-0.515,-0.57,6133.333333333333
-0.48,-0.875,6136.111111111111
-0.465,-1.17,6138.888888888889
-0.44,-1.55,6141.666666666667
-0.42,-1.975,6144.444444444444
-0.37,-2.41,6147.222222222223
-0.335,-2.725,6150.0
-0.31,-2.91,6152.777777777777
-0.27,-2.945,6155.555555555556
-0.245,-2.89,6158.333333333333
-0.155,-2.675,6161.111111111111
0.0,-2.245,6163.888888888889
0.22,-1.61,6166.666666666667
0.375,-0.975,6169.444444444444
0.425,-0.34,6172.222222222223
0.385,0.04,6175.0
0.325,0.125,6177.777777777777
0.21,0.155,6180.555555555556
0.09,0.17,6183.333333333333
-0.035,0.19,6186.111111111111
-0.095,0.19,6188.888888888889
-0.14,0.195,6191.666666666667
-0.185,0.2,6194.444444444444
-0.23,0.225,6197.222222222223
-0.235,0.23,6200.0
-0.235,0.2,6202.777777777777
-0.23,0.18,6205.555555555556
-0.25,0.17,6208.333333333333
-0.24,0.185,6211.111111111111
-0.265,0.195,6213.888888888889
-0.25,0.215,6216.666666666667
-0.24,0.23,6219.444444444444
-0.21,0.24,6222.222222222223
-0.21,0.235,6225.0
-0.23,0.22,6227.777777777777
-0.25,0.21,6230.555555555556
-0.245,0.21,6233.333333333333
-0.26,0.215,6236.111111111111
-0.23,0.235,6238.888888888889
-0.205,0.22,6241.666666666667
-0.21,0.195,6244.444444444444
-0.23,0.18,6247.222222222223
-0.22,0.205,6250.0
-0.18,0.235,6252.777777777777
-0.15,0.245,6255.555555555556
-0.155,0.23,6258.333333333333
-0.165,0.225,6261.111111111111
-0.175,0.225,6263.888888888889
-0.165,0.215,6266.666666666667
-0.15,0.22,6269.444444444444
-0.14,0.205,6272.222222222223
-0.145,0.2,6275.0
-0.15,0.17,6277.777777777777
-0.17,0.145,6280.555555555556
-0.175,0.16,6283.333333333333
-0.16,0.185,6286.111111111111
-0.145,0.225,6288.888888888889
-0.13,0.23,6291.666666666667
-0.115,0.23,6294.444444444444
-0.125,0.215,6297.222222222223
-0.13,0.225,6300.0
-0.12,0.21,6302.777777777777
-0.11,0.2,6305.555555555556
-0.11,0.165,6308.333333333333
-0.115,0.16,6311.111111111111
-0.1,0.185,6313.888888888889
-0.09,0.2,6316.666666666667
-0.065,0.2,6319.444444444444
-0.065,0.185,6322.222222222223
-0.065,0.17,6325.0
-0.055,0.175,6327.777777777777
-0.05,0.175,6330.555555555556
-0.065,0.2,6333.333333333333
-0.04,0.19,6336.111111111111
-0.015,0.16,6338.888888888889
0.02,0.12,6341.666666666667
0.005,0.085,6344.444444444444
0.01,0.075,6347.222222222223
0.015,0.085,6350.0
0.01,0.065,6352.777777777777
0.0,0.05,6355.555555555556
0.03,0.025,6358.333333333333
0.055,0.0,6361.111111111111
0.07,-0.01,6363.888888888889
0.08,-0.01,6366.666666666667
0.09,-0.015,6369.444444444444
0.11,-0.03,6372.222222222223
0.095,-0.07,6375.0
0.085,-0.11,6377.777777777777
0.065,-0.125,6380.555555555556
0.06,-0.115,6383.333333333333
0.065,-0.11,6386.111111111111
0.095,-0.105,6388.888888888889
0.105,-0.14,6391.666666666667
0.105,-0.19,6394.444444444444
0.08,-0.22,6397.222222222223
0.075,-0.21,6400.0
0.075,-0.19,6402.777777777777
0.095,-0.16,6405.555555555556
0.105,-0.17,6408.333333333333
0.085,-0.195,6411.111111111111
0.075,-0.24,6413.888888888889
0.08,-0.25,6416.666666666667
0.085,-0.255,6419.444444444444
0.1,-0.235,6422.222222222223
0.075,-0.25,6425.0
0.065,-0.28,6427.777777777777
0.045,-0.295,6430.555555555556
0.045,-0.27,6433.333333333333
0.03,-0.225,6436.111111111111
0.03,-0.225,6438.888888888889
0.0,-0.21,6441.666666666667
-0.03,-0.215,6444.444444444444
-0.05,-0.235,6447.222222222223
-0.075,-0.255,6450.0
-0.08,-0.265,6452.777777777777
-0.08,-0.24,6455.555555555556
-0.105,-0.23,6458.333333333333
-0.125,-0.23,6461.111111111111
-0.145,-0.23,6463.888888888889
-0.13,-0.225,6466.666666666667
-0.14,-0.22,6469.444444444444
-0.14,-0.195,6472.222222222223
-0.14,-0.2,6475.0
-0.145,-0.19,6477.777777777777
-0.155,-0.2,6480.555555555556
-0.18,-0.185,6483.333333333333
-0.205,-0.175,6486.111111111111
-0.19,-0.13,6488.888888888889
-0.19,-0.13,6491.666666666667
-0.19,-0.125,6494.444444444444
-0.205,-0.155,6497.222222222223
-0.2,-0.16,6500.0
-0.19,-0.145,6502.777777777777
-0.175,-0.135,6505.555555555556
-0.18,-0.125,6508.333333333333
-0.2,-0.135,6511.111111111111
-0.24,-0.13,6513.888888888889
-0.25,-0.125,6516.666666666667
-0.255,-0.115,6519.444444444444
-0.245,-0.095,6522.222222222223
-0.23,-0.085,6525.0
-0.225,-0.09,6527.777777777777
-0.23,-0.08,6530.555555555556
-0.235,-0.055,6533.333333333333
-0.235,-0.035,6536.111111111111
-0.235,-0.02,6538.888888888889
-0.245,-0.035,6541.666666666667
-0.265,-0.065,6544.444444444444
-0.28,-0.06,6547.222222222223
-0.275,-0.04,6550.0
-0.28,0.0,6552.777777777777
-0.285,0.015,6555.555555555556
-0.295,0.02,6558.333333333333
-0.3,0.005,6561.111111111111
-0.28,0.0,6563.888888888889
-0.285,-0.025,6566.666666666667
-0.29,-0.03,6569.444444444444
-0.295,-0.025,6572.222222222223
-0.3,-0.015,6575.0
-0.345,-0.015,6577.777777777777
-0.335,-0.045,6580.555555555556
-0.325,-0.04,6583.333333333333
-0.31,-0.045,6586.111111111111
-0.325,-0.035,6588.888888888889
-0.345,-0.015,6591.666666666667
-0.35,-0.035,6594.444444444444
-0.355,-0.06,6597.222222222223
-0.34,-0.075,6600.0
-0.295,-0.065,6602.777777777777
-0.27,-0.055,6605.555555555556
-0.265,-0.055,6608.333333333333
-0.305,-0.06,6611.111111111111
-0.31,-0.055,6613.888888888889
-0.335,-0.075,6616.666666666667
-0.325,-0.105,6619.444444444444
-0.295,-0.11,6622.222222222223
-0.295,-0.115,6625.0
-0.315,-0.115,6627.777777777777
-0.325,-0.14,6630.555555555556
-0.325,-0.135,6633.333333333333
-0.32,-0.125,6636.111111111111
-0.3,-0.13,6638.888888888889
-0.305,-0.135,6641.666666666667
-0.31,-0.125,6644.444444444444
-0.315,-0.11,6647.222222222223
-0.28,-0.07,6650.0
-0.22,-0.05,6652.777777777777
-0.2,-0.06,6655.555555555556
-0.195,-0.04,6658.333333333333
-0.195,-0.04,6661.111111111111
-0.205,-0.07,6663.888888888889
-0.195,-0.1,6666.666666666667
-0.185,-0.125,6669.444444444444
-0.145,-0.14,6672.222222222223
-0.145,-0.11,6675.0
-0.155,-0.065,6677.777777777777
-0.165,-0.03,6680.555555555556
-0.18,-0.015,6683.333333333333
-0.17,-0.02,6686.111111111111
-0.185,-0.065,6688.888888888889
-0.185,-0.145,6691.666666666667
-0.23,-0.23,6694.444444444444
-0.275,-0.29,6697.222222222223
-0.27,-0.295,6700.0
-0.265,-0.27,6702.777777777777
-0.245,-0.26,6705.555555555556
-0.26,-0.265,6708.333333333333
-0.26,-0.3,6711.111111111111
-0.26,-0.32,6713.888888888889
-0.295,-0.315,6716.666666666667
-0.315,-0.265,6719.444444444444
-0.33,-0.21,6722.222222222223
-0.335,-0.2,6725.0
-0.34,-0.24,6727.777777777777
-0.315,-0.29,6730.555555555556
-0.32,-0.285,6733.333333333333
-0.305,-0.255,6736.111111111111
-0.295,-0.26,6738.888888888889
-0.295,-0.3,6741.666666666667
-0.32,-0.365,6744.444444444444
-0.345,-0.4,6747.222222222223
-0.35,-0.385,6750.0
-0.315,-0.34,6752.777777777777
-0.28,-0.285,6755.555555555556
-0.305,-0.28,6758.333333333333
-0.32,-0.33,6761.111111111111
-0.36,-0.39,6763.888888888889
-0.395,-0.4,6766.666666666667
-0.41,-0.375,6769.444444444444
-0.42,-0.345,6772.222222222223
-0.41,-0.335,6775.0
-0.4,-0.355,6777.777777777777
-0.385,-0.395,6780.555555555556
-0.37,-0.4,6783.333333333333
-0.38,-0.37,6786.111111111111
-0.42,-0.31,6788.888888888889
-0.44,-0.325,6791.666666666667
-0.465,-0.375,6794.444444444444
-0.485,-0.39,6797.222222222223
-0.475,-0.395,6800.0
-0.45,-0.39,6802.777777777777
-0.41,-0.385,6805.555555555556
-0.4,-0.355,6808.333333333333
-0.39,-0.34,6811.111111111111
-0.38,-0.33,6813.888888888889
-0.375,-0.32,6816.666666666667
-0.38,-0.295,6819.444444444444
-0.365,-0.27,6822.222222222223
-0.35,-0.26,6825.0
-0.35,-0.235,6827.777777777777
-0.35,-0.205,6830.555555555556
-0.375,-0.185,6833.333333333333
-0.385,-0.17,6836.111111111111
-0.37,-0.145,6838.888888888889
-0.355,-0.155,6841.666666666667
-0.335,-0.16,6844.444444444444
-0.31,-0.15,6847.222222222223
-0.295,-0.135,6850.0
-0.275,-0.125,6852.777777777777
-0.28,-0.15,6855.555555555556
-0.295,-0.18,6858.333333333333
-0.31,-0.18,6861.111111111111
-0.31,-0.19,6863.888888888889
-0.31,-0.19,6866.666666666667
-0.3,-0.17,6869.444444444444
-0.29,-0.165,6872.222222222223
-0.3,-0.185,6875.0
-0.305,-0.18,6877.777777777777
-0.325,-0.15,6880.555555555556
-0.34,-0.13,6883.333333333333
-0.37,-0.165,6886.111111111111
-0.4,-0.215,6888.888888888889
-0.44,-0.225,6891.666666666667
-0.485,-0.28,6894.444444444444
-0.47,-0.49,6897.222222222223
-0.435,-0.78,6900.0
-0.4,-1.065,6902.777777777777
-0.355,-1.37,6905.555555555556
-0.35,-1.755,6908.333333333333
-0.335,-2.185,6911.111111111111
-0.305,-2.565,6913.888888888889
-0.26,-2.83,6916.666666666667
-0.235,-2.965,6919.444444444444
-0.2,-2.995,6922.222222222223
-0.17,-2.975,6925.0
-0.105,-2.885,6927.777777777777
0.015,-2.655,6930.555555555556
0.22,-2.185,6933.333333333333
0.415,-1.55,6936.111111111111
0.535,-0.915,6938.888888888889
0.535,-0.305,6941.666666666667
0.47,-0.095,6944.444444444444
0.39,-0.01,6947.222222222223
0.275,0.035,6950.0
0.13,0.05,6952.777777777777
0.0,0.005,6955.555555555556
-0.11,0.0,6958.333333333333
-0.155,0.05,6961.111111111111
-0.185,0.085,6963.888888888889
-0.205,0.085,6966.666666666667
-0.22,0.085,6969.444444444444
-0.22,0.08,6972.222222222223
-0.24,0.055,6975.0
-0.265,0.03,6977.777777777777
-0.265,0.02,6980.555555555556
-0.265,0.045,6983.333333333333
-0.23,0.085,6986.111111111111
-0.235,0.12,6988.888888888889
-0.24,0.125,6991.666666666667
-0.265,0.12,6994.444444444444
-0.26,0.12,6997.222222222223
-0.26,0.105,7000.0
-0.215,0.1,7002.777777777777
-0.2,0.1,7005.555555555556
-0.195,0.1,7008.333333333333
-0.225,0.11,7011.111111111111
-0.215,0.065,7013.888888888889
-0.23,0.06,7016.666666666667
-0.245,0.08,7019.444444444444
-0.225,0.1,7022.222222222223
-0.24,0.095,7025.0
-0.24,0.08,7027.777777777777
-0.255,0.08,7030.555555555556
-0.245,0.09,7033.333333333333
-0.23,0.09,7036.111111111111
-0.195,0.125,7038.888888888889
-0.19,0.14,7041.666666666667
-0.19,0.115,7044.444444444444
-0.2,0.115,7047.222222222223
-0.2,0.125,7050.0
-0.19,0.11,7052.777777777777
-0.185,0.105,7055.555555555556
-0.195,0.1,7058.333333333333
-0.21,0.08,7061.111111111111
-0.205,0.1,7063.888888888889
-0.18,0.12,7066.666666666667
-0.175,0.14,7069.444444444444
-0.16,0.115,7072.222222222223
-0.16,0.1,7075.0
-0.165,0.06,7077.777777777777
-0.145,0.045,7080.555555555556
-0.14,0.09,7083.333333333333
-0.105,0.12,7086.111111111111
-0.095,0.135,7088.888888888889
-0.095,0.115,7091.666666666667
-0.12,0.095,7094.444444444444
-0.12,0.08,7097.222222222223
-0.125,0.1,7100.0
-0.125,0.1,7102.777777777777
-0.1,0.075,7105.555555555556
-0.12,0.04,7108.333333333333
-0.11,0.03,7111.111111111111
-0.09,0.03,7113.888888888889
-0.075,0.02,7116.666666666667
-0.045,0.035,7119.444444444444
-0.02,0.04,7122.222222222223
-0.015,0.035,7125.0
-0.005,0.005,7127.777777777777
-0.01,-0.02,7130.555555555556
-0.02,-0.055,7133.333333333333
-0.01,-0.055,7136.111111111111
-0.01,-0.03,7138.888888888889
-0.01,-0.05,7141.666666666667
-0.025,-0.075,7144.444444444444
-0.015,-0.07,7147.222222222223
-0.015,-0.045,7150.0
0.01,-0.06,7152.777777777777
0.025,-0.08,7155.555555555556
0.04,-0.11,7158.333333333333
0.035,-0.135,7161.111111111111
0.035,-0.15,7163.888888888889
0.03,-0.155,7166.666666666667
0.055,-0.16,7169.444444444444
0.065,-0.22,7172.222222222223
0.085,-0.235,7175.0
0.065,-0.27,7177.777777777777
0.035,-0.27,7180.555555555556
0.02,-0.275,7183.333333333333
-0.01,-0.27,7186.111111111111
-0.025,-0.27,7188.888888888889
-0.045,-0.245,7191.666666666667
-0.045,-0.265,7194.444444444444
-0.05,-0.29,7197.222222222223
-0.06,-0.285,7200.0
-0.055,-0.27,7202.777777777777
-0.05,-0.27,7205.555555555556
-0.07,-0.275,7208.333333333333
-0.08,-0.305,7211.111111111111
-0.105,-0.315,7213.888888888889
-0.11,-0.305,7216.666666666667
-0.07,-0.275,7219.444444444444
-0.045,-0.25,7222.222222222223
-0.075,-0.255,7225.0
-0.095,-0.255,7227.777777777777
-0.115,-0.265,7230.555555555556
-0.12,-0.27,7233.333333333333
-0.13,-0.255,7236.111111111111
-0.135,-0.245,7238.888888888889
-0.16,-0.24,7241.666666666667
-0.175,-0.22,7244.444444444444
-0.18,-0.21,7247.222222222223
-0.19,-0.22,7250.0
-0.21,-0.23,7252.777777777777
-0.22,-0.22,7255.555555555556
-0.24,-0.205,7258.333333333333
-0.245,-0.205,7261.111111111111
-0.255,-0.195,7263.888888888889
-0.24,-0.19,7266.666666666667
-0.225,-0.185,7269.444444444444
-0.23,-0.175,7272.222222222223
-0.245,-0.16,7275.0
-0.285,-0.15,7277.777777777777
-0.295,-0.16,7280.555555555556
-0.305,-0.16,7283.333333333333
-0.28,-0.135,7286.111111111111
-0.27,-0.135,7288.888888888889
-0.26,-0.14,7291.666666666667
-0.25,-0.15,7294.444444444444
-0.265,-0.135,7297.222222222223
-0.28,-0.135,7300.0
-0.29,-0.125,7302.777777777777
-0.275,-0.1,7305.555555555556
-0.285,-0.08,7308.333333333333
-0.29,-0.09,7311.111111111111
-0.3,-0.105,7313.888888888889
-0.315,-0.13,7316.666666666667
-0.345,-0.095,7319.444444444444
-0.31,-0.06,7322.222222222223
-0.325,-0.06,7325.0
-0.345,-0.07,7327.777777777777
-0.345,-0.09,7330.555555555556
-0.36,-0.075,7333.333333333333
-0.37,-0.05,7336.111111111111
-0.35,0.0,7338.888888888889
-0.35,-0.005,7341.666666666667
-0.355,-0.025,7344.444444444444
-0.36,-0.055,7347.222222222223
-0.355,-0.06,7350.0
-0.35,-0.025,7352.777777777777
-0.335,-0.005,7355.555555555556
-0.35,-0.03,7358.333333333333
-0.36,-0.035,7361.111111111111
-0.385,-0.025,7363.888888888889
-0.38,-0.01,7366.666666666667
-0.355,-0.005,7369.444444444444
-0.345,0.01,7372.222222222223
-0.36,0.005,7375.0
-0.36,0.01,7377.777777777777
-0.37,-0.01,7380.555555555556
-0.385,-0.005,7383.333333333333
-0.375,0.01,7386.111111111111
-0.34,0.05,7388.888888888889
-0.36,0.065,7391.666666666667
-0.355,0.06,7394.444444444444
-0.355,0.055,7397.222222222223
-0.35,0.03,7400.0
-0.325,0.005,7402.777777777777
-0.335,-0.035,7405.555555555556
-0.33,-0.06,7408.333333333333
-0.355,-0.065,7411.111111111111
-0.355,-0.035,7413.888888888889
-0.39,0.005,7416.666666666667
-0.4,0.035,7419.444444444444
-0.41,0.025,7422.222222222223
-0.4,0.015,7425.0
-0.405,0.005,7427.777777777777
-0.39,0.0,7430.555555555556
-0.405,0.0,7433.333333333333
-0.41,0.005,7436.111111111111
-0.42,-0.005,7438.888888888889
-0.42,0.015,7441.666666666667
-0.405,-0.015,7444.444444444444
-0.39,-0.04,7447.222222222223
-0.39,-0.04,7450.0
-0.375,-0.045,7452.777777777777
-0.37,-0.02,7455.555555555556
-0.355,-0.025,7458.333333333333
-0.35,-0.05,7461.111111111111
-0.35,-0.075,7463.888888888889
-0.35,-0.07,7466.666666666667
-0.34,-0.03,7469.444444444444
-0.34,-0.005,7472.222222222223
-0.33,-0.005,7475.0
-0.295,0.01,7477.777777777777
-0.295,-0.01,7480.555555555556
-0.27,-0.03,7483.333333333333
-0.255,-0.015,7486.111111111111
-0.23,0.015,7488.888888888889
-0.25,0.03,7491.666666666667
-0.26,0.025,7494.444444444444
-0.26,0.015,7497.222222222223
-0.26,-0.005,7500.0
-0.24,-0.065,7502.777777777777
-0.24,-0.135,7505.555555555556
-0.25,-0.16,7508.333333333333
-0.28,-0.175,7511.111111111111
-0.31,-0.195,7513.888888888889
-0.355,-0.21,7516.666666666667
-0.385,-0.2,7519.444444444444
-0.38,-0.195,7522.222222222223
-0.39,-0.195,7525.0
-0.4,-0.225,7527.777777777777
-0.41,-0.245,7530.555555555556
-0.44,-0.25,7533.333333333333
-0.425,-0.235,7536.111111111111
-0.43,-0.225,7538.888888888889
-0.45,-0.2,7541.666666666667
-0.45,-0.18,7544.444444444444
-0.435,-0.17,7547.222222222223
-0.445,-0.19,7550.0
-0.44,-0.185,7552.777777777777
-0.405,-0.2,7555.555555555556
-0.4,-0.225,7558.333333333333
-0.43,-0.25,7561.111111111111
-0.44,-0.245,7563.888888888889
-0.475,-0.275,7566.666666666667
-0.48,-0.28,7569.444444444444
-0.47,-0.275,7572.222222222223
-0.495,-0.265,7575.0
-0.525,-0.265,7577.777777777777
-0.53,-0.265,7580.555555555556
-0.515,-0.275,7583.333333333333
-0.51,-0.285,7586.111111111111
-0.49,-0.305,7588.888888888889
-0.485,-0.31,7591.666666666667
-0.515,-0.325,7594.444444444444
-0.535,-0.305,7597.222222222223
-0.525,-0.295,7600.0
-0.52,-0.295,7602.777777777777
-0.475,-0.29,7605.555555555556
-0.495,-0.28,7608.333333333333
-0.51,-0.295,7611.111111111111
-0.535,-0.3,7613.888888888889
-0.545,-0.285,7616.666666666667
-0.535,-0.26,7619.444444444444
-0.49,-0.22,7622.222222222223
-0.46,-0.215,7625.0
-0.425,-0.21,7627.777777777777
-0.41,-0.22,7630.555555555556
-0.41,-0.195,7633.333333333333
-0.415,-0.17,7636.111111111111
-0.415,-0.14,7638.888888888889
-0.415,-0.125,7641.666666666667
-0.4,-0.115,7644.444444444444
-0.41,-0.085,7647.222222222223
-0.405,-0.08,7650.0
-0.405,-0.07,7652.777777777777
-0.395,-0.05,7655.555555555556
-0.395,-0.06,7658.333333333333
-0.375,-0.085,7661.111111111111
-0.37,-0.105,7663.888888888889
-0.35,-0.095,7666.666666666667
-0.34,-0.095,7669.444444444444
-0.375,-0.08,7672.222222222223
-0.4,-0.065,7675.0
-0.405,-0.08,7677.777777777777
-0.39,-0.08,7680.555555555556
-0.375,-0.11,7683.333333333333
-0.36,-0.105,7686.111111111111
-0.33,-0.08,7688.888888888889
-0.365,-0.04,7691.666666666667
-0.385,-0.04,7694.444444444444
-0.425,-0.08,7697.222222222223
-0.45,-0.09,7700.0
-0.465,-0.1,7702.777777777777
-0.495,-0.07,7705.555555555556
-0.54,-0.06,7708.333333333333
-0.55,-0.23,7711.111111111111
-0.55,-0.56,7713.888888888889
-0.545,-0.885,7716.666666666667
-0.515,-1.205,7719.444444444444
-0.485,-1.56,7722.222222222223
-0.465,-1.91,7725.0
-0.445,-2.26,7727.777777777777
-0.42,-2.585,7730.555555555556
-0.38,-2.84,7733.333333333333
-0.365,-2.975,7736.111111111111
-0.325,-3.02,7738.888888888889
-0.295,-2.965,7741.666666666667
-0.21,-2.8,7744.444444444444
-0.03,-2.395,7747.222222222223
0.175,-1.76,7750.0
0.35,-1.125,7752.777777777777
0.42,-0.49,7755.555555555556
0.38,0.095,7758.333333333333
0.335,0.19,7761.111111111111
0.24,0.195,7763.888888888889
0.105,0.195,7766.666666666667
-0.03,0.195,7769.444444444444
-0.125,0.19,7772.222222222223
-0.21,0.215,7775.0
-0.265,0.245,7777.777777777777
-0.305,0.245,7780.555555555556
-0.315,0.26,7783.333333333333
-0.29,0.27,7786.111111111111
-0.28,0.255,7788.888888888889
-0.275,0.22,7791.666666666667
-0.285,0.205,7794.444444444444
-0.31,0.195,7797.222222222223
-0.325,0.195,7800.0
-0.31,0.21,7802.777777777777
-0.3,0.22,7805.555555555556
-0.31,0.235,7808.333333333333
-0.31,0.24,7811.111111111111
-0.31,0.235,7813.888888888889
-0.295,0.24,7816.666666666667
-0.295,0.24,7819.444444444444
-0.28,0.24,7822.222222222223
-0.28,0.225,7825.0
-0.28,0.235,7827.777777777777
-0.29,0.25,7830.555555555556
-0.29,0.275,7833.333333333333
-0.27,0.3,7836.111111111111
-0.26,0.28,7838.888888888889
-0.27,0.255,7841.666666666667
-0.285,0.23,7844.444444444444
-0.305,0.235,7847.222222222223
-0.295,0.26,7850.0
-0.28,0.26,7852.777777777777
-0.215,0.265,7855.555555555556
-0.205,0.245,7858.333333333333
-0.225,0.235,7861.111111111111
-0.24,0.235,7863.888888888889
-0.245,0.25,7866.666666666667
-0.23,0.255,7869.444444444444
-0.205,0.25,7872.222222222223
-0.215,0.27,7875.0
-0.225,0.26,7877.777777777777
-0.22,0.255,7880.555555555556
-0.18,0.27,7883.333333333333
-0.155,0.265,7886.111111111111
-0.13,0.25,7888.888888888889
-0.13,0.24,7891.666666666667
-0.155,0.23,7894.444444444444
-0.16,0.23,7897.222222222223
-0.175,0.215,7900.0
-0.155,0.195,7902.777777777777
-0.13,0.185,7905.555555555556
-0.115,0.195,7908.333333333333
-0.1,0.22,7911.111111111111
-0.095,0.225,7913.888888888889
-0.11,0.195,7916.666666666667
-0.11,0.185,7919.444444444444
-0.11,0.145,7922.222222222223
-0.11,0.14,7925.0
-0.12,0.135,7927.777777777777
-0.11,0.12,7930.555555555556
-0.07,0.105,7933.333333333333
-0.07,0.105,7936.111111111111
-0.06,0.105,7938.888888888889
-0.065,0.115,7941.666666666667
-0.07,0.105,7944.444444444444
-0.065,0.115,7947.222222222223
-0.045,0.095,7950.0
-0.01,0.085,7952.777777777777
0.025,0.05,7955.555555555556
0.025,0.03,7958.333333333333
0.015,0.005,7961.111111111111
0.01,-0.035,7963.888888888889
-0.015,-0.075,7966.666666666667
-0.005,-0.075,7969.444444444444
-0.005,-0.095,7972.222222222223
-0.01,-0.1,7975.0
0.025,-0.13,7977.777777777777
0.025,-0.14,7980.555555555556
0.01,-0.14,7983.333333333333
0.01,-0.14,7986.111111111111
0.015,-0.135,7988.888888888889
0.005,-0.15,7991.666666666667
-0.015,-0.15,7994.444444444444
-0.015,-0.175,7997.222222222223
-0.025,-0.19,8000.0
-0.03,-0.21,8002.777777777777
-0.025,-0.23,8005.555555555556
-0.03,-0.22,8008.333333333333
-0.035,-0.215,8011.111111111111
-0.045,-0.21,8013.888888888889
-0.055,-0.2,8016.666666666667
-0.045,-0.175,8019.444444444444
-0.045,-0.185,8022.222222222223
-0.08,-0.23,8025.0
-0.12,-0.255,8027.777777777777
-0.145,-0.25,8030.555555555556
-0.155,-0.215,8033.333333333333
-0.155,-0.175,8036.111111111111
-0.15,-0.16,8038.888888888889
-0.16,-0.145,8041.666666666667
-0.145,-0.14,8044.444444444444
-0.14,-0.15,8047.222222222223
-0.165,-0.13,8050.0
-0.165,-0.125,8052.777777777777
-0.165,-0.125,8055.555555555556
-0.175,-0.135,8058.333333333333
-0.18,-0.12,8061.111111111111
-0.235,-0.13,8063.888888888889
-0.245,-0.115,8066.666666666667
-0.255,-0.12,8069.444444444444
-0.26,-0.12,8072.222222222223
-0.255,-0.125,8075.0
-0.275,-0.145,8077.777777777777
-0.28,-0.135,8080.555555555556
-0.285,-0.1,8083.333333333333
-0.3,-0.065,8086.111111111111
-0.28,-0.06,8088.888888888889
-0.295,-0.07,8091.666666666667
-0.305,-0.055,8094.444444444444
-0.325,-0.04,8097.222222222223
-0.325,-0.025,8100.0
-0.32,-0.015,8102.777777777777
-0.32,-0.02,8105.555555555556
-0.315,-0.035,8108.333333333333
-0.32,-0.045,8111.111111111111
-0.3,-0.035,8113.888888888889
-0.285,-0.04,8116.666666666667
-0.315,-0.03,8119.444444444444
-0.325,-0.035,8122.222222222223
-0.33,-0.03,8125.0
-0.34,-0.035,8127.777777777777
-0.37,-0.03,8130.555555555556
-0.385,-0.01,8133.333333333333
-0.36,-0.005,8136.111111111111
-0.365,0.0,8138.888888888889
-0.36,0.0,8141.666666666667
-0.345,0.01,8144.444444444444
-0.36,0.02,8147.222222222223
-0.365,0.04,8150.0
-0.38,0.055,8152.777777777777
-0.395,0.055,8155.555555555556
-0.395,0.03,8158.333333333333
-0.395,0.035,8161.111111111111
-0.425,0.035,8163.888888888889
-0.435,0.05,8166.666666666667
-0.425,0.05,8169.444444444444
-0.405,0.06,8172.222222222223
-0.435,0.03,8175.0
-0.47,0.005,8177.777777777777
-0.47,0.005,8180.555555555556
-0.46,0.01,8183.333333333333
-0.455,0.035,8186.111111111111
-0.43,0.05,8188.888888888889
-0.425,0.05,8191.666666666667
-0.43,0.04,8194.444444444445
-0.44,0.01,8197.222222222223
-0.455,0.005,8200.0
-0.455,0.005,8202.777777777777
-0.46,0.025,8205.555555555555
-0.485,0.035,8208.333333333334
-0.505,0.03,8211.111111111111
-0.48,0.005,8213.888888888889
-0.48,-0.01,8216.666666666666
-0.445,-0.02,8219.444444444445
-0.455,-0.015,8222.222222222223
-0.445,-0.02,8225.0
-0.455,-0.01,8227.777777777777
-0.46,-0.005,8230.555555555555
-0.475,-0.01,8233.333333333334
-0.465,-0.02,8236.111111111111
-0.455,-0.02,8238.888888888889
-0.445,-0.025,8241.666666666666
-0.435,-0.035,8244.444444444445
-0.43,-0.03,8247.222222222223
-0.415,-0.025,8250.0
-0.425,-0.01,8252.777777777777
-0.425,-0.015,8255.555555555555
-0.435,0.01,8258.333333333334
-0.435,0.025,8261.111111111111
-0.43,-0.01,8263.888888888889
-0.41,-0.04,8266.666666666666
-0.365,-0.035,8269.444444444445
-0.335,0.0,8272.222222222223
-0.335,0.055,8275.0
-0.36,0.07,8277.777777777777
-0.36,0.045,8280.555555555555
-0.36,0.035,8283.333333333334
-0.34,0.01,8286.111111111111
-0.335,0.02,8288.888888888889
-0.345,0.04,8291.666666666666
-0.35,0.04,8294.444444444445
-0.35,0.045,8297.222222222223
-0.345,0.05,8300.0
-0.325,0.06,8302.777777777777
-0.315,0.07,8305.555555555555
-0.32,0.065,8308.333333333334
-0.325,0.025,8311.111111111111
-0.325,-0.045,8313.888888888889
-0.35,-0.1,8316.666666666666
-0.345,-0.135,8319.444444444445
-0.36,-0.16,8322.222222222223
-0.39,-0.175,8325.0
-0.4,-0.195,8327.777777777777
-0.41,-0.2,8330.555555555555
-0.42,-0.175,8333.333333333334
-0.41,-0.15,8336.111111111111
-0.415,-0.155,8338.888888888889
-0.455,-0.15,8341.666666666666
-0.465,-0.155,8344.444444444445
-0.47,-0.16,8347.222222222223
-0.485,-0.155,8350.0
-0.465,-0.165,8352.777777777777
-0.445,-0.19,8355.555555555555
-0.455,-0.225,8358.333333333334
-0.47,-0.235,8361.111111111111
-0.47,-0.23,8363.888888888889
-0.465,-0.215,8366.666666666666
-0.455,-0.205,8369.444444444445
-0.46,-0.195,8372.222222222223
-0.47,-0.2,8375.0
-0.5,-0.22,8377.777777777777
-0.55,-0.235,8380.555555555555
-0.55,-0.245,8383.333333333334
-0.54,-0.25,8386.111111111111
-0.53,-0.26,8388.888888888889
-0.52,-0.26,8391.666666666666
-0.515,-0.255,8394.444444444445
-0.53,-0.265,8397.222222222223
-0.535,-0.255,8400.0
-0.54,-0.25,8402.777777777777
-0.535,-0.27,8405.555555555555
-0.55,-0.3,8408.333333333334
-0.55,-0.29,8411.111111111111
-0.555,-0.285,8413.888888888889
-0.555,-0.29,8416.666666666666
-0.55,-0.285,8419.444444444445
-0.54,-0.28,8422.222222222223
-0.54,-0.27,8425.0
-0.55,-0.275,8427.777777777777
-0.57,-0.27,8430.555555555555
-0.58,-0.275,8433.333333333334
-0.575,-0.285,8436.111111111111
-0.565,-0.285,8438.888888888889
-0.575,-0.28,8441.666666666666
-0.58,-0.295,8444.444444444445
-0.58,-0.29,8447.222222222223
-0.565,-0.24,8450.0
-0.53,-0.195,8452.777777777777
-0.495,-0.17,8455.555555555555
-0.495,-0.135,8458.333333333334
-0.5,-0.115,8461.111111111111
-0.515,-0.165,8463.888888888889
-0.515,-0.175,8466.666666666666
-0.47,-0.15,8469.444444444445
-0.44,-0.105,8472.222222222223
-0.42,-0.065,8475.0
-0.435,-0.055,8477.777777777777
-0.44,-0.065,8480.555555555555
-0.45,-0.09,8483.333333333334
-0.445,-0.08,8486.111111111111
-0.455,-0.065,8488.888888888889
-0.465,-0.075,8491.666666666666
-0.485,-0.1,8494.444444444445
-0.49,-0.115,8497.222222222223
-0.47,-0.105,8500.0
-0.44,-0.095,8502.777777777777
-0.425,-0.065,8505.555555555555
-0.41,-0.06,8508.333333333334
-0.425,-0.05,8511.111111111111
-0.43,-0.06,8513.888888888889
-0.435,-0.045,8516.666666666666
-0.44,-0.06,8519.444444444445
-0.445,-0.045,8522.222222222223
-0.43,-0.04,8525.0
-0.44,-0.04,8527.777777777777
-0.47,-0.06,8530.555555555555
-0.495,-0.075,8533.333333333334
-0.51,-0.085,8536.111111111111
-0.535,-0.1,8538.888888888889
-0.59,-0.085,8541.666666666666
-0.615,-0.17,8544.444444444445
-0.62,-0.375,8547.222222222223
-0.585,-0.64,8550.0
-0.545,-0.88,8552.777777777777
-0.51,-1.17,8555.555555555555
-0.485,-1.51,8558.333333333334
-0.42,-1.905,8561.111111111111
-0.37,-2.305,8563.888888888889
-0.36,-2.61,8566.666666666666
-0.355,-2.805,8569.444444444445
-0.33,-2.9,8572.222222222223
-0.325,-2.92,8575.0
-0.3,-2.895,8577.777777777777
-0.21,-2.8,8580.555555555555
-0.065,-2.56,8583.333333333334
0.12,-2.125,8586.111111111111
0.315,-1.49,8588.888888888889
0.41,-0.855,8591.666666666666
0.425,-0.285,8594.444444444445
0.375,-0.045,8597.222222222223
0.31,0.055,8600.0
0.215,0.13,8602.777777777777
0.075,0.155,8605.555555555555
-0.065,0.14,8608.333333333334
-0.19,0.12,8611.111111111111
-0.27,0.13,8613.888888888889
-0.31,0.165,8616.666666666666
-0.32,0.19,8619.444444444445
-0.325,0.205,8622.222222222223
-0.335,0.19,8625.0
-0.365,0.2,8627.777777777777
-0.38,0.165,8630.555555555555
-0.4,0.17,8633.333333333334
-0.375,0.19,8636.111111111111
-0.345,0.22,8638.888888888889
-0.335,0.215,8641.666666666666
-0.315,0.235,8644.444444444445
-0.335,0.24,8647.222222222223
-0.33,0.235,8650.0
-0.32,0.24,8652.777777777777
-0.325,0.215,8655.555555555555
-0.34,0.185,8658.333333333334
-0.375,0.16,8661.111111111111
-0.375,0.17,8663.888888888889
-0.375,0.165,8666.666666666666
-0.345,0.185,8669.444444444445
-0.315,0.195,8672.222222222223
-0.31,0.225,8675.0
-0.33,0.225,8677.777777777777
-0.35,0.215,8680.555555555555
-0.39,0.22,8683.333333333334
-0.395,0.225,8686.111111111111
-0.37,0.225,8688.888888888889
-0.325,0.2,8691.666666666666
-0.305,0.195,8694.444444444445
-0.29,0.18,8697.222222222223
-0.285,0.185,8700.0
-0.295,0.21,8702.777777777777
-0.295,0.22,8705.555555555555
-0.285,0.205,8708.333333333334
-0.265,0.19,8711.111111111111
-0.27,0.185,8713.888888888889
-0.285,0.185,8716.666666666666
-0.27,0.205,8719.444444444445
-0.255,0.23,8722.222222222223
-0.255,0.255,8725.0
-0.27,0.245,8727.777777777777
-0.275,0.235,8730.555555555555
-0.275,0.215,8733.333333333334
-0.255,0.205,8736.111111111111
-0.25,0.2,8738.888888888889
-0.255,0.19,8741.666666666666
-0.26,0.155,8744.444444444445
-0.25,0.12,8747.222222222223
-0.245,0.135,8750.0
-0.235,0.16,8752.777777777777
-0.215,0.175,8755.555555555555
-0.215,0.2,8758.333333333334
-0.215,0.19,8761.111111111111
-0.215,0.175,8763.888888888889
-0.185,0.18,8766.666666666666
-0.16,0.195,8769.444444444445
-0.135,0.185,8772.222222222223
-0.12,0.16,8775.0
-0.105,0.11,8777.777777777777
-0.145,0.075,8780.555555555555
-0.15,0.055,8783.333333333334
-0.145,0.065,8786.111111111111
-0.135,0.095,8788.888888888889
-0.115,0.1,8791.666666666666
-0.115,0.08,8794.444444444445
-0.12,0.02,8797.222222222223
-0.11,0.045,8800.0
-0.095,0.045,8802.777777777777
-0.1,0.055,8805.555555555555
-0.095,0.03,8808.333333333334
-0.11,-0.01,8811.111111111111
-0.13,-0.025,8813.888888888889
-0.145,-0.035,8816.666666666666
-0.125,-0.065,8819.444444444445
-0.095,-0.065,8822.222222222223
-0.075,-0.09,8825.0
-0.06,-0.12,8827.777777777777
-0.05,-0.14,8830.555555555555
-0.05,-0.14,8833.333333333334
-0.06,-0.115,8836.111111111111
-0.05,-0.12,8838.888888888889
-0.065,-0.12,8841.666666666666
-0.075,-0.155,8844.444444444445
-0.085,-0.19,8847.222222222223
-0.09,-0.22,8850.0
-0.085,-0.23,8852.777777777777
-0.085,-0.205,8855.555555555555
-0.09,-0.185,8858.333333333334
-0.105,-0.175,8861.111111111111
-0.115,-0.17,8863.888888888889
-0.13,-0.155,8866.666666666666
-0.135,-0.145,8869.444444444445
-0.14,-0.155,8872.222222222223
-0.17,-0.175,8875.0
-0.185,-0.21,8877.777777777777
-0.165,-0.22,8880.555555555555
-0.145,-0.215,8883.333333333334
-0.15,-0.2,8886.111111111111
-0.17,-0.17,8888.888888888889
-0.21,-0.17,8891.666666666666
-0.215,-0.18,8894.444444444445
-0.245,-0.155,8897.222222222223
-0.265,-0.13,8900.0
-0.245,-0.135,8902.777777777777
-0.23,-0.145,8905.555555555555
-0.23,-0.15,8908.333333333334
-0.255,-0.19,8911.111111111111
-0.265,-0.205,8913.888888888889
-0.3,-0.19,8916.666666666666
-0.305,-0.155,8919.444444444445
-0.315,-0.13,8922.222222222223
-0.31,-0.09,8925.0
-0.33,-0.085,8927.777777777777
-0.355,-0.08,8930.555555555555
-0.36,-0.06,8933.333333333334
-0.335,-0.055,8936.111111111111
-0.3,-0.06,8938.888888888889
-0.29,-0.075,8941.666666666666
-0.305,-0.085,8944.444444444445
-0.32,-0.085,8947.222222222223
-0.335,-0.065,8950.0
-0.345,-0.05,8952.777777777777
-0.34,-0.03,8955.555555555555
-0.355,-0.03,8958.333333333334
-0.365,-0.05,8961.111111111111
-0.35,-0.055,8963.888888888889
-0.36,-0.06,8966.666666666666
-0.35,-0.07,8969.444444444445
-0.35,-0.065,8972.222222222223
-0.36,-0.035,8975.0
-0.375,-0.03,8977.777777777777
-0.38,-0.025,8980.555555555555
-0.395,0.0,8983.333333333334
-0.37,0.025,8986.111111111111
-0.365,0.04,8988.888888888889
-0.325,0.03,8991.666666666666
-0.325,0.005,8994.444444444445
-0.335,-0.01,8997.222222222223
-0.33,0.0,9000.0
-0.335,0.005,9002.777777777777
-0.345,0.035,9005.555555555555
-0.38,0.035,9008.333333333334
-0.375,0.03,9011.111111111111
-0.385,0.03,9013.888888888889
-0.395,0.045,9016.666666666666
-0.375,0.06,9019.444444444445
-0.37,0.075,9022.222222222223
-0.37,0.08,9025.0
-0.375,0.085,9027.777777777777
-0.39,0.07,9030.555555555555
-0.42,0.055,9033.333333333334
-0.42,0.06,9036.111111111111
-0.425,0.06,9038.888888888889
-0.4,0.065,9041.666666666666
-0.41,0.035,9044.444444444445
-0.415,0.005,9047.222222222223
-0.425,0.015,9050.0
-0.425,0.05,9052.777777777777
-0.415,0.07,9055.555555555555
-0.4,0.08,9058.333333333334
-0.41,0.06,9061.111111111111
-0.445,0.025,9063.888888888889
-0.465,0.015,9066.666666666666
-0.465,0.04,9069.444444444445
-0.455,0.055,9072.222222222223
-0.425,0.035,9075.0
-0.415,0.025,9077.777777777777
-0.4,0.015,9080.555555555555
-0.415,0.05,9083.333333333334
-0.415,0.045,9086.111111111111
-0.42,0.055,9088.888888888889
-0.415,0.065,9091.666666666666
-0.42,0.05,9094.444444444445
-0.425,0.025,9097.222222222223
-0.415,0.005,9100.0
-0.41,-0.005,9102.777777777777
-0.4,0.005,9105.555555555555
-0.405,0.02,9108.333333333334
-0.405,0.035,9111.111111111111
-0.425,0.025,9113.888888888889
-0.44,0.03,9116.666666666666
-0.425,0.035,9119.444444444445
-0.43,0.045,9122.222222222223
-0.395,0.035,9125.0
-0.4,0.005,9127.777777777777
-0.41,-0.045,9130.555555555555
-0.385,-0.04,9133.333333333334
-0.37,-0.015,9136.111111111111
-0.36,0.015,9138.888888888889
-0.33,0.035,9141.666666666666
-0.33,0.04,9144.444444444445
-0.34,0.06,9147.222222222223
-0.335,0.075,9150.0
-0.29,0.085,9152.777777777777
-0.25,0.09,9155.555555555555
-0.245,0.09,9158.333333333334
-0.255,0.06,9161.111111111111
-0.265,0.05,9163.888888888889
-0.275,0.045,9166.666666666666
-0.27,0.065,9169.444444444445
-0.28,0.08,9172.222222222223
-0.29,0.04,9175.0
-0.29,-0.015,9177.777777777777
-0.295,-0.065,9180.555555555555
-0.315,-0.125,9183.333333333334
-0.305,-0.15,9186.111111111111
-0.295,-0.16,9188.888888888889
-0.315,-0.175,9191.666666666666
-0.335,-0.2,9194.444444444445
-0.37,-0.2,9197.222222222223
-0.41,-0.18,9200.0
-0.425,-0.165,9202.777777777777
-0.42,-0.145,9205.555555555555
-0.415,-0.13,9208.333333333334
-0.41,-0.135,9211.111111111111
-0.415,-0.145,9213.888888888889
-0.41,-0.145,9216.666666666666
-0.395,-0.14,9219.444444444445
-0.39,-0.155,9222.222222222223
-0.41,-0.165,9225.0
-0.43,-0.195,9227.777777777777
-0.445,-0.205,9230.555555555555
-0.46,-0.205,9233.333333333334
-0.45,-0.18,9236.111111111111
-0.435,-0.17,9238.888888888889
-0.425,-0.175,9241.666666666666
-0.425,-0.18,9244.444444444445
-0.45,-0.175,9247.222222222223
-0.46,-0.16,9250.0
-0.45,-0.17,9252.777777777777
-0.455,-0.17,9255.555555555555
-0.46,-0.195,9258.333333333334
-0.485,-0.26,9261.111111111111
-0.5,-0.34,9263.888888888889
-0.495,-0.355,9266.666666666666
-0.47,-0.315,9269.444444444445
-0.48,-0.29,9272.222222222223
-0.475,-0.28,9275.0
-0.495,-0.3,9277.777777777777
-0.495,-0.31,9280.555555555555
-0.495,-0.31,9283.333333333334
-0.49,-0.29,9286.111111111111
-0.495,-0.29,9288.888888888889
-0.515,-0.28,9291.666666666666
-0.535,-0.285,9294.444444444445
-0.53,-0.285,9297.222222222223
-0.525,-0.27,9300.0
-0.5,-0.245,9302.777777777777
-0.47,-0.235,9305.555555555555
-0.44,-0.22,9308.333333333334
-0.41,-0.21,9311.111111111111
-0.39,-0.215,9313.888888888889
-0.37,-0.205,9316.666666666666
-0.355,-0.155,9319.444444444445
-0.375,-0.115,9322.222222222223
-0.37,-0.075,9325.0
-0.375,-0.075,9327.777777777777
-0.36,-0.085,9330.555555555555
-0.35,-0.045,9333.333333333334
-0.34,-0.02,9336.111111111111
-0.33,0.005,9338.888888888889
-0.34,-0.01,9341.666666666666
-0.35,-0.025,9344.444444444445
-0.365,-0.045,9347.222222222223
-0.37,-0.04,9350.0
-0.355,-0.06,9352.777777777777
-0.34,-0.06,9355.555555555555
-0.33,-0.055,9358.333333333334
-0.315,-0.07,9361.111111111111
-0.325,-0.095,9363.888888888889
-0.33,-0.075,9366.666666666666
-0.305,-0.035,9369.444444444445
-0.29,-0.02,9372.222222222223
-0.29,-0.025,9375.0
-0.29,-0.045,9377.777777777777
-0.305,-0.075,9380.555555555555
-0.31,-0.055,9383.333333333334
-0.31,-0.02,9386.111111111111
-0.33,0.0,9388.888888888889
-0.365,-0.02,9391.666666666666
-0.42,-0.045,9394.444444444445
-0.46,-0.055,9397.222222222223
-0.5,-0.01,9400.0
-0.52,0.0,9402.777777777777
-0.505,-0.13,9405.555555555555
-0.46,-0.405,9408.333333333334
-0.41,-0.71,9411.111111111111
-0.38,-1.025,9413.888888888889
-0.325,-1.37,9416.666666666666
-0.27,-1.75,9419.444444444445
-0.25,-2.165,9422.222222222223
-0.235,-2.505,9425.0
-0.22,-2.745,9427.777777777777
-0.21,-2.845,9430.555555555555
-0.185,-2.845,9433.333333333334
-0.095,-2.755,9436.111111111111
0.045,-2.54,9438.888888888889
0.245,-2.175,9441.666666666666
0.44,-1.575,9444.444444444445
0.555,-0.94,9447.222222222223
0.57,-0.39,9450.0
0.53,-0.06,9452.777777777777
0.46,0.08,9455.555555555555
0.365,0.145,9458.333333333334
0.25,0.17,9461.111111111111
0.09,0.135,9463.888888888889
-0.04,0.095,9466.666666666666
-0.125,0.11,9469.444444444445
-0.165,0.18,9472.222222222223
-0.195,0.23,9475.0
-0.225,0.24,9477.777777777777
-0.23,0.205,9480.555555555555
-0.245,0.19,9483.333333333334
-0.24,0.18,9486.111111111111
-0.22,0.185,9488.888888888889
-0.195,0.19,9491.666666666666
-0.18,0.195,9494.444444444445
-0.205,0.18,9497.222222222223
-0.235,0.195,9500.0
-0.24,0.22,9502.777777777777
-0.25,0.245,9505.555555555555
-0.26,0.255,9508.333333333334
-0.27,0.225,9511.111111111111
-0.265,0.22,9513.888888888889
-0.245,0.225,9516.666666666666
-0.215,0.235,9519.444444444445
-0.215,0.255,9522.222222222223
-0.185,0.24,9525.0
-0.19,0.2,9527.777777777777
-0.195,0.185,9530.555555555555
-0.205,0.175,9533.333333333334
-0.205,0.2,9536.111111111111
-0.185,0.205,9538.888888888889
-0.18,0.21,9541.666666666666
-0.195,0.2,9544.444444444445
-0.19,0.2,9547.222222222223
-0.195,0.21,9550.0
-0.205,0.235,9552.777777777777
-0.19,0.215,9555.555555555555
-0.195,0.22,9558.333333333334
-0.17,0.235,9561.111111111111
-0.17,0.225,9563.888888888889
-0.145,0.205,9566.666666666666
-0.14,0.21,9569.444444444445
-0.115,0.22,9572.222222222223
-0.115,0.24,9575.0
-0.13,0.205,9577.777777777777
-0.15,0.18,9580.555555555555
-0.15,0.165,9583.333333333334
-0.165,0.165,9586.111111111111
-0.14,0.175,9588.888888888889
-0.14,0.18,9591.666666666666
-0.12,0.195,9594.444444444445
-0.11,0.19,9597.222222222223
-0.09,0.205,9600.0
-0.085,0.21,9602.777777777777
-0.09,0.21,9605.555555555555
-0.105,0.2,9608.333333333334
-0.125,0.195,9611.111111111111
-0.135,0.18,9613.888888888889
-0.14,0.19,9616.666666666666
-0.14,0.195,9619.444444444445
-0.115,0.21,9622.222222222223
-0.105,0.215,9625.0
-0.1,0.22,9627.777777777777
-0.09,0.22,9630.555555555555
-0.07,0.19,9633.333333333334
-0.05,0.17,9636.111111111111
-0.045,0.155,9638.888888888889
-0.01,0.155,9641.666666666666
-0.025,0.135,9644.444444444445
-0.025,0.125,9647.222222222223
-0.015,0.12,9650.0
0.005,0.105,9652.777777777777
0.005,0.09,9655.555555555555
0.03,0.085,9658.333333333334
0.03,0.07,9661.111111111111
0.015,0.06,9663.888888888889
-0.005,0.055,9666.666666666666
-0.015,0.04,9669.444444444445
-0.005,0.035,9672.222222222223
0.01,0.025,9675.0
0.035,0.0,9677.777777777777
0.065,-0.025,9680.555555555555
0.085,-0.035,9683.333333333334
0.08,-0.04,9686.111111111111
0.06,-0.04,9688.888888888889
0.045,-0.065,9691.666666666666
0.035,-0.11,9694.444444444445
0.035,-0.125,9697.222222222223
0.045,-0.11,9700.0
0.065,-0.1,9702.777777777777
0.07,-0.11,9705.555555555555
0.08,-0.14,9708.333333333334
0.085,-0.145,9711.111111111111
0.055,-0.145,9713.888888888889
0.045,-0.135,9716.666666666666
0.045,-0.125,9719.444444444445
0.04,-0.115,9722.222222222223
0.035,-0.135,9725.0
0.01,-0.155,9727.777777777777
0.01,-0.16,9730.555555555555
0.02,-0.175,9733.333333333334
0.03,-0.165,9736.111111111111
0.03,-0.145,9738.888888888889
0.02,-0.15,9741.666666666666
-0.02,-0.165,9744.444444444445
-0.055,-0.2,9747.222222222223
-0.085,-0.235,9750.0
-0.075,-0.235,9752.777777777777
-0.08,-0.215,9755.555555555555
-0.075,-0.195,9758.333333333334
-0.08,-0.17,9761.111111111111
-0.08,-0.14,9763.888888888889
-0.105,-0.105,9766.666666666666
-0.12,-0.11,9769.444444444445
-0.125,-0.135,9772.222222222223
-0.14,-0.145,9775.0
-0.165,-0.135,9777.777777777777
-0.185,-0.15,9780.555555555555
-0.205,-0.11,9783.333333333334
-0.195,-0.11,9786.111111111111
-0.19,-0.085,9788.888888888889
-0.205,-0.07,9791.666666666666
-0.2,-0.07,9794.444444444445
-0.2,-0.085,9797.222222222223
-0.215,-0.08,9800.0
-0.23,-0.075,9802.777777777777
-0.215,-0.08,9805.555555555555
-0.225,-0.085,9808.333333333334
-0.235,-0.05,9811.111111111111
-0.245,-0.045,9813.888888888889
-0.27,-0.06,9816.666666666666
-0.26,-0.08,9819.444444444445
-0.265,-0.07,9822.222222222223
-0.26,-0.055,9825.0
-0.27,-0.035,9827.777777777777
-0.275,-0.035,9830.555555555555
-0.285,-0.015,9833.333333333334
-0.27,0.0,9836.111111111111
-0.26,0.02,9838.888888888889
-0.25,0.035,9841.666666666666
-0.265,0.0,9844.444444444445
-0.28,-0.015,9847.222222222223
-0.285,0.02,9850.0
-0.3,0.05,9852.777777777777
-0.315,0.045,9855.555555555555
-0.32,0.01,9858.333333333334
-0.32,0.005,9861.111111111111
-0.33,0.01,9863.888888888889
-0.315,0.055,9866.666666666666
-0.285,0.065,9869.444444444445
-0.28,0.08,9872.222222222223
-0.28,0.095,9875.0
-0.315,0.09,9877.777777777777
-0.335,0.065,9880.555555555555
-0.345,0.075,9883.333333333334
-0.33,0.09,9886.111111111111
-0.34,0.08,9888.888888888889
-0.35,0.08,9891.666666666666
-0.355,0.055,9894.444444444445
-0.375,0.05,9897.222222222223
-0.39,0.04,9900.0
-0.385,0.05,9902.777777777777
-0.39,0.06,9905.555555555555
-0.385,0.07,9908.333333333334
-0.38,0.065,9911.111111111111
-0.365,0.06,9913.888888888889
-0.39,0.07,9916.666666666666
-0.39,0.075,9919.444444444445
-0.385,0.085,9922.222222222223
-0.38,0.075,9925.0
-0.38,0.05,9927.777777777777
-0.395,0.015,9930.555555555555
-0.39,0.005,9933.333333333334
-0.385,-0.005,9936.111111111111
-0.355,0.015,9938.888888888889
-0.355,0.015,9941.666666666666
-0.365,0.0,9944.444444444445
-0.39,0.0,9947.222222222223
-0.405,0.035,9950.0
-0.4,0.055,9952.777777777777
-0.37,0.03,9955.555555555555
-0.345,0.015,9958.333333333334
-0.325,-0.01,9961.111111111111
-0.33,-0.02,9963.888888888889
-0.35,0.03,9966.666666666666
-0.35,0.045,9969.444444444445
-0.345,0.065,9972.222222222223
-0.33,0.045,9975.0
-0.31,0.015,9977.777777777777
-0.31,0.015,9980.555555555555
-0.3,0.055,9983.333333333334
-0.275,0.07,9986.111111111111
-0.255,0.08,9988.888888888889
-0.23,0.095,9991.666666666666
-0.23,0.09,9994.444444444445
-0.23,0.07,9997.222222222223
-0.25,0.07,10000.0
-0.26,0.055,10002.777777777777
-0.25,0.08,10005.555555555555
-0.235,0.08,10008.333333333334
-0.22,0.03,10011.111111111111
-0.235,-0.065,10013.888888888889
-0.25,-0.125,10016.666666666666
-0.285,-0.165,10019.444444444445
-0.305,-0.165,10022.222222222223
-0.33,-0.14,10025.0
-0.34,-0.135,10027.777777777777
-0.35,-0.135,10030.555555555555
-0.375,-0.14,10033.333333333334
-0.38,-0.15,10036.111111111111
-0.37,-0.15,10038.888888888889
-0.38,-0.145,10041.666666666666
-0.395,-0.155,10044.444444444445
-0.42,-0.175,10047.222222222223
-0.435,-0.195,10050.0
-0.435,-0.185,10052.777777777777
-0.425,-0.18,10055.555555555555
-0.42,-0.13,10058.333333333334
-0.415,-0.14,10061.111111111111
-0.425,-0.19,10063.888888888889
-0.41,-0.205,10066.666666666666
-0.42,-0.2,10069.444444444445
-0.43,-0.21,10072.222222222223
-0.445,-0.19,10075.0
-0.465,-0.205,10077.777777777777
-0.47,-0.215,10080.555555555555
-0.47,-0.215,10083.333333333334
-0.46,-0.215,10086.111111111111
-0.45,-0.21,10088.888888888889
-0.46,-0.215,10091.666666666666
-0.48,-0.245,10094.444444444445
-0.475,-0.24,10097.222222222223
-0.495,-0.245,10100.0
-0.495,-0.245,10102.777777777777
-0.51,-0.24,10105.555555555555
-0.495,-0.24,10108.333333333334
-0.5,-0.24,10111.111111111111
-0.505,-0.235,10113.888888888889
-0.505,-0.195,10116.666666666666
-0.505,-0.17,10119.444444444445
-0.475,-0.145,10122.222222222223
-0.46,-0.145,10125.0
-0.465,-0.145,10127.777777777777
-0.455,-0.155,10130.555555555555
-0.445,-0.14,10133.333333333334
-0.43,-0.1,10136.111111111111
-0.41,-0.08,10138.888888888889
-0.41,-0.07,10141.666666666666
-0.41,-0.08,10144.444444444445
-0.43,-0.06,10147.222222222223
-0.42,-0.045,10150.0
-0.405,-0.005,10152.777777777777
-0.39,0.015,10155.555555555555
-0.36,0.005,10158.333333333334
-0.35,-0.045,10161.111111111111
-0.365,-0.06,10163.888888888889
-0.37,-0.025,10166.666666666666
-0.36,0.0,10169.444444444445
-0.355,-0.005,10172.222222222223
-0.35,-0.015,10175.0
-0.37,-0.035,10177.777777777777
-0.375,-0.05,10180.555555555555
-0.365,-0.035,10183.333333333334
-0.36,-0.005,10186.111111111111
-0.355,0.005,10188.888888888889
-0.355,0.01,10191.666666666666
-0.36,-0.01,10194.444444444445
-0.38,0.015,10197.222222222223
-0.39,0.03,10200.0
-0.405,0.03,10202.777777777777
-0.415,0.005,10205.555555555555
-0.44,0.0,10208.333333333334
-0.495,0.01,10211.111111111111
-0.515,-0.03,10213.888888888889
-0.535,-0.205,10216.666666666666
-0.505,-0.485,10219.444444444445
-0.49,-0.76,10222.222222222223
-0.46,-1.055,10225.0
-0.44,-1.405,10227.777777777777
-0.435,-1.805,10230.555555555555
-0.425,-2.165,10233.333333333334
-0.395,-2.46,10236.111111111111
-0.34,-2.69,10238.888888888889
-0.275,-2.84,10241.666666666666
-0.23,-2.89,10244.444444444445
-0.195,-2.84,10247.222222222223
-0.11,-2.565,10250.0
0.065,-1.96,10252.777777777777
0.305,-1.325,10255.555555555555
0.42,-0.69,10258.333333333334
0.42,-0.055,10261.111111111111
0.35,0.21,10263.888888888889
0.23,0.23,10266.666666666666
0.11,0.22,10269.444444444445
-0.015,0.205,10272.222222222223
-0.1,0.21,10275.0
-0.165,0.22,10277.777777777777
-0.21,0.23,10280.555555555555
-0.24,0.26,10283.333333333334
-0.245,0.295,10286.111111111111
-0.23,0.305,10288.888888888889
-0.235,0.31,10291.666666666666
-0.26,0.305,10294.444444444445
-0.275,0.275,10297.222222222223
-0.29,0.25,10300.0
-0.285,0.265,10302.777777777777
-0.28,0.285,10305.555555555555
-0.27,0.29,10308.333333333334
-0.265,0.295,10311.111111111111
-0.265,0.28,10313.888888888889
-0.27,0.275,10316.666666666666
-0.265,0.265,10319.444444444445
-0.25,0.265,10322.222222222223
-0.26,0.245,10325.0
-0.265,0.225,10327.777777777777
-0.265,0.195,10330.555555555555
-0.275,0.215,10333.333333333334
-0.26,0.255,10336.111111111111
-0.235,0.295,10338.888888888889
-0.22,0.33,10341.666666666666
-0.205,0.32,10344.444444444445
-0.215,0.28,10347.222222222223
-0.215,0.275,10350.0
-0.23,0.315,10352.777777777777
-0.2,0.33,10355.555555555555
-0.2,0.315,10358.333333333334
-0.205,0.275,10361.111111111111
-0.195,0.26,10363.888888888889
-0.21,0.25,10366.666666666666
-0.19,0.27,10369.444444444445
-0.17,0.28,10372.222222222223
-0.17,0.295,10375.0
-0.185,0.265,10377.777777777777
-0.195,0.255,10380.555555555555
-0.2,0.25,10383.333333333334
-0.18,0.265,10386.111111111111
-0.15,0.275,10388.888888888889
-0.125,0.27,10391.666666666666
-0.12,0.28,10394.444444444445
-0.12,0.285,10397.222222222223
-0.1,0.295,10400.0
-0.09,0.315,10402.777777777777
-0.085,0.295,10405.555555555555
-0.09,0.3,10408.333333333334
-0.09,0.28,10411.111111111111
-0.09,0.275,10413.888888888889
-0.095,0.26,10416.666666666666
-0.075,0.285,10419.444444444445
-0.07,0.285,10422.222222222223
-0.065,0.255,10425.0
-0.06,0.24,10427.777777777777
-0.06,0.23,10430.555555555555
-0.055,0.225,10433.333333333334
-0.045,0.24,10436.111111111111
-0.02,0.265,10438.888888888889
-0.01,0.24,10441.666666666666
0.005,0.21,10444.444444444445
-0.01,0.185,10447.222222222223
-0.01,0.18,10450.0
0.0,0.19,10452.777777777777
0.03,0.22,10455.555555555555
0.045,0.19,10458.333333333334
0.04,0.15,10461.111111111111
0.02,0.12,10463.888888888889
0.025,0.11,10466.666666666666
0.035,0.1,10469.444444444445
0.04,0.08,10472.222222222223
0.075,0.02,10475.0
0.06,-0.025,10477.777777777777
0.065,-0.045,10480.555555555555
0.045,-0.05,10483.333333333334
0.035,-0.045,10486.111111111111
0.04,-0.035,10488.888888888889
0.06,-0.03,10491.666666666666
0.05,-0.06,10494.444444444445
0.065,-0.07,10497.222222222223
0.05,-0.075,10500.0
0.055,-0.08,10502.777777777777
0.06,-0.09,10505.555555555555
0.055,-0.115,10508.333333333334
0.06,-0.16,10511.111111111111
0.035,-0.18,10513.888888888889
0.015,-0.18,10516.666666666666
0.025,-0.175,10519.444444444445
0.045,-0.16,10522.222222222223
0.035,-0.165,10525.0
0.035,-0.16,10527.777777777777
0.03,-0.145,10530.555555555555
0.01,-0.15,10533.333333333334
-0.005,-0.155,10536.111111111111
-0.02,-0.15,10538.888888888889
-0.025,-0.125,10541.666666666666
-0.04,-0.125,10544.444444444445
-0.04,-0.135,10547.222222222223
-0.06,-0.115,10550.0
-0.06,-0.1,10552.777777777777
-0.07,-0.095,10555.555555555555
-0.095,-0.12,10558.333333333334
-0.1,-0.12,10561.111111111111
-0.12,-0.14,10563.888888888889
-0.155,-0.115,10566.666666666666
-0.145,-0.095,10569.444444444445
-0.135,-0.08,10572.222222222223
-0.125,-0.1,10575.0
-0.14,-0.14,10577.777777777777
-0.15,-0.125,10580.555555555555
-0.16,-0.095,10583.333333333334
-0.19,-0.06,10586.111111111111
-0.175,-0.05,10588.888888888889
-0.175,-0.055,10591.666666666666
-0.18,-0.095,10594.444444444445
-0.185,-0.1,10597.222222222223
-0.2,-0.06,10600.0
-0.205,-0.04,10602.777777777777
-0.225,-0.025,10605.555555555555
-0.215,-0.025,10608.333333333334
-0.22,-0.04,10611.111111111111
-0.24,-0.04,10613.888888888889
-0.26,-0.04,10616.666666666666
-0.27,-0.04,10619.444444444445
-0.245,-0.025,10622.222222222223
-0.235,-0.01,10625.0
-0.24,0.0,10627.777777777777
-0.235,-0.01,10630.555555555555
-0.255,-0.015,10633.333333333334
-0.235,0.02,10636.111111111111
-0.24,0.055,10638.888888888889
-0.255,0.06,10641.666666666666
-0.265,0.045,10644.444444444445
-0.295,0.02,10647.222222222223
-0.305,0.03,10650.0
-0.285,0.075,10652.777777777777
-0.255,0.085,10655.555555555555
-0.27,0.06,10658.333333333334
-0.275,0.065,10661.111111111111
-0.3,0.07,10663.888888888889
-0.315,0.075,10666.666666666666
-0.33,0.075,10669.444444444445
-0.345,0.075,10672.222222222223
-0.35,0.07,10675.0
-0.34,0.04,10677.777777777777
-0.34,0.015,10680.555555555555
-0.335,0.03,10683.333333333334
-0.325,0.06,10686.111111111111
-0.315,0.07,10688.888888888889
-0.315,0.07,10691.666666666666
-0.335,0.09,10694.444444444445
-0.35,0.085,10697.222222222223
-0.355,0.07,10700.0
-0.35,0.075,10702.777777777777
-0.34,0.085,10705.555555555555
-0.35,0.08,10708.333333333334
-0.35,0.07,10711.111111111111
-0.365,0.045,10713.888888888889
-0.375,0.03,10716.666666666666
-0.38,0.03,10719.444444444445
-0.36,0.04,10722.222222222223
-0.365,0.04,10725.0
-0.365,0.015,10727.777777777777
-0.375,0.01,10730.555555555555
-0.385,0.01,10733.333333333334
-0.365,0.035,10736.111111111111
-0.345,0.05,10738.888888888889
-0.34,0.03,10741.666666666666
-0.36,0.005,10744.444444444445
-0.365,0.015,10747.222222222223
-0.38,0.035,10750.0
-0.37,0.045,10752.777777777777
-0.38,0.03,10755.555555555555
-0.36,0.0,10758.333333333334
-0.35,-0.005,10761.111111111111
-0.365,-0.02,10763.888888888889
-0.385,-0.035,10766.666666666666
-0.39,-0.02,10769.444444444445
-0.39,0.04,10772.222222222223
-0.395,0.07,10775.0
-0.38,0.06,10777.777777777777
-0.37,0.03,10780.555555555555
-0.365,0.0,10783.333333333334
-0.345,0.02,10786.111111111111
-0.31,0.07,10788.888888888889
-0.3,0.075,10791.666666666666
-0.29,0.07,10794.444444444445
-0.285,0.055,10797.222222222223
-0.285,0.04,10800.0
-0.27,0.04,10802.777777777777
-0.25,0.05,10805.555555555555
-0.245,0.055,10808.333333333334
-0.235,0.045,10811.111111111111
-0.25,0.05,10813.888888888889
-0.26,0.085,10816.666666666666
-0.25,0.14,10819.444444444445
-0.24,0.14,10822.222222222223
-0.245,0.09,10825.0
-0.245,0.005,10827.777777777777
-0.275,-0.075,10830.555555555555
-0.265,-0.135,10833.333333333334
-0.27,-0.155,10836.111111111111
-0.285,-0.16,10838.888888888889
-0.3,-0.175,10841.666666666666
-0.325,-0.18,10844.444444444445
-0.365,-0.16,10847.222222222223
-0.39,-0.125,10850.0
-0.385,-0.085,10852.777777777777
-0.36,-0.06,10855.555555555555
-0.37,-0.075,10858.333333333334
-0.385,-0.135,10861.111111111111
-0.415,-0.19,10863.888888888889
-0.42,-0.225,10866.666666666666
-0.42,-0.2,10869.444444444445
-0.405,-0.14,10872.222222222223
-0.415,-0.125,10875.0
-0.43,-0.14,10877.777777777777
-0.43,-0.16,10880.555555555555
-0.455,-0.175,10883.333333333334
-0.455,-0.18,10886.111111111111
-0.455,-0.185,10888.888888888889
-0.43,-0.21,10891.666666666666
-0.425,-0.24,10894.444444444445
-0.435,-0.235,10897.222222222223
-0.455,-0.21,10900.0
-0.475,-0.175,10902.777777777777
-0.47,-0.145,10905.555555555555
-0.48,-0.175,10908.333333333334
-0.48,-0.22,10911.111111111111
-0.48,-0.24,10913.888888888889
-0.49,-0.255,10916.666666666666
-0.48,-0.25,10919.444444444445
-0.455,-0.24,10922.222222222223
-0.45,-0.23,10925.0
-0.47,-0.225,10927.777777777777
-0.505,-0.21,10930.555555555555
-0.52,-0.235,10933.333333333334
-0.51,-0.22,10936.111111111111
-0.485,-0.195,10938.888888888889
-0.445,-0.195,10941.666666666666
-0.44,-0.19,10944.444444444445
-0.44,-0.18,10947.222222222223
-0.445,-0.17,10950.0
-0.415,-0.125,10952.777777777777
-0.405,-0.095,10955.555555555555
-0.395,-0.09,10958.333333333334
-0.395,-0.095,10961.111111111111
-0.375,-0.12,10963.888888888889
-0.38,-0.1,10966.666666666666
-0.385,-0.065,10969.444444444445
-0.385,-0.03,10972.222222222223
-0.38,-0.02,10975.0
-0.385,-0.03,10977.777777777777
-0.38,-0.02,10980.555555555555
-0.385,-0.02,10983.333333333334
-0.375,-0.015,10986.111111111111
-0.345,0.0,10988.888888888889
-0.32,0.005,10991.666666666666
-0.325,0.005,10994.444444444445
-0.35,-0.005,10997.222222222223
-0.365,-0.03,11000.0
-0.36,-0.035,11002.777777777777
-0.36,-0.04,11005.555555555555
-0.34,-0.025,11008.333333333334
-0.36,-0.025,11011.111111111111
-0.36,-0.005,11013.888888888889
-0.395,-0.02,11016.666666666666
-0.41,-0.045,11019.444444444445
-0.435,-0.06,11022.222222222223
-0.46,-0.04,11025.0
-0.515,-0.04,11027.777777777777
-0.545,-0.19,11030.555555555555
-0.505,-0.49,11033.333333333334
-0.465,-0.795,11036.111111111111
-0.405,-1.09,11038.888888888889
-0.39,-1.45,11041.666666666666
-0.35,-1.885,11044.444444444445
-0.305,-2.29,11047.222222222223
-0.265,-2.585,11050.0
-0.24,-2.735,11052.777777777777
-0.22,-2.765,11055.555555555555
-0.18,-2.725,11058.333333333334
-0.115,-2.59,11061.111111111111
0.03,-2.245,11063.888888888889
0.21,-1.62,11066.666666666666
0.365,-0.985,11069.444444444445
0.43,-0.35,11072.222222222223
0.405,0.05,11075.0
0.345,0.155,11077.777777777777
0.23,0.205,11080.555555555555
0.085,0.19,11083.333333333334
-0.02,0.165,11086.111111111111
-0.11,0.15,11088.888888888889
-0.165,0.2,11091.666666666666
-0.22,0.21,11094.444444444445
-0.27,0.21,11097.222222222223
-0.295,0.23,11100.0
-0.32,0.25,11102.777777777777
-0.31,0.27,11105.555555555555
-0.295,0.27,11108.333333333334
-0.295,0.245,11111.111111111111
-0.285,0.225,11113.888888888889
-0.285,0.225,11116.666666666666
-0.275,0.255,11119.444444444445
-0.265,0.275,11122.222222222223
-0.255,0.26,11125.0
-0.28,0.23,11127.777777777777
-0.285,0.225,11130.555555555555
-0.285,0.235,11133.333333333334
-0.245,0.27,11136.111111111111
-0.22,0.285,11138.888888888889
-0.235,0.275,11141.666666666666
-0.25,0.27,11144.444444444445
-0.255,0.26,11147.222222222223
-0.225,0.25,11150.0
-0.205,0.24,11152.777777777777
-0.18,0.255,11155.555555555555
-0.16,0.285,11158.333333333334
-0.155,0.295,11161.111111111111
-0.18,0.26,11163.888888888889
-0.205,0.235,11166.666666666666
-0.215,0.26,11169.444444444445
-0.23,0.27,11172.222222222223
-0.235,0.27,11175.0
-0.245,0.285,11177.777777777777
-0.24,0.285,11180.555555555555
-0.21,0.265,11183.333333333334
-0.195,0.29,11186.111111111111
-0.17,0.28,11188.888888888889
-0.165,0.255,11191.666666666666
-0.165,0.24,11194.444444444445
-0.155,0.23,11197.222222222223
-0.18,0.235,11200.0
-0.175,0.285,11202.777777777777
-0.155,0.315,11205.555555555555
-0.145,0.315,11208.333333333334
-0.125,0.275,11211.111111111111
-0.125,0.24,11213.888888888889
-0.125,0.24,11216.666666666666
-0.115,0.26,11219.444444444445
-0.11,0.275,11222.222222222223
-0.125,0.28,11225.0
-0.115,0.27,11227.777777777777
-0.115,0.255,11230.555555555555
-0.08,0.255,11233.333333333334
-0.05,0.255,11236.111111111111
-0.025,0.255,11238.888888888889
-0.005,0.235,11241.666666666666
-0.035,0.195,11244.444444444445
-0.04,0.17,11247.222222222223
-0.055,0.155,11250.0
-0.06,0.175,11252.777777777777
-0.04,0.19,11255.555555555555
-0.025,0.155,11258.333333333334
-0.02,0.14,11261.111111111111
-0.01,0.115,11263.888888888889
-0.02,0.095,11266.666666666666
-0.02,0.1,11269.444444444445
-0.015,0.08,11272.222222222223
-0.005,0.06,11275.0
-0.01,0.055,11277.777777777777
-0.01,0.05,11280.555555555555
-0.005,0.03,11283.333333333334
0.015,0.03,11286.111111111111
0.035,0.03,11288.888888888889
0.06,-0.02,11291.666666666666
