MLII,V1,time_ms
-0.38,-0.285,0.0
-0.38,-0.285,2.7777777777777777
-0.38,-0.285,5.555555555555555
-0.38,-0.285,8.333333333333334
-0.38,-0.285,11.11111111111111
-0.38,-0.285,13.88888888888889
-0.38,-0.285,16.666666666666668
-0.38,-0.285,19.444444444444443
-0.365,-0.29,22.22222222222222
-0.365,-0.295,25.0
-0.35,-0.29,27.77777777777778
-0.365,-0.295,30.555555555555557
-0.365,-0.28,33.333333333333336
-0.36,-0.27,36.111111111111114
-0.335,-0.25,38.888888888888886
-0.325,-0.22,41.666666666666664
-0.315,-0.195,44.44444444444444
-0.31,-0.21,47.22222222222222
-0.305,-0.21,50.0
-0.31,-0.2,52.77777777777778
-0.33,-0.225,55.55555555555556
-0.345,-0.235,58.333333333333336
-0.34,-0.255,61.111111111111114
-0.35,-0.26,63.888888888888886
-0.365,-0.265,66.66666666666667
-0.36,-0.28,69.44444444444444
-0.38,-0.275,72.22222222222223
-0.395,-0.29,75.0
-0.39,-0.285,77.77777777777777
-0.385,-0.295,80.55555555555556
-0.395,-0.3,83.33333333333333
-0.405,-0.305,86.11111111111111
-0.42,-0.3,88.88888888888889
-0.425,-0.315,91.66666666666667
-0.44,-0.335,94.44444444444444
-0.44,-0.35,97.22222222222223
-0.455,-0.35,100.0
-0.455,-0.355,102.77777777777777
-0.455,-0.35,105.55555555555556
-0.445,-0.335,108.33333333333333
-0.425,-0.335,111.11111111111111
-0.425,-0.345,113.88888888888889
-0.42,-0.345,116.66666666666667
-0.41,-0.345,119.44444444444444
-0.405,-0.36,122.22222222222223
-0.41,-0.365,125.0
-0.42,-0.37,127.77777777777777
-0.41,-0.375,130.55555555555554
-0.405,-0.375,133.33333333333334
-0.4,-0.36,136.11111111111111
-0.405,-0.35,138.88888888888889
-0.41,-0.345,141.66666666666666
-0.4,-0.34,144.44444444444446
-0.405,-0.345,147.22222222222223
-0.385,-0.365,150.0
-0.385,-0.36,152.77777777777777
-0.385,-0.375,155.55555555555554
-0.385,-0.38,158.33333333333334
-0.385,-0.38,161.11111111111111
-0.395,-0.39,163.88888888888889
-0.4,-0.385,166.66666666666666
-0.39,-0.38,169.44444444444446
-0.385,-0.365,172.22222222222223
-0.38,-0.355,175.0
-0.37,-0.325,177.77777777777777
-0.35,-0.32,180.55555555555554
-0.32,-0.3,183.33333333333334
-0.28,-0.27,186.11111111111111
-0.195,-0.23,188.88888888888889
-0.09,-0.175,191.66666666666666
0.055,-0.115,194.44444444444446
0.235,-0.015,197.22222222222223
0.44,0.09,200.0
0.645,0.2,202.77777777777777
0.84,0.3,205.55555555555554
1.005,0.375,208.33333333333334
1.075,0.38,211.11111111111111
1.055,0.29,213.88888888888889
0.885,0.13,216.66666666666666
0.605,-0.105,219.44444444444446
0.205,-0.325,222.22222222222223
-0.255,-0.535,225.0
-0.735,-0.7,227.77777777777777
-1.145,-0.825,230.55555555555554
-1.425,-0.92,233.33333333333334
-1.52,-0.985,236.11111111111111
-1.435,-1.025,238.88888888888889
-1.265,-1.05,241.66666666666666
-1.05,-1.025,244.44444444444446
-0.83,-0.985,247.22222222222223
-0.67,-0.915,250.0
-0.555,-0.805,252.77777777777777
-0.47,-0.69,255.55555555555554
-0.43,-0.57,258.3333333333333
-0.415,-0.46,261.1111111111111
-0.41,-0.36,263.8888888888889
-0.42,-0.29,266.6666666666667
-0.42,-0.245,269.44444444444446
-0.43,-0.21,272.22222222222223
-0.415,-0.185,275.0
-0.4,-0.185,277.77777777777777
-0.375,-0.17,280.55555555555554
-0.37,-0.185,283.3333333333333
-0.36,-0.18,286.1111111111111
-0.36,-0.175,288.8888888888889
-0.355,-0.175,291.6666666666667
-0.36,-0.165,294.44444444444446
-0.365,-0.16,297.22222222222223
-0.365,-0.155,300.0
-0.355,-0.15,302.77777777777777
-0.35,-0.145,305.55555555555554
-0.33,-0.125,308.3333333333333
-0.305,-0.105,311.1111111111111
-0.285,-0.1,313.8888888888889
-0.28,-0.105,316.6666666666667
-0.26,-0.1,319.44444444444446
-0.275,-0.09,322.22222222222223
-0.27,-0.09,325.0
-0.28,-0.09,327.77777777777777
-0.28,-0.09,330.55555555555554
-0.285,-0.07,333.3333333333333
-0.28,-0.065,336.1111111111111
-0.28,-0.05,338.8888888888889
-0.28,-0.035,341.6666666666667
-0.27,-0.015,344.44444444444446
-0.27,0.005,347.22222222222223
-0.275,0.0,350.0
-0.28,0.01,352.77777777777777
-0.285,0.005,355.55555555555554
-0.285,0.01,358.3333333333333
-0.29,0.03,361.1111111111111
-0.29,0.035,363.8888888888889
-0.3,0.06,366.6666666666667
-0.29,0.065,369.44444444444446
-0.295,0.09,372.22222222222223
-0.28,0.11,375.0
-0.275,0.14,377.77777777777777
-0.27,0.135,380.55555555555554
-0.27,0.155,383.3333333333333
-0.27,0.175,386.1111111111111
-0.25,0.18,388.8888888888889
-0.25,0.195,391.6666666666667
-0.245,0.2,394.44444444444446
-0.225,0.22,397.22222222222223
-0.22,0.25,400.0
-0.21,0.27,402.77777777777777
-0.18,0.29,405.55555555555554
-0.16,0.33,408.3333333333333
-0.14,0.355,411.1111111111111
-0.12,0.385,413.8888888888889
-0.095,0.39,416.6666666666667
-0.07,0.4,419.44444444444446
-0.06,0.4,422.22222222222223
-0.06,0.4,425.0
-0.04,0.415,427.77777777777777
-0.025,0.415,430.55555555555554
-0.02,0.435,433.3333333333333
-0.005,0.435,436.1111111111111
0.005,0.46,438.8888888888889
0.015,0.465,441.6666666666667
0.03,0.475,444.44444444444446
0.05,0.475,447.22222222222223
0.055,0.47,450.0
0.06,0.465,452.77777777777777
0.05,0.46,455.55555555555554
0.04,0.45,458.3333333333333
0.02,0.44,461.1111111111111
0.025,0.415,463.8888888888889
0.015,0.41,466.6666666666667
0.025,0.4,469.44444444444446
0.01,0.39,472.22222222222223
-0.005,0.375,475.0
-0.01,0.36,477.77777777777777
-0.025,0.32,480.55555555555554
-0.045,0.29,483.3333333333333
-0.075,0.255,486.1111111111111
-0.1,0.215,488.8888888888889
-0.125,0.18,491.6666666666667
-0.145,0.14,494.44444444444446
-0.185,0.095,497.22222222222223
-0.2,0.085,500.0
-0.225,0.065,502.77777777777777
-0.24,0.025,505.55555555555554
-0.255,0.0,508.3333333333333
-0.265,-0.015,511.1111111111111
-0.28,-0.035,513.8888888888889
-0.29,-0.065,516.6666666666666
-0.305,-0.085,519.4444444444445
-0.325,-0.115,522.2222222222222
-0.33,-0.14,525.0
-0.35,-0.16,527.7777777777778
-0.37,-0.165,530.5555555555555
-0.385,-0.18,533.3333333333334
-0.39,-0.2,536.1111111111111
-0.385,-0.2,538.8888888888889
-0.395,-0.2,541.6666666666666
-0.395,-0.205,544.4444444444445
-0.39,-0.2,547.2222222222222
-0.39,-0.195,550.0
-0.39,-0.225,552.7777777777778
-0.395,-0.23,555.5555555555555
-0.4,-0.225,558.3333333333334
-0.4,-0.23,561.1111111111111
-0.41,-0.24,563.8888888888889
-0.415,-0.235,566.6666666666666
-0.425,-0.23,569.4444444444445
-0.415,-0.23,572.2222222222222
-0.41,-0.22,575.0
-0.4,-0.225,577.7777777777778
-0.39,-0.205,580.5555555555555
-0.38,-0.215,583.3333333333334
-0.38,-0.22,586.1111111111111
-0.375,-0.225,588.8888888888889
-0.39,-0.235,591.6666666666666
-0.385,-0.24,594.4444444444445
-0.395,-0.245,597.2222222222222
-0.39,-0.24,600.0
-0.39,-0.24,602.7777777777778
-0.38,-0.235,605.5555555555555
-0.365,-0.225,608.3333333333334
-0.38,-0.22,611.1111111111111
-0.37,-0.22,613.8888888888889
-0.36,-0.235,616.6666666666666
-0.365,-0.24,619.4444444444445
-0.35,-0.24,622.2222222222222
-0.365,-0.26,625.0
-0.375,-0.26,627.7777777777778
-0.375,-0.275,630.5555555555555
-0.37,-0.265,633.3333333333334
-0.375,-0.26,636.1111111111111
-0.365,-0.255,638.8888888888889
-0.365,-0.255,641.6666666666666
-0.36,-0.24,644.4444444444445
-0.365,-0.245,647.2222222222222
-0.37,-0.255,650.0
-0.37,-0.26,652.7777777777778
-0.375,-0.27,655.5555555555555
-0.375,-0.285,658.3333333333334
-0.375,-0.285,661.1111111111111
-0.39,-0.3,663.8888888888889
-0.39,-0.295,666.6666666666666
-0.395,-0.29,669.4444444444445
-0.395,-0.29,672.2222222222222
-0.395,-0.285,675.0
-0.395,-0.275,677.7777777777778
-0.395,-0.29,680.5555555555555
-0.395,-0.3,683.3333333333334
-0.39,-0.305,686.1111111111111
-0.405,-0.31,688.8888888888889
-0.415,-0.305,691.6666666666666
-0.43,-0.34,694.4444444444445
-0.43,-0.325,697.2222222222222
-0.45,-0.335,700.0
-0.455,-0.335,702.7777777777778
-0.435,-0.325,705.5555555555555
-0.43,-0.325,708.3333333333334
-0.43,-0.31,711.1111111111111
-0.42,-0.315,713.8888888888889
-0.415,-0.32,716.6666666666666
-0.415,-0.33,719.4444444444445
-0.425,-0.325,722.2222222222222
-0.435,-0.34,725.0
-0.45,-0.345,727.7777777777778
-0.455,-0.35,730.5555555555555
-0.46,-0.34,733.3333333333334
-0.455,-0.34,736.1111111111111
-0.46,-0.33,738.8888888888889
-0.45,-0.33,741.6666666666666
-0.445,-0.325,744.4444444444445
-0.455,-0.335,747.2222222222222
-0.445,-0.335,750.0
-0.45,-0.33,752.7777777777778
-0.455,-0.33,755.5555555555555
-0.465,-0.335,758.3333333333334
-0.45,-0.35,761.1111111111111
-0.45,-0.345,763.8888888888889
-0.445,-0.335,766.6666666666666
-0.45,-0.32,769.4444444444445
-0.43,-0.295,772.2222222222222
-0.415,-0.285,775.0
-0.405,-0.27,777.7777777777778
-0.39,-0.255,780.5555555555555
-0.385,-0.25,783.3333333333334
-0.37,-0.245,786.1111111111111
-0.37,-0.25,788.8888888888889
-0.355,-0.245,791.6666666666666
-0.35,-0.24,794.4444444444445
-0.345,-0.235,797.2222222222222
-0.36,-0.23,800.0
-0.36,-0.21,802.7777777777778
-0.37,-0.2,805.5555555555555
-0.375,-0.195,808.3333333333334
-0.395,-0.2,811.1111111111111
-0.395,-0.2,813.8888888888889
-0.39,-0.225,816.6666666666666
-0.4,-0.23,819.4444444444445
-0.4,-0.245,822.2222222222222
-0.42,-0.27,825.0
-0.43,-0.285,827.7777777777778
-0.445,-0.285,830.5555555555555
-0.465,-0.285,833.3333333333334
-0.48,-0.305,836.1111111111111
-0.485,-0.295,838.8888888888889
-0.49,-0.3,841.6666666666666
-0.49,-0.295,844.4444444444445
-0.49,-0.3,847.2222222222222
-0.495,-0.305,850.0
-0.51,-0.315,852.7777777777778
-0.535,-0.32,855.5555555555555
-0.535,-0.33,858.3333333333334
-0.55,-0.355,861.1111111111111
-0.55,-0.365,863.8888888888889
-0.545,-0.365,866.6666666666666
-0.555,-0.355,869.4444444444445
-0.525,-0.36,872.2222222222222
-0.515,-0.355,875.0
-0.505,-0.35,877.7777777777778
-0.49,-0.335,880.5555555555555
-0.495,-0.345,883.3333333333334
-0.495,-0.35,886.1111111111111
-0.51,-0.36,888.8888888888889
-0.52,-0.365,891.6666666666666
-0.53,-0.36,894.4444444444445
-0.535,-0.375,897.2222222222222
-0.54,-0.365,900.0
-0.535,-0.36,902.7777777777778
-0.53,-0.34,905.5555555555555
-0.52,-0.355,908.3333333333334
-0.515,-0.345,911.1111111111111
-0.5,-0.325,913.8888888888889
-0.5,-0.335,916.6666666666666
-0.495,-0.335,919.4444444444445
-0.505,-0.33,922.2222222222222
-0.505,-0.34,925.0
-0.51,-0.34,927.7777777777778
-0.51,-0.34,930.5555555555555
-0.515,-0.325,933.3333333333334
-0.515,-0.31,936.1111111111111
-0.5,-0.305,938.8888888888889
-0.48,-0.28,941.6666666666666
-0.45,-0.255,944.4444444444445
-0.385,-0.215,947.2222222222222
-0.295,-0.185,950.0
-0.16,-0.13,952.7777777777778
-0.02,-0.075,955.5555555555555
0.195,-0.005,958.3333333333334
0.405,0.095,961.1111111111111
0.625,0.19,963.8888888888889
0.835,0.3,966.6666666666666
1.005,0.375,969.4444444444445
1.115,0.41,972.2222222222222
1.12,0.375,975.0
1.0,0.27,977.7777777777778
0.74,0.095,980.5555555555555
0.355,-0.1,983.3333333333334
-0.125,-0.285,986.1111111111111
-0.64,-0.455,988.8888888888889
-1.14,-0.615,991.6666666666666
-1.505,-0.73,994.4444444444445
-1.7,-0.85,997.2222222222222
-1.685,-0.945,1000.0
-1.52,-1.0,1002.7777777777778
-1.28,-1.04,1005.5555555555555
-1.02,-1.035,1008.3333333333334
-0.8,-0.985,1011.1111111111111
-0.6,-0.885,1013.8888888888889
-0.5,-0.795,1016.6666666666666
-0.415,-0.66,1019.4444444444445
-0.4,-0.54,1022.2222222222222
-0.395,-0.43,1025.0
-0.4,-0.355,1027.7777777777778
-0.415,-0.295,1030.5555555555557
-0.425,-0.26,1033.3333333333333
-0.44,-0.25,1036.111111111111
-0.415,-0.23,1038.888888888889
-0.39,-0.225,1041.6666666666667
-0.38,-0.205,1044.4444444444443
-0.355,-0.195,1047.2222222222222
-0.35,-0.19,1050.0
-0.335,-0.19,1052.7777777777778
-0.33,-0.19,1055.5555555555557
-0.325,-0.185,1058.3333333333333
-0.315,-0.19,1061.111111111111
-0.29,-0.195,1063.888888888889
-0.29,-0.18,1066.6666666666667
-0.27,-0.165,1069.4444444444443
-0.24,-0.155,1072.2222222222222
-0.23,-0.145,1075.0
-0.205,-0.135,1077.7777777777778
-0.185,-0.12,1080.5555555555557
-0.175,-0.135,1083.3333333333333
-0.155,-0.13,1086.111111111111
-0.14,-0.125,1088.888888888889
-0.14,-0.13,1091.6666666666667
-0.135,-0.125,1094.4444444444443
-0.14,-0.13,1097.2222222222222
-0.135,-0.12,1100.0
-0.14,-0.12,1102.7777777777778
-0.135,-0.105,1105.5555555555557
-0.13,-0.09,1108.3333333333333
-0.125,-0.07,1111.111111111111
-0.115,-0.06,1113.888888888889
-0.11,-0.05,1116.6666666666667
-0.11,-0.05,1119.4444444444443
-0.11,-0.04,1122.2222222222222
-0.11,-0.05,1125.0
-0.12,-0.04,1127.7777777777778
-0.12,-0.03,1130.5555555555557
-0.11,-0.02,1133.3333333333333
-0.1,0.0,1136.111111111111
-0.075,0.02,1138.888888888889
-0.065,0.04,1141.6666666666667
-0.04,0.065,1144.4444444444443
-0.025,0.08,1147.2222222222222
-0.01,0.1,1150.0
0.01,0.1,1152.7777777777778
0.015,0.125,1155.5555555555557
0.025,0.125,1158.3333333333333
0.03,0.15,1161.111111111111
0.045,0.155,1163.888888888889
0.055,0.18,1166.6666666666667
0.08,0.195,1169.4444444444443
0.105,0.22,1172.2222222222222
0.12,0.25,1175.0
0.135,0.265,1177.7777777777778
0.15,0.28,1180.5555555555557
0.165,0.295,1183.3333333333333
0.16,0.315,1186.111111111111
0.155,0.32,1188.888888888889
0.16,0.32,1191.6666666666667
0.17,0.32,1194.4444444444443
0.17,0.33,1197.2222222222222
0.16,0.34,1200.0
0.175,0.35,1202.7777777777778
0.18,0.36,1205.5555555555557
0.17,0.38,1208.3333333333333
0.17,0.38,1211.111111111111
0.185,0.395,1213.888888888889
0.185,0.375,1216.6666666666667
0.18,0.375,1219.4444444444443
0.18,0.375,1222.2222222222222
0.16,0.355,1225.0
0.155,0.33,1227.7777777777778
0.14,0.315,1230.5555555555557
0.13,0.31,1233.3333333333333
0.12,0.295,1236.111111111111
0.11,0.28,1238.888888888889
0.085,0.255,1241.6666666666667
0.08,0.235,1244.4444444444443
0.045,0.205,1247.2222222222222
0.04,0.17,1250.0
0.03,0.145,1252.7777777777778
-0.01,0.105,1255.5555555555557
-0.05,0.07,1258.3333333333333
-0.075,0.04,1261.111111111111
-0.115,-0.005,1263.888888888889
-0.145,-0.025,1266.6666666666667
-0.175,-0.05,1269.4444444444443
-0.2,-0.075,1272.2222222222222
-0.205,-0.09,1275.0
-0.22,-0.105,1277.7777777777778
-0.225,-0.125,1280.5555555555557
-0.24,-0.15,1283.3333333333333
-0.26,-0.16,1286.111111111111
-0.285,-0.18,1288.888888888889
-0.31,-0.21,1291.6666666666667
-0.335,-0.225,1294.4444444444443
-0.355,-0.235,1297.2222222222222
-0.365,-0.255,1300.0
-0.375,-0.245,1302.7777777777778
-0.38,-0.25,1305.5555555555557
-0.375,-0.25,1308.3333333333333
-0.38,-0.245,1311.111111111111
-0.385,-0.245,1313.888888888889
-0.385,-0.26,1316.6666666666667
-0.39,-0.255,1319.4444444444443
-0.385,-0.255,1322.2222222222222
-0.405,-0.275,1325.0
-0.415,-0.265,1327.7777777777778
-0.41,-0.28,1330.5555555555557
-0.42,-0.275,1333.3333333333333
-0.415,-0.275,1336.111111111111
-0.41,-0.27,1338.888888888889
-0.42,-0.265,1341.6666666666667
-0.415,-0.25,1344.4444444444443
-0.4,-0.25,1347.2222222222222
-0.39,-0.255,1350.0
-0.4,-0.255,1352.7777777777778
-0.4,-0.265,1355.5555555555557
-0.415,-0.27,1358.3333333333333
-0.41,-0.265,1361.111111111111
-0.415,-0.275,1363.888888888889
-0.415,-0.27,1366.6666666666667
-0.41,-0.27,1369.4444444444443
-0.405,-0.28,1372.2222222222222
-0.405,-0.26,1375.0
-0.39,-0.255,1377.7777777777778
-0.385,-0.245,1380.5555555555557
-0.375,-0.27,1383.3333333333333
-0.36,-0.275,1386.111111111111
-0.36,-0.265,1388.888888888889
-0.37,-0.275,1391.6666666666667
-0.375,-0.295,1394.4444444444443
-0.375,-0.29,1397.2222222222222
-0.38,-0.3,1400.0
-0.385,-0.295,1402.7777777777778
-0.38,-0.29,1405.5555555555557
-0.37,-0.285,1408.3333333333333
-0.365,-0.275,1411.111111111111
-0.355,-0.275,1413.888888888889
-0.36,-0.285,1416.6666666666667
-0.36,-0.29,1419.4444444444443
-0.375,-0.305,1422.2222222222222
-0.38,-0.315,1425.0
-0.39,-0.32,1427.7777777777778
-0.405,-0.33,1430.5555555555557
-0.415,-0.32,1433.3333333333333
-0.425,-0.33,1436.111111111111
-0.42,-0.32,1438.888888888889
-0.425,-0.325,1441.6666666666667
-0.415,-0.325,1444.4444444444443
-0.415,-0.315,1447.2222222222222
-0.425,-0.32,1450.0
-0.435,-0.315,1452.7777777777778
-0.44,-0.335,1455.5555555555557
-0.465,-0.345,1458.3333333333333
-0.465,-0.355,1461.111111111111
-0.48,-0.36,1463.888888888889
-0.465,-0.355,1466.6666666666667
-0.465,-0.345,1469.4444444444443
-0.46,-0.35,1472.2222222222222
-0.475,-0.33,1475.0
-0.465,-0.33,1477.7777777777778
-0.465,-0.325,1480.5555555555557
-0.46,-0.315,1483.3333333333333
-0.465,-0.335,1486.111111111111
-0.465,-0.33,1488.888888888889
-0.47,-0.35,1491.6666666666667
-0.455,-0.355,1494.4444444444443
-0.465,-0.36,1497.2222222222222
-0.455,-0.355,1500.0
-0.45,-0.34,1502.7777777777778
-0.445,-0.335,1505.5555555555557
-0.425,-0.33,1508.3333333333333
-0.39,-0.305,1511.111111111111
-0.375,-0.29,1513.888888888889
-0.345,-0.3,1516.6666666666667
-0.335,-0.285,1519.4444444444443
-0.33,-0.29,1522.2222222222222
-0.315,-0.275,1525.0
-0.31,-0.29,1527.7777777777778
-0.31,-0.285,1530.5555555555557
-0.31,-0.265,1533.3333333333333
-0.28,-0.265,1536.111111111111
-0.265,-0.25,1538.888888888889
-0.25,-0.235,1541.6666666666667
-0.23,-0.22,1544.4444444444443
-0.22,-0.22,1547.2222222222222
-0.215,-0.23,1550.0
-0.225,-0.235,1552.7777777777778
-0.235,-0.255,1555.5555555555557
-0.265,-0.265,1558.3333333333333
-0.275,-0.295,1561.111111111111
-0.3,-0.31,1563.888888888889
-0.3,-0.325,1566.6666666666667
-0.315,-0.32,1569.4444444444443
-0.335,-0.33,1572.2222222222222
-0.345,-0.31,1575.0
-0.355,-0.32,1577.7777777777778
-0.38,-0.32,1580.5555555555557
-0.405,-0.325,1583.3333333333333
-0.41,-0.345,1586.111111111111
-0.415,-0.35,1588.888888888889
-0.435,-0.355,1591.6666666666667
-0.44,-0.365,1594.4444444444443
-0.45,-0.375,1597.2222222222222
-0.485,-0.365,1600.0
-0.505,-0.395,1602.7777777777778
-0.52,-0.385,1605.5555555555557
-0.52,-0.385,1608.3333333333333
-0.51,-0.375,1611.111111111111
-0.495,-0.38,1613.888888888889
-0.5,-0.38,1616.6666666666667
-0.505,-0.38,1619.4444444444443
-0.5,-0.385,1622.2222222222222
-0.515,-0.395,1625.0
-0.52,-0.4,1627.7777777777778
-0.53,-0.405,1630.5555555555557
-0.55,-0.395,1633.3333333333333
-0.55,-0.395,1636.111111111111
-0.55,-0.385,1638.888888888889
-0.545,-0.38,1641.6666666666667
-0.54,-0.375,1644.4444444444443
-0.535,-0.36,1647.2222222222222
-0.55,-0.37,1650.0
-0.54,-0.365,1652.7777777777778
-0.545,-0.37,1655.5555555555557
-0.56,-0.38,1658.3333333333333
-0.57,-0.395,1661.111111111111
-0.575,-0.395,1663.888888888889
-0.59,-0.39,1666.6666666666667
-0.58,-0.375,1669.4444444444443
-0.545,-0.37,1672.2222222222222
-0.525,-0.365,1675.0
-0.51,-0.345,1677.7777777777778
-0.485,-0.335,1680.5555555555557
-0.465,-0.33,1683.3333333333333
-0.435,-0.31,1686.111111111111
-0.385,-0.275,1688.888888888889
-0.295,-0.24,1691.6666666666667
-0.17,-0.18,1694.4444444444443
0.005,-0.12,1697.2222222222222
0.195,-0.02,1700.0
0.41,0.08,1702.7777777777778
0.645,0.195,1705.5555555555557
0.86,0.28,1708.3333333333333
1.05,0.345,1711.111111111111
1.14,0.335,1713.888888888889
1.125,0.225,1716.6666666666667
0.985,0.065,1719.4444444444443
0.69,-0.145,1722.2222222222222
0.28,-0.37,1725.0
-0.215,-0.56,1727.7777777777778
-0.745,-0.71,1730.5555555555557
-1.245,-0.815,1733.3333333333333
-1.595,-0.925,1736.111111111111
-1.76,-1.015,1738.888888888889
-1.71,-1.09,1741.6666666666667
-1.535,-1.08,1744.4444444444443
-1.28,-1.075,1747.2222222222222
-1.05,-1.055,1750.0
-0.85,-0.975,1752.7777777777778
-0.72,-0.88,1755.5555555555557
-0.635,-0.77,1758.3333333333333
-0.59,-0.66,1761.111111111111
-0.59,-0.555,1763.888888888889
-0.605,-0.445,1766.6666666666667
-0.625,-0.365,1769.4444444444443
-0.625,-0.315,1772.2222222222222
-0.615,-0.28,1775.0
-0.605,-0.265,1777.7777777777778
-0.58,-0.25,1780.5555555555557
-0.565,-0.25,1783.3333333333333
-0.555,-0.23,1786.111111111111
-0.565,-0.24,1788.888888888889
-0.555,-0.245,1791.6666666666667
-0.55,-0.235,1794.4444444444443
-0.55,-0.23,1797.2222222222222
-0.54,-0.22,1800.0
-0.535,-0.205,1802.7777777777778
-0.51,-0.185,1805.5555555555557
-0.495,-0.18,1808.3333333333333
-0.475,-0.175,1811.111111111111
-0.455,-0.165,1813.888888888889
-0.445,-0.165,1816.6666666666667
-0.445,-0.155,1819.4444444444443
-0.425,-0.15,1822.2222222222222
-0.425,-0.155,1825.0
-0.42,-0.155,1827.7777777777778
-0.405,-0.145,1830.5555555555557
-0.395,-0.125,1833.3333333333333
-0.375,-0.11,1836.111111111111
-0.36,-0.1,1838.888888888889
-0.355,-0.09,1841.6666666666667
-0.335,-0.07,1844.4444444444443
-0.325,-0.055,1847.2222222222222
-0.305,-0.05,1850.0
-0.295,-0.025,1852.7777777777778
-0.285,-0.035,1855.5555555555557
-0.285,-0.02,1858.3333333333333
-0.275,-0.005,1861.111111111111
-0.265,0.005,1863.888888888889
-0.245,0.015,1866.6666666666667
-0.24,0.03,1869.4444444444443
-0.23,0.045,1872.2222222222222
-0.22,0.06,1875.0
-0.19,0.09,1877.7777777777778
-0.175,0.115,1880.5555555555557
-0.16,0.135,1883.3333333333333
-0.145,0.145,1886.111111111111
-0.13,0.155,1888.888888888889
-0.125,0.18,1891.6666666666667
-0.125,0.185,1894.4444444444443
-0.105,0.21,1897.2222222222222
-0.095,0.215,1900.0
-0.085,0.245,1902.7777777777778
-0.06,0.275,1905.5555555555557
-0.03,0.315,1908.3333333333333
-0.005,0.33,1911.111111111111
0.015,0.355,1913.888888888889
0.03,0.36,1916.6666666666667
0.025,0.375,1919.4444444444443
0.025,0.37,1922.2222222222222
0.035,0.385,1925.0
0.025,0.41,1927.7777777777778
0.01,0.395,1930.5555555555557
0.025,0.41,1933.3333333333333
0.03,0.415,1936.111111111111
0.035,0.435,1938.888888888889
0.04,0.435,1941.6666666666667
0.05,0.44,1944.4444444444443
0.035,0.445,1947.2222222222222
0.035,0.44,1950.0
0.025,0.43,1952.7777777777778
0.015,0.415,1955.5555555555557
0.015,0.39,1958.3333333333333
0.01,0.37,1961.111111111111
0.0,0.34,1963.888888888889
-0.01,0.34,1966.6666666666667
-0.025,0.32,1969.4444444444443
-0.045,0.31,1972.2222222222222
-0.06,0.27,1975.0
-0.075,0.255,1977.7777777777778
-0.085,0.23,1980.5555555555557
-0.105,0.185,1983.3333333333333
-0.135,0.155,1986.111111111111
-0.155,0.125,1988.888888888889
-0.185,0.065,1991.6666666666667
-0.22,0.015,1994.4444444444443
-0.255,-0.015,1997.2222222222222
-0.285,-0.04,2000.0
-0.31,-0.06,2002.7777777777778
-0.345,-0.08,2005.5555555555557
-0.36,-0.1,2008.3333333333333
-0.375,-0.115,2011.111111111111
-0.385,-0.135,2013.888888888889
-0.385,-0.155,2016.6666666666667
-0.4,-0.175,2019.4444444444443
-0.425,-0.205,2022.2222222222222
-0.435,-0.225,2025.0
-0.455,-0.235,2027.7777777777778
-0.47,-0.25,2030.5555555555557
-0.485,-0.25,2033.3333333333333
-0.48,-0.26,2036.111111111111
-0.48,-0.255,2038.888888888889
-0.475,-0.245,2041.6666666666667
-0.47,-0.24,2044.4444444444443
-0.47,-0.25,2047.2222222222222
-0.485,-0.255,2050.0
-0.48,-0.26,2052.777777777778
-0.475,-0.26,2055.5555555555557
-0.495,-0.27,2058.3333333333335
-0.495,-0.28,2061.1111111111113
-0.485,-0.27,2063.8888888888887
-0.495,-0.285,2066.6666666666665
-0.485,-0.285,2069.4444444444443
-0.485,-0.265,2072.222222222222
-0.485,-0.26,2075.0
-0.48,-0.245,2077.777777777778
-0.465,-0.24,2080.5555555555557
-0.47,-0.24,2083.3333333333335
-0.46,-0.235,2086.1111111111113
-0.47,-0.245,2088.8888888888887
-0.47,-0.245,2091.6666666666665
-0.465,-0.26,2094.4444444444443
-0.47,-0.265,2097.222222222222
-0.47,-0.265,2100.0
-0.465,-0.26,2102.777777777778
-0.475,-0.26,2105.5555555555557
-0.465,-0.24,2108.3333333333335
-0.46,-0.235,2111.1111111111113
-0.445,-0.225,2113.8888888888887
-0.43,-0.23,2116.6666666666665
-0.435,-0.235,2119.4444444444443
-0.425,-0.25,2122.222222222222
-0.43,-0.24,2125.0
-0.435,-0.265,2127.777777777778
-0.45,-0.26,2130.5555555555557
-0.46,-0.25,2133.3333333333335
-0.46,-0.25,2136.1111111111113
-0.46,-0.245,2138.8888888888887
-0.455,-0.255,2141.6666666666665
-0.45,-0.24,2144.4444444444443
-0.445,-0.25,2147.222222222222
-0.435,-0.23,2150.0
-0.44,-0.245,2152.777777777778
-0.455,-0.25,2155.5555555555557
-0.46,-0.26,2158.3333333333335
-0.48,-0.275,2161.1111111111113
-0.48,-0.275,2163.8888888888887
-0.495,-0.27,2166.6666666666665
-0.51,-0.28,2169.4444444444443
-0.49,-0.27,2172.222222222222
-0.49,-0.27,2175.0
-0.49,-0.255,2177.777777777778
-0.485,-0.27,2180.5555555555557
-0.495,-0.27,2183.3333333333335
-0.5,-0.28,2186.1111111111113
-0.5,-0.28,2188.8888888888887
-0.515,-0.29,2191.6666666666665
-0.53,-0.3,2194.4444444444443
-0.535,-0.305,2197.222222222222
-0.53,-0.305,2200.0
-0.53,-0.315,2202.777777777778
-0.52,-0.31,2205.5555555555557
-0.5,-0.3,2208.3333333333335
-0.505,-0.285,2211.1111111111113
-0.495,-0.285,2213.8888888888887
-0.485,-0.295,2216.6666666666665
-0.49,-0.29,2219.4444444444443
-0.485,-0.295,2222.222222222222
-0.485,-0.3,2225.0
-0.475,-0.295,2227.777777777778
-0.475,-0.305,2230.5555555555557
-0.48,-0.31,2233.3333333333335
-0.48,-0.295,2236.1111111111113
-0.485,-0.295,2238.8888888888887
-0.465,-0.275,2241.6666666666665
-0.46,-0.26,2244.4444444444443
-0.44,-0.26,2247.222222222222
-0.42,-0.25,2250.0
-0.405,-0.245,2252.777777777778
-0.39,-0.23,2255.5555555555557
-0.395,-0.25,2258.3333333333335
-0.4,-0.24,2261.1111111111113
-0.405,-0.24,2263.8888888888887
-0.4,-0.24,2266.6666666666665
-0.39,-0.22,2269.4444444444443
-0.375,-0.205,2272.222222222222
-0.365,-0.205,2275.0
-0.36,-0.185,2277.777777777778
-0.35,-0.175,2280.5555555555557
-0.365,-0.18,2283.3333333333335
-0.355,-0.175,2286.1111111111113
-0.37,-0.195,2288.8888888888887
-0.37,-0.215,2291.6666666666665
-0.385,-0.23,2294.4444444444443
-0.39,-0.26,2297.222222222222
-0.4,-0.27,2300.0
-0.405,-0.27,2302.777777777778
-0.41,-0.275,2305.5555555555557
-0.415,-0.28,2308.3333333333335
-0.44,-0.285,2311.1111111111113
-0.45,-0.295,2313.8888888888887
-0.445,-0.305,2316.6666666666665
-0.465,-0.315,2319.4444444444443
-0.465,-0.325,2322.222222222222
-0.475,-0.34,2325.0
-0.485,-0.335,2327.777777777778
-0.505,-0.35,2330.5555555555557
-0.51,-0.345,2333.3333333333335
-0.54,-0.36,2336.1111111111113
-0.54,-0.36,2338.8888888888887
-0.54,-0.36,2341.6666666666665
-0.535,-0.35,2344.4444444444443
-0.54,-0.345,2347.222222222222
-0.54,-0.36,2350.0
-0.525,-0.365,2352.777777777778
-0.53,-0.36,2355.5555555555557
-0.53,-0.37,2358.3333333333335
-0.535,-0.37,2361.1111111111113
-0.55,-0.365,2363.8888888888887
-0.555,-0.375,2366.6666666666665
-0.555,-0.37,2369.4444444444443
-0.54,-0.355,2372.222222222222
-0.525,-0.35,2375.0
-0.515,-0.345,2377.777777777778
-0.51,-0.335,2380.5555555555557
-0.49,-0.345,2383.3333333333335
-0.485,-0.345,2386.1111111111113
-0.48,-0.335,2388.8888888888887
-0.475,-0.355,2391.6666666666665
-0.465,-0.36,2394.4444444444443
-0.47,-0.37,2397.222222222222
-0.465,-0.35,2400.0
-0.45,-0.355,2402.777777777778
-0.435,-0.345,2405.5555555555557
-0.41,-0.32,2408.3333333333335
-0.395,-0.325,2411.1111111111113
-0.365,-0.305,2413.8888888888887
-0.355,-0.28,2416.6666666666665
-0.32,-0.255,2419.4444444444443
-0.235,-0.22,2422.222222222222
-0.125,-0.175,2425.0
0.01,-0.125,2427.777777777778
0.175,-0.07,2430.5555555555557
0.38,0.025,2433.3333333333335
0.6,0.13,2436.1111111111113
0.82,0.23,2438.8888888888887
1.04,0.305,2441.6666666666665
1.2,0.335,2444.4444444444443
1.265,0.28,2447.222222222222
1.21,0.14,2450.0
1.005,-0.045,2452.777777777778
0.685,-0.255,2455.5555555555557
0.245,-0.47,2458.3333333333335
-0.285,-0.63,2461.1111111111113
-0.825,-0.79,2463.8888888888887
-1.31,-0.9,2466.6666666666665
-1.635,-1.01,2469.4444444444443
-1.755,-1.08,2472.222222222222
-1.655,-1.13,2475.0
-1.42,-1.12,2477.777777777778
-1.135,-1.085,2480.5555555555557
-0.88,-1.025,2483.3333333333335
-0.665,-0.945,2486.1111111111113
-0.52,-0.83,2488.8888888888887
-0.435,-0.705,2491.6666666666665
-0.375,-0.575,2494.4444444444443
-0.375,-0.455,2497.222222222222
-0.38,-0.355,2500.0
-0.41,-0.285,2502.777777777778
-0.415,-0.25,2505.5555555555557
-0.41,-0.23,2508.3333333333335
-0.405,-0.215,2511.1111111111113
-0.4,-0.205,2513.8888888888887
-0.39,-0.205,2516.6666666666665
-0.375,-0.19,2519.4444444444443
-0.38,-0.18,2522.222222222222
-0.395,-0.18,2525.0
-0.395,-0.18,2527.777777777778
-0.41,-0.16,2530.5555555555557
-0.39,-0.165,2533.3333333333335
-0.395,-0.14,2536.1111111111113
-0.385,-0.125,2538.8888888888887
-0.365,-0.115,2541.6666666666665
-0.36,-0.095,2544.4444444444443
-0.35,-0.085,2547.222222222222
-0.335,-0.085,2550.0
-0.335,-0.075,2552.777777777778
-0.33,-0.07,2555.5555555555557
-0.335,-0.08,2558.3333333333335
-0.33,-0.065,2561.1111111111113
-0.32,-0.065,2563.8888888888887
-0.325,-0.055,2566.6666666666665
-0.305,-0.04,2569.4444444444443
-0.295,-0.03,2572.222222222222
-0.285,-0.03,2575.0
-0.26,-0.005,2577.777777777778
-0.255,0.005,2580.5555555555557
-0.24,0.03,2583.3333333333335
-0.23,0.03,2586.1111111111113
-0.225,0.025,2588.8888888888887
-0.215,0.03,2591.6666666666665
-0.215,0.035,2594.4444444444443
-0.205,0.055,2597.222222222222
-0.19,0.07,2600.0
-0.185,0.09,2602.777777777778
-0.17,0.105,2605.5555555555557
-0.16,0.125,2608.3333333333335
-0.15,0.155,2611.1111111111113
-0.135,0.165,2613.8888888888887
-0.125,0.19,2616.6666666666665
-0.1,0.21,2619.4444444444443
-0.095,0.22,2622.222222222222
-0.095,0.225,2625.0
-0.08,0.255,2627.777777777778
-0.075,0.265,2630.5555555555557
-0.065,0.275,2633.3333333333335
-0.055,0.315,2636.1111111111113
-0.045,0.335,2638.8888888888887
-0.03,0.37,2641.6666666666665
-0.02,0.38,2644.4444444444443
0.01,0.415,2647.222222222222
0.02,0.42,2650.0
0.015,0.44,2652.777777777778
0.02,0.44,2655.5555555555557
0.01,0.45,2658.3333333333335
0.015,0.46,2661.1111111111113
0.015,0.465,2663.8888888888887
0.02,0.48,2666.6666666666665
0.025,0.495,2669.4444444444443
0.04,0.51,2672.222222222222
0.035,0.5,2675.0
0.045,0.51,2677.777777777778
0.05,0.515,2680.5555555555557
0.055,0.5,2683.3333333333335
0.055,0.505,2686.1111111111113
0.06,0.475,2688.8888888888887
0.055,0.465,2691.6666666666665
0.04,0.44,2694.4444444444443
0.04,0.415,2697.222222222222
0.025,0.38,2700.0
0.015,0.37,2702.777777777778
-0.01,0.34,2705.5555555555557
-0.02,0.33,2708.3333333333335
-0.045,0.3,2711.1111111111113
-0.07,0.265,2713.8888888888887
-0.085,0.235,2716.6666666666665
-0.105,0.19,2719.4444444444443
-0.13,0.155,2722.222222222222
-0.165,0.115,2725.0
-0.21,0.065,2727.777777777778
-0.24,0.025,2730.5555555555557
-0.27,-0.005,2733.3333333333335
-0.31,-0.03,2736.1111111111113
-0.34,-0.055,2738.8888888888887
-0.33,-0.075,2741.6666666666665
-0.345,-0.1,2744.4444444444443
-0.36,-0.12,2747.222222222222
-0.365,-0.15,2750.0
-0.38,-0.165,2752.777777777778
-0.395,-0.185,2755.5555555555557
-0.415,-0.19,2758.3333333333335
-0.425,-0.21,2761.1111111111113
-0.43,-0.235,2763.8888888888887
-0.44,-0.235,2766.6666666666665
-0.445,-0.235,2769.4444444444443
-0.435,-0.245,2772.222222222222
-0.42,-0.23,2775.0
-0.425,-0.23,2777.777777777778
-0.43,-0.25,2780.5555555555557
-0.43,-0.24,2783.3333333333335
-0.425,-0.25,2786.1111111111113
-0.405,-0.255,2788.8888888888887
-0.405,-0.255,2791.6666666666665
-0.39,-0.25,2794.4444444444443
-0.395,-0.26,2797.222222222222
-0.38,-0.255,2800.0
-0.375,-0.235,2802.777777777778
-0.365,-0.24,2805.5555555555557
-0.35,-0.235,2808.3333333333335
-0.365,-0.225,2811.1111111111113
-0.35,-0.23,2813.8888888888887
-0.33,-0.23,2816.6666666666665
-0.325,-0.235,2819.4444444444443
-0.345,-0.23,2822.222222222222
-0.345,-0.245,2825.0
-0.345,-0.26,2827.777777777778
-0.35,-0.255,2830.5555555555557
-0.345,-0.245,2833.3333333333335
-0.335,-0.245,2836.1111111111113
-0.34,-0.23,2838.8888888888887
-0.31,-0.22,2841.6666666666665
-0.305,-0.215,2844.4444444444443
-0.285,-0.23,2847.222222222222
-0.27,-0.22,2850.0
-0.265,-0.24,2852.777777777778
-0.285,-0.26,2855.5555555555557
-0.295,-0.255,2858.3333333333335
-0.31,-0.265,2861.1111111111113
-0.325,-0.265,2863.8888888888887
-0.33,-0.265,2866.6666666666665
-0.335,-0.26,2869.4444444444443
-0.335,-0.255,2872.222222222222
-0.355,-0.255,2875.0
-0.355,-0.26,2877.777777777778
-0.365,-0.245,2880.5555555555557
-0.365,-0.26,2883.3333333333335
-0.37,-0.25,2886.1111111111113
-0.385,-0.265,2888.8888888888887
-0.395,-0.27,2891.6666666666665
-0.415,-0.285,2894.4444444444443
-0.41,-0.275,2897.222222222222
-0.435,-0.275,2900.0
-0.45,-0.28,2902.777777777778
-0.465,-0.27,2905.5555555555557
-0.475,-0.295,2908.3333333333335
-0.485,-0.28,2911.1111111111113
-0.495,-0.3,2913.8888888888887
-0.485,-0.305,2916.6666666666665
-0.5,-0.315,2919.4444444444443
-0.505,-0.32,2922.222222222222
-0.51,-0.33,2925.0
-0.515,-0.34,2927.777777777778
-0.51,-0.34,2930.5555555555557
-0.505,-0.335,2933.3333333333335
-0.5,-0.335,2936.1111111111113
-0.505,-0.335,2938.8888888888887
-0.515,-0.32,2941.6666666666665
-0.515,-0.31,2944.4444444444443
-0.51,-0.32,2947.222222222222
-0.505,-0.32,2950.0
-0.505,-0.325,2952.777777777778
-0.515,-0.33,2955.5555555555557
-0.52,-0.345,2958.3333333333335
-0.535,-0.34,2961.1111111111113
-0.525,-0.335,2963.8888888888887
-0.52,-0.32,2966.6666666666665
-0.52,-0.305,2969.4444444444443
-0.505,-0.29,2972.222222222222
-0.48,-0.28,2975.0
-0.475,-0.285,2977.777777777778
-0.465,-0.25,2980.5555555555557
-0.455,-0.26,2983.3333333333335
-0.475,-0.26,2986.1111111111113
-0.475,-0.255,2988.8888888888887
-0.47,-0.25,2991.6666666666665
-0.47,-0.26,2994.4444444444443
-0.48,-0.25,2997.222222222222
-0.49,-0.235,3000.0
-0.48,-0.235,3002.777777777778
-0.49,-0.225,3005.5555555555557
-0.495,-0.22,3008.3333333333335
-0.51,-0.235,3011.1111111111113
-0.525,-0.235,3013.8888888888887
-0.525,-0.265,3016.6666666666665
-0.54,-0.28,3019.4444444444443
-0.55,-0.305,3022.222222222222
-0.555,-0.3,3025.0
-0.58,-0.315,3027.777777777778
-0.59,-0.32,3030.5555555555557
-0.6,-0.325,3033.3333333333335
-0.61,-0.33,3036.1111111111113
-0.615,-0.335,3038.8888888888887
-0.605,-0.33,3041.6666666666665
-0.605,-0.325,3044.4444444444443
-0.6,-0.335,3047.222222222222
-0.595,-0.345,3050.0
-0.59,-0.35,3052.777777777778
-0.605,-0.38,3055.5555555555557
-0.6,-0.375,3058.3333333333335
-0.595,-0.38,3061.1111111111113
-0.595,-0.395,3063.8888888888887
-0.585,-0.385,3066.6666666666665
-0.57,-0.38,3069.4444444444443
-0.555,-0.37,3072.222222222222
-0.56,-0.355,3075.0
-0.54,-0.36,3077.777777777778
-0.53,-0.36,3080.5555555555557
-0.53,-0.35,3083.3333333333335
-0.53,-0.36,3086.1111111111113
-0.535,-0.365,3088.8888888888887
-0.53,-0.38,3091.6666666666665
-0.535,-0.375,3094.4444444444443
-0.54,-0.37,3097.222222222222
-0.545,-0.365,3100.0
-0.545,-0.36,3102.777777777778
-0.52,-0.355,3105.5555555555557
-0.535,-0.34,3108.3333333333335
-0.52,-0.34,3111.1111111111113
-0.51,-0.34,3113.8888888888887
-0.5,-0.335,3116.6666666666665
-0.5,-0.335,3119.4444444444443
-0.515,-0.33,3122.222222222222
-0.49,-0.33,3125.0
-0.485,-0.33,3127.777777777778
-0.475,-0.32,3130.5555555555557
-0.47,-0.3,3133.3333333333335
-0.445,-0.28,3136.1111111111113
-0.395,-0.23,3138.8888888888887
-0.32,-0.19,3141.6666666666665
-0.19,-0.125,3144.4444444444443
-0.03,-0.05,3147.222222222222
0.16,0.02,3150.0
0.385,0.13,3152.777777777778
0.6,0.22,3155.5555555555557
0.82,0.31,3158.3333333333335
0.995,0.36,3161.1111111111113
1.095,0.35,3163.8888888888887
1.09,0.26,3166.6666666666665
0.93,0.13,3169.4444444444443
0.635,-0.055,3172.222222222222
0.2,-0.25,3175.0
-0.31,-0.43,3177.777777777778
-0.85,-0.57,3180.5555555555557
-1.335,-0.71,3183.3333333333335
-1.655,-0.805,3186.1111111111113
-1.78,-0.935,3188.8888888888887
-1.705,-1.0,3191.6666666666665
-1.465,-1.02,3194.4444444444443
-1.19,-1.02,3197.222222222222
-0.925,-0.965,3200.0
-0.705,-0.89,3202.777777777778
-0.57,-0.765,3205.5555555555557
-0.455,-0.635,3208.3333333333335
-0.41,-0.495,3211.1111111111113
-0.4,-0.38,3213.8888888888887
-0.4,-0.31,3216.6666666666665
-0.41,-0.26,3219.4444444444443
-0.435,-0.245,3222.222222222222
-0.425,-0.24,3225.0
-0.415,-0.235,3227.777777777778
-0.41,-0.225,3230.5555555555557
-0.395,-0.21,3233.3333333333335
-0.375,-0.205,3236.1111111111113
-0.37,-0.185,3238.8888888888887
-0.36,-0.18,3241.6666666666665
-0.355,-0.16,3244.4444444444443
-0.345,-0.145,3247.222222222222
-0.335,-0.135,3250.0
-0.32,-0.14,3252.777777777778
-0.32,-0.14,3255.5555555555557
-0.31,-0.15,3258.3333333333335
-0.33,-0.135,3261.1111111111113
-0.325,-0.15,3263.8888888888887
-0.315,-0.125,3266.6666666666665
-0.32,-0.125,3269.4444444444443
-0.315,-0.105,3272.222222222222
-0.3,-0.095,3275.0
-0.27,-0.085,3277.777777777778
-0.26,-0.065,3280.5555555555557
-0.25,-0.08,3283.3333333333335
-0.24,-0.07,3286.1111111111113
-0.24,-0.06,3288.8888888888887
-0.245,-0.065,3291.6666666666665
-0.24,-0.05,3294.4444444444443
-0.255,-0.045,3297.222222222222
-0.235,-0.045,3300.0
-0.235,-0.025,3302.777777777778
-0.22,-0.005,3305.5555555555557
-0.21,0.005,3308.3333333333335
-0.19,0.04,3311.1111111111113
-0.17,0.045,3313.8888888888887
-0.16,0.05,3316.6666666666665
-0.15,0.055,3319.4444444444443
-0.14,0.07,3322.222222222222
-0.13,0.07,3325.0
-0.11,0.095,3327.777777777778
-0.08,0.105,3330.5555555555557
-0.08,0.11,3333.3333333333335
-0.075,0.13,3336.1111111111113
-0.05,0.165,3338.8888888888887
-0.03,0.19,3341.6666666666665
-0.005,0.22,3344.4444444444443
0.005,0.24,3347.222222222222
0.03,0.245,3350.0
0.05,0.26,3352.777777777778
0.065,0.26,3355.5555555555557
0.06,0.275,3358.3333333333335
0.075,0.285,3361.1111111111113
0.09,0.295,3363.8888888888887
0.105,0.31,3366.6666666666665
0.115,0.335,3369.4444444444443
0.115,0.345,3372.222222222222
0.125,0.375,3375.0
0.13,0.375,3377.777777777778
0.145,0.38,3380.5555555555557
0.165,0.38,3383.3333333333335
0.17,0.375,3386.1111111111113
0.17,0.38,3388.8888888888887
0.17,0.365,3391.6666666666665
0.155,0.365,3394.4444444444443
0.16,0.375,3397.222222222222
0.145,0.36,3400.0
0.14,0.365,3402.777777777778
0.145,0.36,3405.5555555555557
0.15,0.355,3408.3333333333335
0.145,0.355,3411.1111111111113
0.155,0.335,3413.8888888888887
0.155,0.315,3416.6666666666665
0.135,0.295,3419.4444444444443
0.12,0.275,3422.222222222222
0.085,0.235,3425.0
0.05,0.215,3427.777777777778
0.015,0.18,3430.5555555555557
-0.005,0.16,3433.3333333333335
-0.03,0.135,3436.1111111111113
-0.05,0.13,3438.8888888888887
-0.06,0.095,3441.6666666666665
-0.07,0.065,3444.4444444444443
-0.08,0.05,3447.222222222222
-0.12,0.005,3450.0
-0.13,-0.01,3452.777777777778
-0.16,-0.05,3455.5555555555557
-0.185,-0.075,3458.3333333333335
-0.215,-0.1,3461.1111111111113
-0.24,-0.115,3463.8888888888887
-0.255,-0.125,3466.6666666666665
-0.275,-0.14,3469.4444444444443
-0.285,-0.14,3472.222222222222
-0.3,-0.16,3475.0
-0.3,-0.175,3477.777777777778
-0.305,-0.165,3480.5555555555557
-0.325,-0.175,3483.3333333333335
-0.325,-0.18,3486.1111111111113
-0.33,-0.2,3488.8888888888887
-0.345,-0.21,3491.6666666666665
-0.35,-0.215,3494.4444444444443
-0.35,-0.205,3497.222222222222
-0.36,-0.205,3500.0
-0.37,-0.215,3502.777777777778
-0.38,-0.19,3505.5555555555557
-0.38,-0.195,3508.3333333333335
-0.37,-0.19,3511.1111111111113
-0.36,-0.19,3513.8888888888887
-0.345,-0.195,3516.6666666666665
-0.355,-0.205,3519.4444444444443
-0.335,-0.205,3522.222222222222
-0.34,-0.205,3525.0
-0.335,-0.2,3527.777777777778
-0.34,-0.215,3530.5555555555557
-0.34,-0.205,3533.3333333333335
-0.345,-0.21,3536.1111111111113
-0.345,-0.205,3538.8888888888887
-0.325,-0.18,3541.6666666666665
-0.335,-0.2,3544.4444444444443
-0.325,-0.185,3547.222222222222
-0.33,-0.19,3550.0
-0.335,-0.2,3552.777777777778
-0.33,-0.21,3555.5555555555557
-0.345,-0.225,3558.3333333333335
-0.35,-0.23,3561.1111111111113
-0.365,-0.23,3563.8888888888887
-0.36,-0.225,3566.6666666666665
-0.35,-0.22,3569.4444444444443
-0.355,-0.22,3572.222222222222
-0.35,-0.215,3575.0
-0.335,-0.21,3577.777777777778
-0.33,-0.21,3580.5555555555557
-0.33,-0.22,3583.3333333333335
-0.33,-0.215,3586.1111111111113
-0.34,-0.215,3588.8888888888887
-0.345,-0.215,3591.6666666666665
-0.37,-0.235,3594.4444444444443
-0.375,-0.235,3597.222222222222
-0.37,-0.245,3600.0
-0.345,-0.24,3602.777777777778
-0.34,-0.225,3605.5555555555557
-0.335,-0.23,3608.3333333333335
-0.33,-0.225,3611.1111111111113
-0.315,-0.23,3613.8888888888887
-0.325,-0.23,3616.6666666666665
-0.32,-0.225,3619.4444444444443
-0.325,-0.245,3622.222222222222
-0.325,-0.255,3625.0
-0.335,-0.27,3627.777777777778
-0.34,-0.265,3630.5555555555557
-0.34,-0.26,3633.3333333333335
-0.325,-0.275,3636.1111111111113
-0.325,-0.26,3638.8888888888887
-0.325,-0.265,3641.6666666666665
-0.32,-0.27,3644.4444444444443
-0.31,-0.265,3647.222222222222
-0.305,-0.28,3650.0
-0.3,-0.28,3652.777777777778
-0.315,-0.29,3655.5555555555557
-0.315,-0.305,3658.3333333333335
-0.33,-0.295,3661.1111111111113
-0.335,-0.305,3663.8888888888887
-0.355,-0.31,3666.6666666666665
-0.355,-0.3,3669.4444444444443
-0.345,-0.3,3672.222222222222
-0.345,-0.29,3675.0
-0.335,-0.275,3677.777777777778
-0.33,-0.28,3680.5555555555557
-0.305,-0.275,3683.3333333333335
-0.305,-0.29,3686.1111111111113
-0.29,-0.27,3688.8888888888887
-0.29,-0.285,3691.6666666666665
-0.28,-0.285,3694.4444444444443
-0.285,-0.27,3697.222222222222
-0.26,-0.26,3700.0
-0.255,-0.235,3702.777777777778
-0.235,-0.23,3705.5555555555557
-0.22,-0.22,3708.3333333333335
-0.21,-0.22,3711.1111111111113
-0.2,-0.21,3713.8888888888887
-0.18,-0.21,3716.6666666666665
-0.175,-0.21,3719.4444444444443
-0.18,-0.21,3722.222222222222
-0.19,-0.215,3725.0
-0.21,-0.22,3727.777777777778
-0.23,-0.225,3730.5555555555557
-0.235,-0.23,3733.3333333333335
-0.255,-0.25,3736.1111111111113
-0.245,-0.25,3738.8888888888887
-0.255,-0.255,3741.6666666666665
-0.25,-0.255,3744.4444444444443
-0.245,-0.25,3747.222222222222
-0.255,-0.265,3750.0
-0.26,-0.27,3752.777777777778
-0.28,-0.275,3755.5555555555557
-0.3,-0.285,3758.3333333333335
-0.33,-0.3,3761.1111111111113
-0.345,-0.31,3763.8888888888887
-0.36,-0.305,3766.6666666666665
-0.36,-0.295,3769.4444444444443
-0.365,-0.285,3772.222222222222
-0.375,-0.3,3775.0
-0.38,-0.295,3777.777777777778
-0.39,-0.3,3780.5555555555557
-0.405,-0.305,3783.3333333333335
-0.405,-0.315,3786.1111111111113
-0.405,-0.32,3788.8888888888887
-0.42,-0.32,3791.6666666666665
-0.42,-0.34,3794.4444444444443
-0.425,-0.355,3797.222222222222
-0.435,-0.345,3800.0
-0.42,-0.335,3802.777777777778
-0.42,-0.325,3805.5555555555557
-0.41,-0.315,3808.3333333333335
-0.415,-0.31,3811.1111111111113
-0.395,-0.315,3813.8888888888887
-0.405,-0.305,3816.6666666666665
-0.41,-0.315,3819.4444444444443
-0.415,-0.33,3822.222222222222
-0.42,-0.325,3825.0
-0.43,-0.34,3827.777777777778
-0.43,-0.32,3830.5555555555557
-0.425,-0.315,3833.3333333333335
-0.42,-0.32,3836.1111111111113
-0.415,-0.31,3838.8888888888887
-0.42,-0.295,3841.6666666666665
-0.41,-0.285,3844.4444444444443
-0.41,-0.28,3847.222222222222
-0.395,-0.27,3850.0
-0.4,-0.275,3852.777777777778
-0.395,-0.275,3855.5555555555557
-0.39,-0.275,3858.3333333333335
-0.39,-0.275,3861.1111111111113
-0.37,-0.255,3863.8888888888887
-0.33,-0.215,3866.6666666666665
-0.265,-0.155,3869.4444444444443
-0.17,-0.105,3872.222222222222
-0.005,-0.02,3875.0
0.165,0.065,3877.777777777778
0.385,0.175,3880.5555555555557
0.585,0.265,3883.3333333333335
0.795,0.37,3886.1111111111113
0.96,0.42,3888.8888888888887
1.065,0.4,3891.6666666666665
1.065,0.325,3894.4444444444443
0.95,0.165,3897.222222222222
0.705,-0.02,3900.0
0.335,-0.225,3902.777777777778
-0.095,-0.39,3905.5555555555557
-0.575,-0.54,3908.3333333333335
-1.02,-0.655,3911.1111111111113
-1.365,-0.77,3913.8888888888887
-1.53,-0.875,3916.6666666666665
-1.525,-0.94,3919.4444444444443
-1.38,-0.995,3922.222222222222
-1.145,-0.995,3925.0
-0.915,-0.965,3927.777777777778
-0.71,-0.9,3930.5555555555557
-0.565,-0.785,3933.3333333333335
-0.44,-0.66,3936.1111111111113
-0.38,-0.52,3938.8888888888887
-0.35,-0.405,3941.6666666666665
-0.34,-0.305,3944.4444444444443
-0.355,-0.23,3947.222222222222
-0.355,-0.205,3950.0
-0.36,-0.18,3952.777777777778
-0.365,-0.185,3955.5555555555557
-0.36,-0.18,3958.3333333333335
-0.35,-0.18,3961.1111111111113
-0.345,-0.175,3963.8888888888887
-0.35,-0.16,3966.6666666666665
-0.34,-0.14,3969.4444444444443
-0.325,-0.125,3972.222222222222
-0.32,-0.115,3975.0
-0.315,-0.1,3977.777777777778
-0.305,-0.095,3980.5555555555557
-0.285,-0.09,3983.3333333333335
-0.275,-0.08,3986.1111111111113
-0.265,-0.08,3988.8888888888887
-0.29,-0.09,3991.6666666666665
-0.275,-0.085,3994.4444444444443
-0.28,-0.075,3997.222222222222
-0.27,-0.065,4000.0
-0.27,-0.05,4002.777777777778
-0.255,-0.05,4005.5555555555557
-0.235,-0.02,4008.3333333333335
-0.22,-0.005,4011.1111111111113
-0.19,0.005,4013.8888888888887
-0.18,0.005,4016.6666666666665
-0.155,0.025,4019.4444444444443
-0.15,0.015,4022.222222222222
-0.15,0.03,4025.0
-0.16,0.03,4027.777777777778
-0.145,0.04,4030.5555555555557
-0.14,0.055,4033.3333333333335
-0.12,0.055,4036.1111111111113
-0.08,0.075,4038.8888888888887
-0.06,0.11,4041.6666666666665
-0.035,0.125,4044.4444444444443
-0.01,0.145,4047.222222222222
0.01,0.155,4050.0
0.025,0.16,4052.777777777778
0.035,0.17,4055.5555555555557
0.04,0.185,4058.3333333333335
0.055,0.19,4061.1111111111113
0.08,0.205,4063.8888888888887
0.09,0.23,4066.6666666666665
0.11,0.255,4069.4444444444443
0.13,0.27,4072.222222222222
0.155,0.29,4075.0
0.175,0.32,4077.777777777778
0.195,0.34,4080.5555555555557
0.205,0.335,4083.3333333333335
0.215,0.355,4086.1111111111113
0.235,0.365,4088.8888888888887
0.23,0.37,4091.6666666666665
0.24,0.375,4094.4444444444443
0.24,0.385,4097.222222222223
0.245,0.395,4100.0
0.25,0.405,4102.777777777777
0.25,0.425,4105.555555555556
0.265,0.43,4108.333333333333
0.27,0.445,4111.111111111111
0.275,0.445,4113.888888888889
0.245,0.45,4116.666666666667
0.235,0.435,4119.444444444444
0.205,0.425,4122.222222222223
0.19,0.425,4125.0
0.165,0.405,4127.777777777777
0.135,0.405,4130.555555555556
0.125,0.405,4133.333333333333
0.13,0.385,4136.111111111111
0.13,0.38,4138.888888888889
0.11,0.375,4141.666666666667
0.095,0.36,4144.444444444444
0.105,0.335,4147.222222222223
0.09,0.315,4150.0
0.065,0.285,4152.777777777777
0.035,0.245,4155.555555555556
0.01,0.205,4158.333333333333
-0.015,0.17,4161.111111111111
-0.045,0.145,4163.888888888889
-0.07,0.115,4166.666666666667
-0.1,0.1,4169.444444444444
-0.135,0.07,4172.222222222223
-0.145,0.03,4175.0
-0.17,0.015,4177.777777777777
-0.19,-0.005,4180.555555555556
-0.215,-0.03,4183.333333333333
-0.24,-0.065,4186.111111111111
-0.255,-0.095,4188.888888888889
-0.285,-0.12,4191.666666666667
-0.3,-0.145,4194.444444444444
-0.315,-0.155,4197.222222222223
-0.325,-0.17,4200.0
-0.345,-0.185,4202.777777777777
-0.35,-0.18,4205.555555555556
-0.355,-0.195,4208.333333333333
-0.35,-0.195,4211.111111111111
-0.365,-0.185,4213.888888888889
-0.37,-0.205,4216.666666666667
-0.37,-0.21,4219.444444444444
-0.385,-0.23,4222.222222222223
-0.39,-0.225,4225.0
-0.39,-0.235,4227.777777777777
-0.4,-0.24,4230.555555555556
-0.405,-0.26,4233.333333333333
-0.42,-0.245,4236.111111111111
-0.415,-0.25,4238.888888888889
-0.425,-0.235,4241.666666666667
-0.42,-0.225,4244.444444444444
-0.41,-0.23,4247.222222222223
-0.415,-0.235,4250.0
-0.415,-0.22,4252.777777777777
-0.425,-0.23,4255.555555555556
-0.425,-0.235,4258.333333333333
-0.435,-0.245,4261.111111111111
-0.435,-0.24,4263.888888888889
-0.44,-0.235,4266.666666666667
-0.435,-0.225,4269.444444444444
-0.45,-0.22,4272.222222222223
-0.435,-0.205,4275.0
-0.43,-0.21,4277.777777777777
-0.445,-0.21,4280.555555555556
-0.43,-0.205,4283.333333333333
-0.425,-0.205,4286.111111111111
-0.43,-0.215,4288.888888888889
-0.435,-0.23,4291.666666666667
-0.43,-0.225,4294.444444444444
-0.425,-0.23,4297.222222222223
-0.415,-0.23,4300.0
-0.425,-0.22,4302.777777777777
-0.405,-0.22,4305.555555555556
-0.4,-0.225,4308.333333333333
-0.385,-0.205,4311.111111111111
-0.375,-0.195,4313.888888888889
-0.395,-0.21,4316.666666666667
-0.39,-0.21,4319.444444444444
-0.39,-0.225,4322.222222222223
-0.385,-0.23,4325.0
-0.385,-0.245,4327.777777777777
-0.385,-0.245,4330.555555555556
-0.39,-0.235,4333.333333333333
-0.385,-0.235,4336.111111111111
-0.36,-0.23,4338.888888888889
-0.345,-0.22,4341.666666666667
-0.34,-0.22,4344.444444444444
-0.335,-0.22,4347.222222222223
-0.33,-0.215,4350.0
-0.33,-0.215,4352.777777777777
-0.315,-0.22,4355.555555555556
-0.335,-0.235,4358.333333333333
-0.32,-0.245,4361.111111111111
-0.335,-0.235,4363.888888888889
-0.345,-0.245,4366.666666666667
-0.35,-0.24,4369.444444444444
-0.345,-0.23,4372.222222222223
-0.345,-0.225,4375.0
-0.35,-0.205,4377.777777777777
-0.335,-0.205,4380.555555555556
-0.34,-0.225,4383.333333333333
-0.34,-0.215,4386.111111111111
-0.345,-0.225,4388.888888888889
-0.365,-0.23,4391.666666666667
-0.37,-0.23,4394.444444444444
-0.38,-0.235,4397.222222222223
-0.38,-0.23,4400.0
-0.38,-0.22,4402.777777777777
-0.375,-0.205,4405.555555555556
-0.36,-0.22,4408.333333333333
-0.345,-0.205,4411.111111111111
-0.335,-0.195,4413.888888888889
-0.315,-0.185,4416.666666666667
-0.305,-0.18,4419.444444444444
-0.29,-0.175,4422.222222222223
-0.295,-0.17,4425.0
-0.3,-0.165,4427.777777777777
-0.295,-0.165,4430.555555555556
-0.295,-0.16,4433.333333333333
-0.295,-0.15,4436.111111111111
-0.28,-0.15,4438.888888888889
-0.27,-0.145,4441.666666666667
-0.255,-0.12,4444.444444444444
-0.255,-0.12,4447.222222222223
-0.25,-0.11,4450.0
-0.255,-0.125,4452.777777777777
-0.265,-0.125,4455.555555555556
-0.28,-0.135,4458.333333333333
-0.29,-0.155,4461.111111111111
-0.305,-0.17,4463.888888888889
-0.31,-0.19,4466.666666666667
-0.315,-0.195,4469.444444444444
-0.315,-0.205,4472.222222222223
-0.31,-0.195,4475.0
-0.305,-0.195,4477.777777777777
-0.31,-0.19,4480.555555555556
-0.335,-0.19,4483.333333333333
-0.335,-0.205,4486.111111111111
-0.35,-0.22,4488.888888888889
-0.35,-0.245,4491.666666666667
-0.38,-0.255,4494.444444444444
-0.39,-0.255,4497.222222222223
-0.385,-0.26,4500.0
-0.385,-0.255,4502.777777777777
-0.405,-0.26,4505.555555555556
-0.425,-0.255,4508.333333333333
-0.42,-0.255,4511.111111111111
-0.415,-0.27,4513.888888888889
-0.41,-0.275,4516.666666666667
-0.415,-0.285,4519.444444444444
-0.4,-0.29,4522.222222222223
-0.405,-0.29,4525.0
-0.405,-0.295,4527.777777777777
-0.395,-0.295,4530.555555555556
-0.395,-0.285,4533.333333333333
-0.405,-0.28,4536.111111111111
-0.395,-0.255,4538.888888888889
-0.38,-0.25,4541.666666666667
-0.37,-0.22,4544.444444444444
-0.345,-0.205,4547.222222222223
-0.32,-0.21,4550.0
-0.31,-0.195,4552.777777777777
-0.315,-0.195,4555.555555555556
-0.3,-0.18,4558.333333333333
-0.29,-0.175,4561.111111111111
-0.305,-0.16,4563.888888888889
-0.285,-0.145,4566.666666666667
-0.265,-0.12,4569.444444444444
-0.21,-0.1,4572.222222222223
-0.18,-0.07,4575.0
-0.155,-0.035,4577.777777777777
-0.12,-0.03,4580.555555555556
-0.105,-0.015,4583.333333333333
-0.065,-0.005,4586.111111111111
-0.025,0.01,4588.888888888889
0.0,0.015,4591.666666666667
0.025,0.035,4594.444444444444
0.06,0.035,4597.222222222223
0.11,0.065,4600.0
0.165,0.12,4602.777777777777
0.255,0.18,4605.555555555556
0.38,0.26,4608.333333333333
0.525,0.345,4611.111111111111
0.695,0.44,4613.888888888889
0.865,0.54,4616.666666666667
1.065,0.655,4619.444444444444
1.255,0.77,4622.222222222223
1.425,0.85,4625.0
1.545,0.875,4627.777777777777
1.595,0.85,4630.555555555556
1.53,0.75,4633.333333333333
1.35,0.595,4636.111111111111
1.065,0.42,4638.888888888889
0.68,0.27,4641.666666666667
0.25,0.15,4644.444444444444
-0.19,0.04,4647.222222222223
-0.615,-0.07,4650.0
-0.925,-0.185,4652.777777777777
-1.09,-0.315,4655.555555555556
-1.14,-0.43,4658.333333333333
-1.065,-0.5,4661.111111111111
-0.945,-0.555,4663.888888888889
-0.81,-0.555,4666.666666666667
-0.69,-0.515,4669.444444444444
-0.605,-0.445,4672.222222222223
-0.53,-0.39,4675.0
-0.51,-0.315,4677.777777777777
-0.49,-0.265,4680.555555555556
-0.505,-0.24,4683.333333333333
-0.52,-0.23,4686.111111111111
-0.53,-0.225,4688.888888888889
-0.54,-0.23,4691.666666666667
-0.535,-0.25,4694.444444444444
-0.55,-0.255,4697.222222222223
-0.545,-0.245,4700.0
-0.53,-0.24,4702.777777777777
-0.52,-0.225,4705.555555555556
-0.51,-0.22,4708.333333333333
-0.505,-0.2,4711.111111111111
-0.49,-0.195,4713.888888888889
-0.48,-0.19,4716.666666666667
-0.465,-0.2,4719.444444444444
-0.475,-0.225,4722.222222222223
-0.475,-0.21,4725.0
-0.485,-0.215,4727.777777777777
-0.47,-0.215,4730.555555555556
-0.485,-0.205,4733.333333333333
-0.48,-0.205,4736.111111111111
-0.475,-0.185,4738.888888888889
-0.48,-0.185,4741.666666666667
-0.485,-0.18,4744.444444444444
-0.48,-0.165,4747.222222222223
-0.48,-0.17,4750.0
-0.475,-0.19,4752.777777777777
-0.475,-0.195,4755.555555555556
-0.475,-0.205,4758.333333333333
-0.465,-0.195,4761.111111111111
-0.48,-0.2,4763.888888888889
-0.475,-0.165,4766.666666666667
-0.48,-0.18,4769.444444444444
-0.47,-0.175,4772.222222222223
-0.46,-0.165,4775.0
-0.46,-0.16,4777.777777777777
-0.445,-0.14,4780.555555555556
-0.435,-0.145,4783.333333333333
-0.425,-0.15,4786.111111111111
-0.42,-0.16,4788.888888888889
-0.42,-0.17,4791.666666666667
-0.42,-0.155,4794.444444444444
-0.425,-0.155,4797.222222222223
-0.42,-0.155,4800.0
-0.42,-0.14,4802.777777777777
-0.405,-0.13,4805.555555555556
-0.4,-0.12,4808.333333333333
-0.38,-0.1,4811.111111111111
-0.37,-0.085,4813.888888888889
-0.355,-0.095,4816.666666666667
-0.335,-0.08,4819.444444444444
-0.33,-0.075,4822.222222222223
-0.335,-0.085,4825.0
-0.34,-0.065,4827.777777777777
-0.325,-0.07,4830.555555555556
-0.32,-0.055,4833.333333333333
-0.305,-0.035,4836.111111111111
-0.29,-0.025,4838.888888888889
-0.275,0.0,4841.666666666667
-0.26,0.0,4844.444444444444
-0.25,0.025,4847.222222222223
-0.255,0.015,4850.0
-0.235,0.035,4852.777777777777
-0.24,0.035,4855.555555555556
-0.24,0.035,4858.333333333333
-0.24,0.035,4861.111111111111
-0.24,0.045,4863.888888888889
-0.23,0.05,4866.666666666667
-0.205,0.07,4869.444444444444
-0.195,0.085,4872.222222222223
-0.175,0.095,4875.0
-0.175,0.09,4877.777777777777
-0.15,0.095,4880.555555555556
-0.15,0.09,4883.333333333333
-0.14,0.06,4886.111111111111
-0.145,0.055,4888.888888888889
-0.145,0.04,4891.666666666667
-0.165,0.03,4894.444444444444
-0.17,0.005,4897.222222222223
-0.18,-0.01,4900.0
-0.205,-0.025,4902.777777777777
-0.21,-0.035,4905.555555555556
-0.22,-0.04,4908.333333333333
-0.225,-0.05,4911.111111111111
-0.225,-0.07,4913.888888888889
-0.24,-0.09,4916.666666666667
-0.25,-0.095,4919.444444444444
-0.27,-0.11,4922.222222222223
-0.27,-0.135,4925.0
-0.295,-0.16,4927.777777777777
-0.305,-0.165,4930.555555555556
-0.295,-0.17,4933.333333333333
-0.3,-0.17,4936.111111111111
-0.3,-0.18,4938.888888888889
-0.305,-0.19,4941.666666666667
-0.29,-0.17,4944.444444444444
-0.285,-0.175,4947.222222222223
-0.29,-0.18,4950.0
-0.285,-0.19,4952.777777777777
-0.29,-0.2,4955.555555555556
-0.29,-0.215,4958.333333333333
-0.3,-0.22,4961.111111111111
-0.3,-0.225,4963.888888888889
-0.3,-0.225,4966.666666666667
-0.305,-0.225,4969.444444444444
-0.28,-0.21,4972.222222222223
-0.27,-0.22,4975.0
-0.255,-0.2,4977.777777777777
-0.265,-0.2,4980.555555555556
-0.255,-0.215,4983.333333333333
-0.245,-0.21,4986.111111111111
-0.245,-0.21,4988.888888888889
-0.24,-0.21,4991.666666666667
-0.235,-0.235,4994.444444444444
-0.245,-0.23,4997.222222222223
-0.24,-0.225,5000.0
-0.245,-0.23,5002.777777777777
-0.25,-0.215,5005.555555555556
-0.235,-0.215,5008.333333333333
-0.245,-0.205,5011.111111111111
-0.23,-0.205,5013.888888888889
-0.235,-0.2,5016.666666666667
-0.23,-0.205,5019.444444444444
-0.24,-0.2,5022.222222222223
-0.255,-0.21,5025.0
-0.285,-0.22,5027.777777777777
-0.295,-0.225,5030.555555555556
-0.305,-0.225,5033.333333333333
-0.305,-0.21,5036.111111111111
-0.315,-0.205,5038.888888888889
-0.315,-0.215,5041.666666666667
-0.325,-0.215,5044.444444444444
-0.335,-0.195,5047.222222222223
-0.335,-0.195,5050.0
-0.345,-0.21,5052.777777777777
-0.355,-0.215,5055.555555555556
-0.36,-0.23,5058.333333333333
-0.38,-0.225,5061.111111111111
-0.375,-0.235,5063.888888888889
-0.385,-0.23,5066.666666666667
-0.39,-0.24,5069.444444444444
-0.385,-0.235,5072.222222222223
-0.395,-0.225,5075.0
-0.4,-0.225,5077.777777777777
-0.4,-0.215,5080.555555555556
-0.4,-0.22,5083.333333333333
-0.405,-0.215,5086.111111111111
-0.415,-0.23,5088.888888888889
-0.4,-0.24,5091.666666666667
-0.43,-0.25,5094.444444444444
-0.435,-0.26,5097.222222222223
-0.44,-0.255,5100.0
-0.445,-0.255,5102.777777777777
-0.44,-0.255,5105.555555555556
-0.445,-0.245,5108.333333333333
-0.44,-0.235,5111.111111111111
-0.44,-0.24,5113.888888888889
-0.43,-0.235,5116.666666666667
-0.435,-0.24,5119.444444444444
-0.44,-0.26,5122.222222222223
-0.44,-0.255,5125.0
-0.445,-0.27,5127.777777777777
-0.455,-0.275,5130.555555555556
-0.455,-0.27,5133.333333333333
-0.445,-0.265,5136.111111111111
-0.45,-0.26,5138.888888888889
-0.43,-0.255,5141.666666666667
-0.41,-0.24,5144.444444444444
-0.41,-0.23,5147.222222222223
-0.395,-0.22,5150.0
-0.375,-0.215,5152.777777777777
-0.375,-0.23,5155.555555555556
-0.38,-0.22,5158.333333333333
-0.375,-0.22,5161.111111111111
-0.38,-0.195,5163.888888888889
-0.365,-0.19,5166.666666666667
-0.35,-0.18,5169.444444444444
-0.34,-0.185,5172.222222222223
-0.34,-0.165,5175.0
-0.32,-0.15,5177.777777777777
-0.31,-0.155,5180.555555555556
-0.3,-0.135,5183.333333333333
-0.32,-0.13,5186.111111111111
-0.32,-0.135,5188.888888888889
-0.335,-0.15,5191.666666666667
-0.345,-0.15,5194.444444444444
-0.36,-0.175,5197.222222222223
-0.365,-0.175,5200.0
-0.38,-0.195,5202.777777777777
-0.38,-0.2,5205.555555555556
-0.39,-0.195,5208.333333333333
-0.4,-0.2,5211.111111111111
-0.395,-0.18,5213.888888888889
-0.41,-0.195,5216.666666666667
-0.41,-0.195,5219.444444444444
-0.415,-0.215,5222.222222222223
-0.42,-0.22,5225.0
-0.435,-0.245,5227.777777777777
-0.44,-0.235,5230.555555555556
-0.44,-0.23,5233.333333333333
-0.45,-0.24,5236.111111111111
-0.47,-0.24,5238.888888888889
-0.465,-0.24,5241.666666666667
-0.46,-0.24,5244.444444444444
-0.46,-0.25,5247.222222222223
-0.455,-0.26,5250.0
-0.44,-0.26,5252.777777777777
-0.43,-0.27,5255.555555555556
-0.415,-0.26,5258.333333333333
-0.41,-0.27,5261.111111111111
-0.41,-0.27,5263.888888888889
-0.385,-0.265,5266.666666666667
-0.365,-0.25,5269.444444444444
-0.33,-0.215,5272.222222222223
-0.29,-0.21,5275.0
-0.265,-0.2,5277.777777777777
-0.225,-0.18,5280.555555555556
-0.24,-0.165,5283.333333333333
-0.22,-0.14,5286.111111111111
-0.175,-0.14,5288.888888888889
-0.18,-0.125,5291.666666666667
-0.145,-0.115,5294.444444444444
-0.13,-0.11,5297.222222222223
-0.105,-0.08,5300.0
-0.065,-0.05,5302.777777777777
-0.025,-0.02,5305.555555555556
0.005,0.0,5308.333333333333
0.03,0.03,5311.111111111111
0.08,0.035,5313.888888888889
0.125,0.065,5316.666666666667
0.17,0.075,5319.444444444444
0.21,0.08,5322.222222222223
0.245,0.11,5325.0
0.28,0.15,5327.777777777777
0.355,0.205,5330.555555555556
0.44,0.285,5333.333333333333
0.54,0.37,5336.111111111111
0.685,0.49,5338.888888888889
0.835,0.615,5341.666666666667
1.025,0.74,5344.444444444444
1.205,0.86,5347.222222222223
1.355,0.93,5350.0
1.45,0.92,5352.777777777777
1.465,0.805,5355.555555555556
1.37,0.64,5358.333333333333
1.17,0.415,5361.111111111111
0.88,0.22,5363.888888888889
0.475,0.045,5366.666666666667
0.015,-0.11,5369.444444444444
-0.435,-0.205,5372.222222222223
-0.825,-0.315,5375.0
-1.05,-0.41,5377.777777777777
-1.1,-0.49,5380.555555555556
-1.045,-0.545,5383.333333333333
-0.885,-0.55,5386.111111111111
-0.73,-0.545,5388.888888888889
-0.595,-0.5,5391.666666666667
-0.5,-0.445,5394.444444444444
-0.455,-0.38,5397.222222222223
-0.445,-0.305,5400.0
-0.47,-0.26,5402.777777777777
-0.48,-0.235,5405.555555555556
-0.49,-0.215,5408.333333333333
-0.5,-0.215,5411.111111111111
-0.5,-0.22,5413.888888888889
-0.495,-0.225,5416.666666666667
-0.485,-0.23,5419.444444444444
-0.485,-0.23,5422.222222222223
-0.475,-0.23,5425.0
-0.485,-0.225,5427.777777777777
-0.49,-0.23,5430.555555555556
-0.495,-0.22,5433.333333333333
-0.515,-0.225,5436.111111111111
-0.515,-0.22,5438.888888888889
-0.51,-0.225,5441.666666666667
-0.51,-0.205,5444.444444444444
-0.505,-0.205,5447.222222222223
-0.51,-0.205,5450.0
-0.515,-0.195,5452.777777777777
-0.525,-0.2,5455.555555555556
-0.54,-0.215,5458.333333333333
-0.55,-0.205,5461.111111111111
-0.55,-0.21,5463.888888888889
-0.57,-0.205,5466.666666666667
-0.58,-0.205,5469.444444444444
-0.585,-0.19,5472.222222222223
-0.6,-0.175,5475.0
-0.595,-0.155,5477.777777777777
-0.575,-0.15,5480.555555555556
-0.585,-0.14,5483.333333333333
-0.585,-0.16,5486.111111111111
-0.6,-0.16,5488.888888888889
-0.605,-0.165,5491.666666666667
-0.62,-0.175,5494.444444444444
-0.63,-0.17,5497.222222222223
-0.645,-0.16,5500.0
-0.645,-0.15,5502.777777777777
-0.635,-0.145,5505.555555555556
-0.635,-0.13,5508.333333333333
-0.63,-0.125,5511.111111111111
-0.615,-0.12,5513.888888888889
-0.615,-0.115,5516.666666666667
-0.625,-0.105,5519.444444444444
-0.61,-0.12,5522.222222222223
-0.61,-0.115,5525.0
-0.615,-0.11,5527.777777777777
-0.62,-0.105,5530.555555555556
-0.615,-0.09,5533.333333333333
-0.61,-0.09,5536.111111111111
-0.585,-0.07,5538.888888888889
-0.555,-0.055,5541.666666666667
-0.55,-0.035,5544.444444444444
-0.525,-0.025,5547.222222222223
-0.515,-0.02,5550.0
-0.5,-0.01,5552.777777777777
-0.49,0.005,5555.555555555556
-0.475,0.015,5558.333333333333
-0.46,0.015,5561.111111111111
-0.455,0.02,5563.888888888889
-0.425,0.035,5566.666666666667
-0.415,0.055,5569.444444444444
-0.38,0.06,5572.222222222223
-0.355,0.085,5575.0
-0.345,0.1,5577.777777777777
-0.325,0.13,5580.555555555556
-0.32,0.12,5583.333333333333
-0.295,0.135,5586.111111111111
-0.29,0.13,5588.888888888889
-0.285,0.13,5591.666666666667
-0.27,0.125,5594.444444444444
-0.27,0.13,5597.222222222223
-0.26,0.145,5600.0
-0.26,0.145,5602.777777777777
-0.255,0.165,5605.555555555556
-0.245,0.165,5608.333333333333
-0.24,0.165,5611.111111111111
-0.235,0.16,5613.888888888889
-0.23,0.155,5616.666666666667
-0.225,0.145,5619.444444444444
-0.23,0.125,5622.222222222223
-0.245,0.1,5625.0
-0.27,0.08,5627.777777777777
-0.295,0.06,5630.555555555556
-0.305,0.05,5633.333333333333
-0.315,0.035,5636.111111111111
-0.325,0.03,5638.888888888889
-0.34,0.015,5641.666666666667
-0.34,0.005,5644.444444444444
-0.34,0.005,5647.222222222223
-0.345,-0.015,5650.0
-0.365,-0.03,5652.777777777777
-0.375,-0.06,5655.555555555556
-0.395,-0.07,5658.333333333333
-0.41,-0.075,5661.111111111111
-0.41,-0.105,5663.888888888889
-0.43,-0.095,5666.666666666667
-0.425,-0.095,5669.444444444444
-0.425,-0.11,5672.222222222223
-0.41,-0.105,5675.0
-0.405,-0.115,5677.777777777777
-0.4,-0.095,5680.555555555556
-0.4,-0.1,5683.333333333333
-0.395,-0.115,5686.111111111111
-0.4,-0.125,5688.888888888889
-0.4,-0.13,5691.666666666667
-0.39,-0.14,5694.444444444444
-0.405,-0.14,5697.222222222223
-0.395,-0.155,5700.0
-0.375,-0.145,5702.777777777777
-0.375,-0.14,5705.555555555556
-0.36,-0.135,5708.333333333333
-0.35,-0.135,5711.111111111111
-0.35,-0.13,5713.888888888889
-0.345,-0.12,5716.666666666667
-0.34,-0.14,5719.444444444444
-0.335,-0.145,5722.222222222223
-0.34,-0.145,5725.0
-0.33,-0.16,5727.777777777777
-0.335,-0.16,5730.555555555556
-0.345,-0.165,5733.333333333333
-0.335,-0.165,5736.111111111111
-0.33,-0.155,5738.888888888889
-0.32,-0.15,5741.666666666667
-0.33,-0.145,5744.444444444444
-0.32,-0.135,5747.222222222223
-0.315,-0.15,5750.0
-0.3,-0.145,5752.777777777777
-0.31,-0.17,5755.555555555556
-0.295,-0.165,5758.333333333333
-0.315,-0.18,5761.111111111111
-0.325,-0.18,5763.888888888889
-0.33,-0.175,5766.666666666667
-0.34,-0.18,5769.444444444444
-0.34,-0.175,5772.222222222223
-0.34,-0.175,5775.0
-0.33,-0.17,5777.777777777777
-0.325,-0.165,5780.555555555556
-0.325,-0.17,5783.333333333333
-0.315,-0.17,5786.111111111111
-0.33,-0.175,5788.888888888889
-0.335,-0.18,5791.666666666667
-0.335,-0.19,5794.444444444444
-0.355,-0.195,5797.222222222223
-0.36,-0.215,5800.0
-0.365,-0.2,5802.777777777777
-0.365,-0.195,5805.555555555556
-0.355,-0.19,5808.333333333333
-0.36,-0.19,5811.111111111111
-0.355,-0.18,5813.888888888889
-0.35,-0.175,5816.666666666667
-0.345,-0.19,5819.444444444444
-0.36,-0.2,5822.222222222223
-0.36,-0.215,5825.0
-0.375,-0.21,5827.777777777777
-0.38,-0.225,5830.555555555556
-0.37,-0.22,5833.333333333333
-0.37,-0.22,5836.111111111111
-0.38,-0.21,5838.888888888889
-0.37,-0.2,5841.666666666667
-0.375,-0.205,5844.444444444444
-0.38,-0.19,5847.222222222223
-0.375,-0.195,5850.0
-0.385,-0.2,5852.777777777777
-0.375,-0.215,5855.555555555556
-0.385,-0.2,5858.333333333333
-0.405,-0.21,5861.111111111111
-0.405,-0.215,5863.888888888889
-0.425,-0.22,5866.666666666667
-0.435,-0.21,5869.444444444444
-0.435,-0.21,5872.222222222223
-0.435,-0.2,5875.0
-0.43,-0.19,5877.777777777777
-0.42,-0.19,5880.555555555556
-0.435,-0.19,5883.333333333333
-0.43,-0.18,5886.111111111111
-0.43,-0.185,5888.888888888889
-0.435,-0.19,5891.666666666667
-0.44,-0.21,5894.444444444444
-0.45,-0.215,5897.222222222223
-0.445,-0.205,5900.0
-0.45,-0.205,5902.777777777777
-0.435,-0.19,5905.555555555556
-0.435,-0.19,5908.333333333333
-0.41,-0.18,5911.111111111111
-0.39,-0.165,5913.888888888889
-0.37,-0.17,5916.666666666667
-0.345,-0.15,5919.444444444444
-0.33,-0.145,5922.222222222223
-0.325,-0.145,5925.0
-0.31,-0.145,5927.777777777777
-0.305,-0.135,5930.555555555556
-0.285,-0.11,5933.333333333333
-0.265,-0.105,5936.111111111111
-0.245,-0.095,5938.888888888889
-0.23,-0.065,5941.666666666667
-0.23,-0.06,5944.444444444444
-0.21,-0.05,5947.222222222223
-0.21,-0.055,5950.0
-0.22,-0.04,5952.777777777777
-0.22,-0.065,5955.555555555556
-0.225,-0.09,5958.333333333333
-0.245,-0.11,5961.111111111111
-0.245,-0.145,5963.888888888889
-0.25,-0.16,5966.666666666667
-0.26,-0.165,5969.444444444444
-0.26,-0.16,5972.222222222223
-0.275,-0.155,5975.0
-0.285,-0.16,5977.777777777777
-0.285,-0.15,5980.555555555556
-0.295,-0.16,5983.333333333333
-0.295,-0.165,5986.111111111111
-0.29,-0.175,5988.888888888889
-0.305,-0.19,5991.666666666667
-0.33,-0.2,5994.444444444444
-0.35,-0.215,5997.222222222223
-0.365,-0.225,6000.0
-0.38,-0.235,6002.777777777777
-0.385,-0.225,6005.555555555556
-0.37,-0.23,6008.333333333333
-0.36,-0.23,6011.111111111111
-0.345,-0.22,6013.888888888889
-0.325,-0.225,6016.666666666667
-0.305,-0.225,6019.444444444444
-0.285,-0.21,6022.222222222223
-0.27,-0.22,6025.0
-0.275,-0.215,6027.777777777777
-0.28,-0.215,6030.555555555556
-0.28,-0.205,6033.333333333333
-0.28,-0.19,6036.111111111111
-0.255,-0.17,6038.888888888889
-0.225,-0.145,6041.666666666667
-0.2,-0.12,6044.444444444444
-0.19,-0.105,6047.222222222223
-0.15,-0.095,6050.0
-0.135,-0.07,6052.777777777777
-0.115,-0.05,6055.555555555556
-0.085,-0.04,6058.333333333333
-0.07,-0.01,6061.111111111111
-0.04,-0.01,6063.888888888889
-0.005,0.025,6066.666666666667
0.035,0.04,6069.444444444444
0.07,0.065,6072.222222222223
0.12,0.09,6075.0
0.16,0.11,6077.777777777777
0.2,0.145,6080.555555555556
0.245,0.17,6083.333333333333
0.31,0.225,6086.111111111111
0.39,0.28,6088.888888888889
0.49,0.345,6091.666666666667
0.63,0.435,6094.444444444444
0.775,0.545,6097.222222222223
0.96,0.655,6100.0
1.14,0.77,6102.777777777777
1.325,0.86,6105.555555555556
1.475,0.89,6108.333333333333
1.56,0.835,6111.111111111111
1.56,0.695,6113.888888888889
1.435,0.505,6116.666666666667
1.225,0.29,6119.444444444444
0.885,0.105,6122.222222222223
0.46,-0.045,6125.0
0.01,-0.15,6127.777777777777
-0.425,-0.235,6130.555555555556
-0.75,-0.34,6133.333333333333
-0.93,-0.43,6136.111111111111
-0.965,-0.495,6138.888888888889
-0.87,-0.55,6141.666666666667
-0.725,-0.565,6144.444444444444
-0.565,-0.535,6147.222222222223
-0.425,-0.515,6150.0
-0.34,-0.435,6152.777777777777
-0.285,-0.37,6155.555555555556
-0.28,-0.3,6158.333333333333
-0.285,-0.255,6161.111111111111
-0.3,-0.23,6163.888888888889
-0.335,-0.22,6166.666666666667
-0.345,-0.21,6169.444444444444
-0.35,-0.21,6172.222222222223
-0.34,-0.205,6175.0
-0.32,-0.21,6177.777777777777
-0.305,-0.205,6180.555555555556
-0.31,-0.205,6183.333333333333
-0.315,-0.205,6186.111111111111
-0.32,-0.205,6188.888888888889
-0.32,-0.215,6191.666666666667
-0.33,-0.21,6194.444444444444
-0.33,-0.215,6197.222222222223
-0.33,-0.22,6200.0
-0.325,-0.23,6202.777777777777
-0.33,-0.21,6205.555555555556
-0.33,-0.19,6208.333333333333
-0.325,-0.19,6211.111111111111
-0.31,-0.185,6213.888888888889
-0.32,-0.195,6216.666666666667
-0.325,-0.19,6219.444444444444
-0.325,-0.18,6222.222222222223
-0.335,-0.195,6225.0
-0.34,-0.205,6227.777777777777
-0.34,-0.2,6230.555555555556
-0.355,-0.205,6233.333333333333
-0.36,-0.195,6236.111111111111
-0.355,-0.18,6238.888888888889
-0.355,-0.175,6241.666666666667
-0.36,-0.16,6244.444444444444
-0.365,-0.165,6247.222222222223
-0.345,-0.16,6250.0
-0.355,-0.165,6252.777777777777
-0.355,-0.16,6255.555555555556
-0.355,-0.155,6258.333333333333
-0.355,-0.155,6261.111111111111
-0.37,-0.15,6263.888888888889
-0.375,-0.14,6266.666666666667
-0.385,-0.12,6269.444444444444
-0.38,-0.115,6272.222222222223
-0.37,-0.095,6275.0
-0.37,-0.085,6277.777777777777
-0.35,-0.08,6280.555555555556
-0.34,-0.075,6283.333333333333
-0.34,-0.07,6286.111111111111
-0.34,-0.06,6288.888888888889
-0.355,-0.06,6291.666666666667
-0.355,-0.06,6294.444444444444
-0.37,-0.055,6297.222222222223
-0.36,-0.04,6300.0
-0.36,-0.035,6302.777777777777
-0.35,-0.02,6305.555555555556
-0.34,0.0,6308.333333333333
-0.325,0.025,6311.111111111111
-0.315,0.03,6313.888888888889
-0.32,0.035,6316.666666666667
-0.31,0.035,6319.444444444444
-0.305,0.045,6322.222222222223
-0.31,0.04,6325.0
-0.315,0.045,6327.777777777777
-0.31,0.05,6330.555555555556
-0.31,0.055,6333.333333333333
-0.305,0.06,6336.111111111111
-0.305,0.07,6338.888888888889
-0.29,0.08,6341.666666666667
-0.285,0.095,6344.444444444444
-0.285,0.115,6347.222222222223
-0.28,0.105,6350.0
-0.26,0.105,6352.777777777777
-0.27,0.1,6355.555555555556
-0.255,0.11,6358.333333333333
-0.245,0.1,6361.111111111111
-0.265,0.095,6363.888888888889
-0.27,0.095,6366.666666666667
-0.27,0.09,6369.444444444444
-0.275,0.085,6372.222222222223
-0.28,0.08,6375.0
-0.285,0.075,6377.777777777777
-0.285,0.065,6380.555555555556
-0.275,0.045,6383.333333333333
-0.275,0.015,6386.111111111111
-0.28,0.01,6388.888888888889
-0.3,-0.02,6391.666666666667
-0.315,-0.04,6394.444444444444
-0.325,-0.06,6397.222222222223
-0.325,-0.085,6400.0
-0.33,-0.09,6402.777777777777
-0.34,-0.1,6405.555555555556
-0.34,-0.11,6408.333333333333
-0.34,-0.105,6411.111111111111
-0.345,-0.12,6413.888888888889
-0.34,-0.13,6416.666666666667
-0.36,-0.14,6419.444444444444
-0.36,-0.145,6422.222222222223
-0.37,-0.16,6425.0
-0.375,-0.165,6427.777777777777
-0.37,-0.165,6430.555555555556
-0.375,-0.19,6433.333333333333
-0.385,-0.195,6436.111111111111
-0.385,-0.19,6438.888888888889
-0.38,-0.18,6441.666666666667
-0.38,-0.18,6444.444444444444
-0.365,-0.17,6447.222222222223
-0.375,-0.185,6450.0
-0.365,-0.185,6452.777777777777
-0.37,-0.175,6455.555555555556
-0.385,-0.185,6458.333333333333
-0.39,-0.195,6461.111111111111
-0.37,-0.195,6463.888888888889
-0.38,-0.2,6466.666666666667
-0.375,-0.2,6469.444444444444
-0.375,-0.19,6472.222222222223
-0.365,-0.175,6475.0
-0.36,-0.17,6477.777777777777
-0.355,-0.17,6480.555555555556
-0.345,-0.175,6483.333333333333
-0.335,-0.185,6486.111111111111
-0.34,-0.18,6488.888888888889
-0.32,-0.175,6491.666666666667
-0.33,-0.175,6494.444444444444
-0.335,-0.18,6497.222222222223
-0.325,-0.18,6500.0
-0.32,-0.175,6502.777777777777
-0.315,-0.18,6505.555555555556
-0.31,-0.18,6508.333333333333
-0.305,-0.175,6511.111111111111
-0.285,-0.17,6513.888888888889
-0.27,-0.175,6516.666666666667
-0.26,-0.18,6519.444444444444
-0.26,-0.185,6522.222222222223
-0.25,-0.19,6525.0
-0.265,-0.2,6527.777777777777
-0.265,-0.215,6530.555555555556
-0.28,-0.22,6533.333333333333
-0.29,-0.225,6536.111111111111
-0.28,-0.22,6538.888888888889
-0.27,-0.21,6541.666666666667
-0.24,-0.21,6544.444444444444
-0.23,-0.2,6547.222222222223
-0.22,-0.21,6550.0
-0.23,-0.23,6552.777777777777
-0.225,-0.22,6555.555555555556
-0.23,-0.23,6558.333333333333
-0.23,-0.245,6561.111111111111
-0.25,-0.24,6563.888888888889
-0.26,-0.245,6566.666666666667
-0.26,-0.24,6569.444444444444
-0.265,-0.23,6572.222222222223
-0.27,-0.23,6575.0
-0.285,-0.225,6577.777777777777
-0.295,-0.24,6580.555555555556
-0.29,-0.225,6583.333333333333
-0.305,-0.24,6586.111111111111
-0.32,-0.26,6588.888888888889
-0.335,-0.26,6591.666666666667
-0.34,-0.265,6594.444444444444
-0.345,-0.27,6597.222222222223
-0.35,-0.275,6600.0
-0.365,-0.27,6602.777777777777
-0.365,-0.265,6605.555555555556
-0.37,-0.255,6608.333333333333
-0.37,-0.235,6611.111111111111
-0.38,-0.25,6613.888888888889
-0.39,-0.24,6616.666666666667
-0.385,-0.255,6619.444444444444
-0.39,-0.265,6622.222222222223
-0.395,-0.265,6625.0
-0.405,-0.275,6627.777777777777
-0.41,-0.28,6630.555555555556
-0.42,-0.295,6633.333333333333
-0.425,-0.27,6636.111111111111
-0.42,-0.265,6638.888888888889
-0.42,-0.265,6641.666666666667
-0.405,-0.25,6644.444444444444
-0.38,-0.25,6647.222222222223
-0.375,-0.24,6650.0
-0.35,-0.24,6652.777777777777
-0.33,-0.225,6655.555555555556
-0.325,-0.215,6658.333333333333
-0.33,-0.225,6661.111111111111
-0.325,-0.225,6663.888888888889
-0.325,-0.22,6666.666666666667
-0.325,-0.205,6669.444444444444
-0.32,-0.2,6672.222222222223
-0.31,-0.2,6675.0
-0.3,-0.165,6677.777777777777
-0.3,-0.165,6680.555555555556
-0.295,-0.17,6683.333333333333
-0.295,-0.175,6686.111111111111
-0.31,-0.195,6688.888888888889
-0.325,-0.205,6691.666666666667
-0.355,-0.215,6694.444444444444
-0.385,-0.225,6697.222222222223
-0.39,-0.24,6700.0
-0.405,-0.24,6702.777777777777
-0.42,-0.255,6705.555555555556
-0.425,-0.245,6708.333333333333
-0.425,-0.255,6711.111111111111
-0.445,-0.255,6713.888888888889
-0.445,-0.26,6716.666666666667
-0.465,-0.27,6719.444444444444
-0.49,-0.27,6722.222222222223
-0.505,-0.29,6725.0
-0.52,-0.3,6727.777777777777
-0.535,-0.3,6730.555555555556
-0.555,-0.315,6733.333333333333
-0.56,-0.325,6736.111111111111
-0.565,-0.325,6738.888888888889
-0.56,-0.325,6741.666666666667
-0.56,-0.33,6744.444444444444
-0.555,-0.32,6747.222222222223
-0.54,-0.32,6750.0
-0.51,-0.31,6752.777777777777
-0.515,-0.32,6755.555555555556
-0.495,-0.315,6758.333333333333
-0.48,-0.315,6761.111111111111
-0.48,-0.315,6763.888888888889
-0.455,-0.315,6766.666666666667
-0.45,-0.295,6769.444444444444
-0.425,-0.28,6772.222222222223
-0.405,-0.255,6775.0
-0.375,-0.23,6777.777777777777
-0.35,-0.21,6780.555555555556
-0.325,-0.19,6783.333333333333
-0.295,-0.175,6786.111111111111
-0.265,-0.165,6788.888888888889
-0.245,-0.155,6791.666666666667
-0.22,-0.14,6794.444444444444
-0.21,-0.13,6797.222222222223
-0.175,-0.11,6800.0
-0.16,-0.085,6802.777777777777
-0.13,-0.065,6805.555555555556
-0.08,-0.045,6808.333333333333
-0.04,-0.015,6811.111111111111
0.015,0.01,6813.888888888889
0.06,0.025,6816.666666666667
0.1,0.04,6819.444444444444
0.125,0.06,6822.222222222223
0.165,0.095,6825.0
0.225,0.14,6827.777777777777
0.3,0.195,6830.555555555556
0.425,0.265,6833.333333333333
0.57,0.36,6836.111111111111
0.76,0.485,6838.888888888889
0.97,0.61,6841.666666666667
1.2,0.745,6844.444444444444
1.405,0.89,6847.222222222223
1.56,0.945,6850.0
1.675,0.905,6852.777777777777
1.7,0.815,6855.555555555556
1.61,0.65,6858.333333333333
1.385,0.455,6861.111111111111
1.03,0.27,6863.888888888889
0.58,0.125,6866.666666666667
0.08,-0.015,6869.444444444444
-0.42,-0.105,6872.222222222223
-0.825,-0.225,6875.0
-1.1,-0.33,6877.777777777777
-1.175,-0.435,6880.555555555556
-1.125,-0.52,6883.333333333333
-0.985,-0.58,6886.111111111111
-0.81,-0.585,6888.888888888889
-0.66,-0.57,6891.666666666667
-0.545,-0.52,6894.444444444444
-0.47,-0.445,6897.222222222223
-0.425,-0.37,6900.0
-0.425,-0.3,6902.777777777777
-0.435,-0.26,6905.555555555556
-0.455,-0.235,6908.333333333333
-0.47,-0.22,6911.111111111111
-0.485,-0.215,6913.888888888889
-0.47,-0.225,6916.666666666667
-0.455,-0.235,6919.444444444444
-0.44,-0.235,6922.222222222223
-0.43,-0.235,6925.0
-0.435,-0.24,6927.777777777777
-0.445,-0.24,6930.555555555556
-0.45,-0.24,6933.333333333333
-0.445,-0.24,6936.111111111111
-0.45,-0.23,6938.888888888889
-0.43,-0.23,6941.666666666667
-0.415,-0.225,6944.444444444444
-0.41,-0.22,6947.222222222223
-0.405,-0.225,6950.0
-0.39,-0.225,6952.777777777777
-0.4,-0.22,6955.555555555556
-0.41,-0.23,6958.333333333333
-0.42,-0.24,6961.111111111111
-0.405,-0.255,6963.888888888889
-0.41,-0.25,6966.666666666667
-0.41,-0.245,6969.444444444444
-0.405,-0.245,6972.222222222223
-0.4,-0.235,6975.0
-0.395,-0.23,6977.777777777777
-0.39,-0.22,6980.555555555556
-0.385,-0.23,6983.333333333333
-0.39,-0.225,6986.111111111111
-0.395,-0.215,6988.888888888889
-0.4,-0.235,6991.666666666667
-0.41,-0.24,6994.444444444444
-0.435,-0.235,6997.222222222223
-0.42,-0.235,7000.0
-0.415,-0.225,7002.777777777777
-0.42,-0.23,7005.555555555556
-0.415,-0.215,7008.333333333333
-0.42,-0.195,7011.111111111111
-0.405,-0.19,7013.888888888889
-0.4,-0.19,7016.666666666667
-0.405,-0.195,7019.444444444444
-0.405,-0.185,7022.222222222223
-0.41,-0.19,7025.0
-0.42,-0.195,7027.777777777777
-0.405,-0.195,7030.555555555556
-0.41,-0.18,7033.333333333333
-0.41,-0.18,7036.111111111111
-0.395,-0.16,7038.888888888889
-0.395,-0.145,7041.666666666667
-0.39,-0.12,7044.444444444444
-0.37,-0.11,7047.222222222223
-0.355,-0.105,7050.0
-0.345,-0.1,7052.777777777777
-0.325,-0.08,7055.555555555556
-0.33,-0.085,7058.333333333333
-0.33,-0.08,7061.111111111111
-0.32,-0.08,7063.888888888889
-0.33,-0.06,7066.666666666667
-0.325,-0.04,7069.444444444444
-0.32,-0.04,7072.222222222223
-0.3,-0.02,7075.0
-0.29,-0.015,7077.777777777777
-0.275,-0.005,7080.555555555556
-0.26,0.005,7083.333333333333
-0.26,0.015,7086.111111111111
-0.255,0.02,7088.888888888889
-0.26,0.005,7091.666666666667
-0.27,0.02,7094.444444444444
-0.265,0.02,7097.222222222223
-0.27,0.02,7100.0
-0.27,0.03,7102.777777777777
-0.265,0.035,7105.555555555556
-0.26,0.035,7108.333333333333
-0.25,0.04,7111.111111111111
-0.26,0.045,7113.888888888889
-0.255,0.045,7116.666666666667
-0.255,0.025,7119.444444444444
-0.265,0.015,7122.222222222223
-0.28,-0.01,7125.0
-0.295,-0.035,7127.777777777777
-0.305,-0.045,7130.555555555556
-0.31,-0.055,7133.333333333333
-0.315,-0.065,7136.111111111111
-0.33,-0.07,7138.888888888889
-0.33,-0.08,7141.666666666667
-0.345,-0.09,7144.444444444444
-0.34,-0.09,7147.222222222223
-0.34,-0.105,7150.0
-0.34,-0.11,7152.777777777777
-0.34,-0.12,7155.555555555556
-0.335,-0.145,7158.333333333333
-0.35,-0.155,7161.111111111111
-0.36,-0.17,7163.888888888889
-0.385,-0.175,7166.666666666667
-0.395,-0.175,7169.444444444444
-0.395,-0.175,7172.222222222223
-0.38,-0.18,7175.0
-0.36,-0.175,7177.777777777777
-0.35,-0.175,7180.555555555556
-0.35,-0.175,7183.333333333333
-0.325,-0.175,7186.111111111111
-0.33,-0.19,7188.888888888889
-0.33,-0.19,7191.666666666667
-0.37,-0.205,7194.444444444444
-0.37,-0.205,7197.222222222223
-0.395,-0.215,7200.0
-0.38,-0.205,7202.777777777777
-0.375,-0.215,7205.555555555556
-0.375,-0.2,7208.333333333333
-0.385,-0.195,7211.111111111111
-0.355,-0.19,7213.888888888889
-0.34,-0.205,7216.666666666667
-0.32,-0.205,7219.444444444444
-0.315,-0.21,7222.222222222223
-0.32,-0.215,7225.0
-0.3,-0.215,7227.777777777777
-0.31,-0.215,7230.555555555556
-0.3,-0.23,7233.333333333333
-0.285,-0.215,7236.111111111111
-0.275,-0.22,7238.888888888889
-0.275,-0.22,7241.666666666667
-0.275,-0.215,7244.444444444444
-0.285,-0.22,7247.222222222223
-0.295,-0.215,7250.0
-0.285,-0.22,7252.777777777777
-0.285,-0.235,7255.555555555556
-0.3,-0.235,7258.333333333333
-0.275,-0.245,7261.111111111111
-0.29,-0.255,7263.888888888889
-0.285,-0.26,7266.666666666667
-0.285,-0.24,7269.444444444444
-0.29,-0.245,7272.222222222223
-0.27,-0.235,7275.0
-0.255,-0.225,7277.777777777777
-0.27,-0.23,7280.555555555556
-0.27,-0.22,7283.333333333333
-0.265,-0.24,7286.111111111111
-0.26,-0.24,7288.888888888889
-0.265,-0.25,7291.666666666667
-0.28,-0.265,7294.444444444444
-0.295,-0.27,7297.222222222223
-0.295,-0.265,7300.0
-0.295,-0.25,7302.777777777777
-0.3,-0.27,7305.555555555556
-0.29,-0.25,7308.333333333333
-0.28,-0.25,7311.111111111111
-0.265,-0.245,7313.888888888889
-0.255,-0.245,7316.666666666667
-0.27,-0.255,7319.444444444444
-0.26,-0.265,7322.222222222223
-0.26,-0.275,7325.0
-0.275,-0.29,7327.777777777777
-0.28,-0.285,7330.555555555556
-0.275,-0.29,7333.333333333333
-0.27,-0.285,7336.111111111111
-0.265,-0.295,7338.888888888889
-0.27,-0.275,7341.666666666667
-0.265,-0.285,7344.444444444444
-0.265,-0.27,7347.222222222223
-0.255,-0.265,7350.0
-0.255,-0.265,7352.777777777777
-0.255,-0.275,7355.555555555556
-0.255,-0.28,7358.333333333333
-0.26,-0.275,7361.111111111111
-0.25,-0.26,7363.888888888889
-0.25,-0.265,7366.666666666667
-0.235,-0.25,7369.444444444444
-0.22,-0.235,7372.222222222223
-0.195,-0.22,7375.0
-0.185,-0.205,7377.777777777777
-0.18,-0.195,7380.555555555556
-0.17,-0.185,7383.333333333333
-0.18,-0.195,7386.111111111111
-0.155,-0.185,7388.888888888889
-0.135,-0.19,7391.666666666667
-0.13,-0.19,7394.444444444444
-0.115,-0.185,7397.222222222223
-0.12,-0.19,7400.0
-0.125,-0.18,7402.777777777777
-0.13,-0.17,7405.555555555556
-0.135,-0.175,7408.333333333333
-0.15,-0.18,7411.111111111111
-0.155,-0.195,7413.888888888889
-0.165,-0.2,7416.666666666667
-0.165,-0.225,7419.444444444444
-0.17,-0.23,7422.222222222223
-0.185,-0.235,7425.0
-0.19,-0.245,7427.777777777777
-0.22,-0.245,7430.555555555556
-0.225,-0.245,7433.333333333333
-0.25,-0.25,7436.111111111111
-0.275,-0.255,7438.888888888889
-0.295,-0.255,7441.666666666667
-0.295,-0.25,7444.444444444444
-0.29,-0.245,7447.222222222223
-0.295,-0.26,7450.0
-0.275,-0.245,7452.777777777777
-0.28,-0.255,7455.555555555556
-0.315,-0.27,7458.333333333333
-0.32,-0.28,7461.111111111111
-0.335,-0.3,7463.888888888889
-0.35,-0.31,7466.666666666667
-0.355,-0.31,7469.444444444444
-0.335,-0.285,7472.222222222223
-0.33,-0.28,7475.0
-0.31,-0.26,7477.777777777777
-0.295,-0.245,7480.555555555556
-0.29,-0.245,7483.333333333333
-0.29,-0.235,7486.111111111111
-0.28,-0.225,7488.888888888889
-0.27,-0.225,7491.666666666667
-0.28,-0.22,7494.444444444444
-0.265,-0.225,7497.222222222223
-0.255,-0.2,7500.0
-0.26,-0.18,7502.777777777777
-0.255,-0.17,7505.555555555556
-0.245,-0.145,7508.333333333333
-0.235,-0.12,7511.111111111111
-0.22,-0.1,7513.888888888889
-0.195,-0.065,7516.666666666667
-0.18,-0.06,7519.444444444444
-0.155,-0.04,7522.222222222223
-0.135,-0.035,7525.0
-0.12,-0.02,7527.777777777777
-0.09,-0.005,7530.555555555556
-0.06,0.005,7533.333333333333
-0.035,0.02,7536.111111111111
0.005,0.035,7538.888888888889
0.035,0.08,7541.666666666667
0.08,0.1,7544.444444444444
0.15,0.155,7547.222222222223
0.22,0.235,7550.0
0.35,0.3,7552.777777777777
0.51,0.39,7555.555555555556
0.69,0.505,7558.333333333333
0.905,0.615,7561.111111111111
1.115,0.735,7563.888888888889
1.355,0.85,7566.666666666667
1.545,0.905,7569.444444444444
1.7,0.9,7572.222222222223
1.755,0.8,7575.0
1.695,0.62,7577.777777777777
1.52,0.43,7580.555555555556
1.195,0.225,7583.333333333333
0.755,0.055,7586.111111111111
0.215,-0.09,7588.888888888889
-0.37,-0.21,7591.666666666667
-0.895,-0.325,7594.444444444444
-1.27,-0.425,7597.222222222223
-1.42,-0.525,7600.0
-1.38,-0.56,7602.777777777777
-1.195,-0.58,7605.555555555556
-0.945,-0.56,7608.333333333333
-0.72,-0.52,7611.111111111111
-0.545,-0.455,7613.888888888889
-0.455,-0.4,7616.666666666667
-0.415,-0.335,7619.444444444444
-0.41,-0.29,7622.222222222223
-0.45,-0.255,7625.0
-0.475,-0.25,7627.777777777777
-0.495,-0.25,7630.555555555556
-0.505,-0.25,7633.333333333333
-0.505,-0.255,7636.111111111111
-0.495,-0.245,7638.888888888889
-0.48,-0.24,7641.666666666667
-0.475,-0.225,7644.444444444444
-0.47,-0.23,7647.222222222223
-0.465,-0.22,7650.0
-0.46,-0.225,7652.777777777777
-0.445,-0.22,7655.555555555556
-0.455,-0.225,7658.333333333333
-0.445,-0.23,7661.111111111111
-0.455,-0.23,7663.888888888889
-0.45,-0.235,7666.666666666667
-0.445,-0.23,7669.444444444444
-0.45,-0.215,7672.222222222223
-0.435,-0.2,7675.0
-0.44,-0.2,7677.777777777777
-0.43,-0.195,7680.555555555556
-0.42,-0.19,7683.333333333333
-0.415,-0.2,7686.111111111111
-0.415,-0.195,7688.888888888889
-0.425,-0.205,7691.666666666667
-0.415,-0.2,7694.444444444444
-0.425,-0.215,7697.222222222223
-0.43,-0.2,7700.0
-0.42,-0.2,7702.777777777777
-0.415,-0.195,7705.555555555556
-0.405,-0.18,7708.333333333333
-0.395,-0.18,7711.111111111111
-0.38,-0.17,7713.888888888889
-0.38,-0.17,7716.666666666667
-0.37,-0.175,7719.444444444444
-0.37,-0.17,7722.222222222223
-0.37,-0.165,7725.0
-0.36,-0.17,7727.777777777777
-0.365,-0.17,7730.555555555556
-0.355,-0.155,7733.333333333333
-0.34,-0.145,7736.111111111111
-0.33,-0.125,7738.888888888889
-0.315,-0.11,7741.666666666667
-0.3,-0.095,7744.444444444444
-0.295,-0.09,7747.222222222223
-0.28,-0.06,7750.0
-0.27,-0.055,7752.777777777777
-0.255,-0.07,7755.555555555556
-0.255,-0.05,7758.333333333333
-0.245,-0.04,7761.111111111111
-0.245,-0.04,7763.888888888889
-0.225,-0.045,7766.666666666667
-0.21,-0.03,7769.444444444444
-0.2,-0.015,7772.222222222223
-0.2,0.015,7775.0
-0.195,0.01,7777.777777777777
-0.18,0.035,7780.555555555556
-0.16,0.035,7783.333333333333
-0.15,0.04,7786.111111111111
-0.155,0.035,7788.888888888889
-0.16,0.04,7791.666666666667
-0.16,0.055,7794.444444444444
-0.145,0.05,7797.222222222223
-0.15,0.055,7800.0
-0.165,0.08,7802.777777777777
-0.175,0.09,7805.555555555556
-0.185,0.1,7808.333333333333
-0.18,0.11,7811.111111111111
-0.19,0.105,7813.888888888889
-0.19,0.12,7816.666666666667
-0.205,0.12,7819.444444444444
-0.21,0.115,7822.222222222223
-0.22,0.095,7825.0
-0.24,0.09,7827.777777777777
-0.245,0.075,7830.555555555556
-0.25,0.065,7833.333333333333
-0.25,0.06,7836.111111111111
-0.25,0.04,7838.888888888889
-0.265,0.035,7841.666666666667
-0.26,0.025,7844.444444444444
-0.28,0.01,7847.222222222223
-0.285,0.005,7850.0
-0.295,-0.02,7852.777777777777
-0.32,-0.05,7855.555555555556
-0.32,-0.055,7858.333333333333
-0.335,-0.09,7861.111111111111
-0.345,-0.095,7863.888888888889
-0.35,-0.125,7866.666666666667
-0.36,-0.14,7869.444444444444
-0.37,-0.14,7872.222222222223
-0.375,-0.145,7875.0
-0.38,-0.155,7877.777777777777
-0.38,-0.155,7880.555555555556
-0.385,-0.16,7883.333333333333
-0.395,-0.17,7886.111111111111
-0.4,-0.185,7888.888888888889
-0.41,-0.205,7891.666666666667
-0.41,-0.205,7894.444444444444
-0.425,-0.225,7897.222222222223
-0.43,-0.22,7900.0
-0.435,-0.205,7902.777777777777
-0.43,-0.215,7905.555555555556
-0.43,-0.215,7908.333333333333
-0.43,-0.205,7911.111111111111
-0.425,-0.205,7913.888888888889
-0.41,-0.205,7916.666666666667
-0.385,-0.2,7919.444444444444
-0.385,-0.21,7922.222222222223
-0.38,-0.215,7925.0
-0.39,-0.21,7927.777777777777
-0.395,-0.22,7930.555555555556
-0.405,-0.23,7933.333333333333
-0.425,-0.21,7936.111111111111
-0.43,-0.215,7938.888888888889
-0.425,-0.21,7941.666666666667
-0.42,-0.195,7944.444444444444
-0.41,-0.2,7947.222222222223
-0.405,-0.19,7950.0
-0.415,-0.21,7952.777777777777
-0.41,-0.2,7955.555555555556
-0.425,-0.215,7958.333333333333
-0.445,-0.215,7961.111111111111
-0.45,-0.23,7963.888888888889
-0.475,-0.235,7966.666666666667
-0.49,-0.23,7969.444444444444
-0.5,-0.235,7972.222222222223
-0.475,-0.225,7975.0
-0.485,-0.225,7977.777777777777
-0.475,-0.21,7980.555555555556
-0.46,-0.215,7983.333333333333
-0.47,-0.23,7986.111111111111
-0.47,-0.23,7988.888888888889
-0.47,-0.25,7991.666666666667
-0.465,-0.25,7994.444444444444
-0.475,-0.27,7997.222222222223
-0.45,-0.265,8000.0
-0.45,-0.265,8002.777777777777
-0.445,-0.27,8005.555555555556
-0.45,-0.255,8008.333333333333
-0.45,-0.26,8011.111111111111
-0.43,-0.25,8013.888888888889
-0.43,-0.255,8016.666666666667
-0.415,-0.265,8019.444444444444
-0.42,-0.26,8022.222222222223
-0.4,-0.26,8025.0
-0.395,-0.27,8027.777777777777
-0.405,-0.275,8030.555555555556
-0.4,-0.28,8033.333333333333
-0.39,-0.28,8036.111111111111
-0.4,-0.27,8038.888888888889
-0.38,-0.28,8041.666666666667
-0.375,-0.275,8044.444444444444
-0.375,-0.265,8047.222222222223
-0.365,-0.27,8050.0
-0.355,-0.27,8052.777777777777
-0.36,-0.27,8055.555555555556
-0.365,-0.28,8058.333333333333
-0.365,-0.28,8061.111111111111
-0.38,-0.29,8063.888888888889
-0.39,-0.29,8066.666666666667
-0.39,-0.27,8069.444444444444
-0.4,-0.27,8072.222222222223
-0.375,-0.255,8075.0
-0.355,-0.245,8077.777777777777
-0.37,-0.23,8080.555555555556
-0.33,-0.23,8083.333333333333
-0.33,-0.225,8086.111111111111
-0.315,-0.22,8088.888888888889
-0.33,-0.215,8091.666666666667
-0.325,-0.21,8094.444444444444
-0.33,-0.2,8097.222222222223
-0.32,-0.2,8100.0
-0.325,-0.195,8102.777777777777
-0.31,-0.175,8105.555555555556
-0.29,-0.17,8108.333333333333
-0.28,-0.165,8111.111111111111
-0.26,-0.14,8113.888888888889
-0.255,-0.145,8116.666666666667
-0.255,-0.13,8119.444444444444
-0.255,-0.135,8122.222222222223
-0.265,-0.135,8125.0
-0.27,-0.15,8127.777777777777
-0.28,-0.165,8130.555555555556
-0.29,-0.18,8133.333333333333
-0.3,-0.2,8136.111111111111
-0.3,-0.195,8138.888888888889
-0.305,-0.195,8141.666666666667
-0.305,-0.185,8144.444444444444
-0.305,-0.18,8147.222222222223
-0.31,-0.185,8150.0
-0.34,-0.21,8152.777777777777
-0.355,-0.205,8155.555555555556
-0.345,-0.215,8158.333333333333
-0.365,-0.24,8161.111111111111
-0.37,-0.25,8163.888888888889
-0.385,-0.24,8166.666666666667
-0.405,-0.245,8169.444444444444
-0.41,-0.24,8172.222222222223
-0.43,-0.25,8175.0
-0.445,-0.255,8177.777777777777
-0.45,-0.26,8180.555555555556
-0.44,-0.28,8183.333333333333
-0.45,-0.275,8186.111111111111
-0.445,-0.275,8188.888888888889
-0.43,-0.29,8191.666666666667
-0.43,-0.29,8194.444444444445
-0.43,-0.295,8197.222222222223
-0.425,-0.295,8200.0
-0.425,-0.285,8202.777777777777
-0.4,-0.28,8205.555555555555
-0.385,-0.255,8208.333333333334
-0.355,-0.24,8211.111111111111
-0.335,-0.225,8213.888888888889
-0.31,-0.205,8216.666666666666
-0.29,-0.205,8219.444444444445
-0.265,-0.185,8222.222222222223
-0.26,-0.17,8225.0
-0.245,-0.17,8227.777777777777
-0.23,-0.155,8230.555555555555
-0.21,-0.13,8233.333333333334
-0.19,-0.12,8236.111111111111
-0.17,-0.08,8238.888888888889
-0.125,-0.06,8241.666666666666
-0.09,-0.035,8244.444444444445
-0.065,-0.02,8247.222222222223
-0.02,0.01,8250.0
0.025,0.015,8252.777777777777
0.06,0.035,8255.555555555555
0.08,0.05,8258.333333333334
0.105,0.06,8261.111111111111
0.145,0.1,8263.888888888889
0.21,0.14,8266.666666666666
0.28,0.21,8269.444444444445
0.4,0.29,8272.222222222223
0.545,0.39,8275.0
0.73,0.51,8277.777777777777
0.935,0.63,8280.555555555555
1.155,0.76,8283.333333333334
1.375,0.855,8286.111111111111
1.57,0.91,8288.888888888889
1.71,0.875,8291.666666666666
1.77,0.775,8294.444444444445
1.72,0.58,8297.222222222223
1.545,0.365,8300.0
1.215,0.17,8302.777777777777
0.755,0.015,8305.555555555555
0.225,-0.1,8308.333333333334
-0.335,-0.195,8311.111111111111
-0.84,-0.295,8313.888888888889
-1.185,-0.385,8316.666666666666
-1.305,-0.485,8319.444444444445
-1.255,-0.55,8322.222222222223
-1.1,-0.59,8325.0
-0.895,-0.59,8327.777777777777
-0.71,-0.55,8330.555555555555
-0.57,-0.47,8333.333333333334
-0.475,-0.405,8336.111111111111
-0.46,-0.33,8338.888888888889
-0.44,-0.27,8341.666666666666
-0.46,-0.235,8344.444444444445
-0.475,-0.21,8347.222222222223
-0.505,-0.2,8350.0
-0.505,-0.21,8352.777777777777
-0.52,-0.205,8355.555555555555
-0.515,-0.215,8358.333333333334
-0.51,-0.22,8361.111111111111
-0.505,-0.225,8363.888888888889
-0.5,-0.22,8366.666666666666
-0.485,-0.215,8369.444444444445
-0.49,-0.205,8372.222222222223
-0.49,-0.195,8375.0
-0.48,-0.2,8377.777777777777
-0.47,-0.185,8380.555555555555
-0.475,-0.165,8383.333333333334
-0.465,-0.18,8386.111111111111
-0.475,-0.18,8388.888888888889
-0.47,-0.18,8391.666666666666
-0.475,-0.19,8394.444444444445
-0.465,-0.195,8397.222222222223
-0.465,-0.195,8400.0
-0.46,-0.175,8402.777777777777
-0.47,-0.185,8405.555555555555
-0.46,-0.17,8408.333333333334
-0.445,-0.155,8411.111111111111
-0.44,-0.16,8413.888888888889
-0.425,-0.16,8416.666666666666
-0.41,-0.15,8419.444444444445
-0.415,-0.145,8422.222222222223
-0.395,-0.14,8425.0
-0.41,-0.145,8427.777777777777
-0.42,-0.14,8430.555555555555
-0.425,-0.145,8433.333333333334
-0.435,-0.14,8436.111111111111
-0.44,-0.135,8438.888888888889
-0.425,-0.14,8441.666666666666
-0.415,-0.11,8444.444444444445
-0.4,-0.1,8447.222222222223
-0.38,-0.09,8450.0
-0.37,-0.095,8452.777777777777
-0.37,-0.085,8455.555555555555
-0.385,-0.09,8458.333333333334
-0.385,-0.075,8461.111111111111
-0.39,-0.07,8463.888888888889
-0.395,-0.075,8466.666666666666
-0.395,-0.075,8469.444444444445
-0.395,-0.065,8472.222222222223
-0.39,-0.055,8475.0
-0.38,-0.025,8477.777777777777
-0.365,-0.015,8480.555555555555
-0.355,0.0,8483.333333333334
-0.35,0.0,8486.111111111111
-0.33,0.025,8488.888888888889
-0.32,0.025,8491.666666666666
-0.305,0.035,8494.444444444445
-0.29,0.04,8497.222222222223
-0.29,0.035,8500.0
-0.275,0.05,8502.777777777777
-0.285,0.065,8505.555555555555
-0.27,0.085,8508.333333333334
-0.265,0.1,8511.111111111111
-0.26,0.1,8513.888888888889
-0.26,0.12,8516.666666666666
-0.265,0.11,8519.444444444445
-0.26,0.12,8522.222222222223
-0.255,0.11,8525.0
-0.26,0.11,8527.777777777777
-0.235,0.12,8530.555555555555
-0.24,0.115,8533.333333333334
-0.24,0.12,8536.111111111111
-0.245,0.105,8538.888888888889
-0.23,0.125,8541.666666666666
-0.22,0.125,8544.444444444445
-0.21,0.13,8547.222222222223
-0.195,0.12,8550.0
-0.195,0.11,8552.777777777777
-0.2,0.1,8555.555555555555
-0.215,0.085,8558.333333333334
-0.225,0.06,8561.111111111111
-0.24,0.035,8563.888888888889
-0.255,0.02,8566.666666666666
-0.29,0.01,8569.444444444445
-0.295,-0.015,8572.222222222223
-0.295,-0.03,8575.0
-0.285,-0.045,8577.777777777777
-0.295,-0.045,8580.555555555555
-0.265,-0.06,8583.333333333334
-0.28,-0.085,8586.111111111111
-0.295,-0.095,8588.888888888889
-0.315,-0.125,8591.666666666666
-0.335,-0.125,8594.444444444445
-0.34,-0.145,8597.222222222223
-0.34,-0.16,8600.0
-0.33,-0.155,8602.777777777777
-0.325,-0.17,8605.555555555555
-0.31,-0.165,8608.333333333334
-0.31,-0.15,8611.111111111111
-0.29,-0.155,8613.888888888889
-0.29,-0.16,8616.666666666666
-0.305,-0.17,8619.444444444445
-0.295,-0.17,8622.222222222223
-0.3,-0.17,8625.0
-0.3,-0.18,8627.777777777777
-0.29,-0.18,8630.555555555555
-0.285,-0.195,8633.333333333334
-0.3,-0.18,8636.111111111111
-0.3,-0.185,8638.888888888889
-0.28,-0.18,8641.666666666666
-0.28,-0.17,8644.444444444445
-0.275,-0.175,8647.222222222223
-0.265,-0.165,8650.0
-0.255,-0.165,8652.777777777777
-0.25,-0.17,8655.555555555555
-0.225,-0.185,8658.333333333334
-0.23,-0.175,8661.111111111111
-0.235,-0.195,8663.888888888889
-0.245,-0.205,8666.666666666666
-0.235,-0.195,8669.444444444445
-0.23,-0.185,8672.222222222223
-0.22,-0.175,8675.0
-0.225,-0.185,8677.777777777777
-0.22,-0.17,8680.555555555555
-0.2,-0.16,8683.333333333334
-0.195,-0.175,8686.111111111111
-0.195,-0.175,8688.888888888889
-0.205,-0.205,8691.666666666666
-0.22,-0.21,8694.444444444445
-0.23,-0.215,8697.222222222223
-0.25,-0.215,8700.0
-0.265,-0.22,8702.777777777777
-0.27,-0.22,8705.555555555555
-0.26,-0.205,8708.333333333334
-0.26,-0.205,8711.111111111111
-0.27,-0.2,8713.888888888889
-0.255,-0.195,8716.666666666666
-0.27,-0.195,8719.444444444445
-0.26,-0.21,8722.222222222223
-0.28,-0.215,8725.0
-0.29,-0.22,8727.777777777777
-0.31,-0.225,8730.555555555555
-0.31,-0.23,8733.333333333334
-0.32,-0.23,8736.111111111111
-0.32,-0.23,8738.888888888889
-0.315,-0.225,8741.666666666666
-0.32,-0.215,8744.444444444445
-0.305,-0.2,8747.222222222223
-0.31,-0.205,8750.0
-0.305,-0.215,8752.777777777777
-0.315,-0.21,8755.555555555555
-0.33,-0.23,8758.333333333334
-0.33,-0.22,8761.111111111111
-0.335,-0.235,8763.888888888889
-0.35,-0.235,8766.666666666666
-0.35,-0.235,8769.444444444445
-0.355,-0.22,8772.222222222223
-0.345,-0.205,8775.0
-0.35,-0.215,8777.777777777777
-0.35,-0.205,8780.555555555555
-0.34,-0.2,8783.333333333334
-0.345,-0.215,8786.111111111111
-0.335,-0.21,8788.888888888889
-0.355,-0.215,8791.666666666666
-0.355,-0.215,8794.444444444445
-0.35,-0.21,8797.222222222223
-0.35,-0.205,8800.0
-0.365,-0.2,8802.777777777777
-0.36,-0.185,8805.555555555555
-0.35,-0.18,8808.333333333334
-0.34,-0.15,8811.111111111111
-0.325,-0.125,8813.888888888889
-0.32,-0.12,8816.666666666666
-0.31,-0.12,8819.444444444445
-0.305,-0.115,8822.222222222223
-0.31,-0.115,8825.0
-0.31,-0.13,8827.777777777777
-0.305,-0.13,8830.555555555555
-0.31,-0.12,8833.333333333334
-0.305,-0.12,8836.111111111111
-0.3,-0.1,8838.888888888889
-0.29,-0.1,8841.666666666666
-0.295,-0.095,8844.444444444445
-0.295,-0.11,8847.222222222223
-0.3,-0.11,8850.0
-0.315,-0.13,8852.777777777777
-0.335,-0.155,8855.555555555555
-0.34,-0.165,8858.333333333334
-0.36,-0.19,8861.111111111111
-0.365,-0.19,8863.888888888889
-0.375,-0.2,8866.666666666666
-0.38,-0.21,8869.444444444445
-0.39,-0.21,8872.222222222223
-0.41,-0.215,8875.0
-0.415,-0.225,8877.777777777777
-0.415,-0.215,8880.555555555555
-0.415,-0.215,8883.333333333334
-0.42,-0.21,8886.111111111111
-0.41,-0.23,8888.888888888889
-0.44,-0.225,8891.666666666666
-0.44,-0.245,8894.444444444445
-0.47,-0.265,8897.222222222223
-0.48,-0.28,8900.0
-0.48,-0.285,8902.777777777777
-0.485,-0.275,8905.555555555555
-0.485,-0.275,8908.333333333334
-0.48,-0.28,8911.111111111111
-0.475,-0.26,8913.888888888889
-0.46,-0.245,8916.666666666666
-0.44,-0.25,8919.444444444445
-0.435,-0.245,8922.222222222223
-0.425,-0.25,8925.0
-0.42,-0.25,8927.777777777777
-0.415,-0.23,8930.555555555555
-0.41,-0.22,8933.333333333334
-0.395,-0.205,8936.111111111111
-0.395,-0.185,8938.888888888889
-0.375,-0.165,8941.666666666666
-0.35,-0.135,8944.444444444445
-0.33,-0.115,8947.222222222223
-0.305,-0.095,8950.0
-0.27,-0.08,8952.777777777777
-0.25,-0.055,8955.555555555555
-0.235,-0.04,8958.333333333334
-0.21,-0.025,8961.111111111111
-0.18,0.0,8963.888888888889
-0.145,0.015,8966.666666666666
-0.115,0.035,8969.444444444445
-0.07,0.065,8972.222222222223
-0.015,0.09,8975.0
0.035,0.125,8977.777777777777
0.075,0.16,8980.555555555555
0.12,0.225,8983.333333333334
0.195,0.27,8986.111111111111
0.3,0.35,8988.888888888889
0.44,0.44,8991.666666666666
0.605,0.535,8994.444444444445
0.81,0.66,8997.222222222223
1.04,0.8,9000.0
1.28,0.92,9002.777777777777
1.48,0.995,9005.555555555555
1.64,0.975,9008.333333333334
1.7,0.85,9011.111111111111
1.665,0.655,9013.888888888889
1.485,0.43,9016.666666666666
1.16,0.19,9019.444444444445
0.705,0.01,9022.222222222223
0.155,-0.145,9025.0
-0.415,-0.255,9027.777777777777
-0.915,-0.37,9030.555555555555
-1.25,-0.455,9033.333333333334
-1.35,-0.53,9036.111111111111
-1.27,-0.565,9038.888888888889
-1.05,-0.58,9041.666666666666
-0.815,-0.555,9044.444444444445
-0.585,-0.5,9047.222222222223
-0.39,-0.43,9050.0
-0.295,-0.35,9052.777777777777
-0.235,-0.29,9055.555555555555
-0.245,-0.225,9058.333333333334
-0.28,-0.22,9061.111111111111
-0.31,-0.22,9063.888888888889
-0.355,-0.21,9066.666666666666
-0.37,-0.215,9069.444444444445
-0.38,-0.225,9072.222222222223
-0.355,-0.215,9075.0
-0.345,-0.21,9077.777777777777
-0.34,-0.185,9080.555555555555
-0.33,-0.185,9083.333333333334
-0.34,-0.185,9086.111111111111
-0.34,-0.19,9088.888888888889
-0.355,-0.2,9091.666666666666
-0.37,-0.21,9094.444444444445
-0.38,-0.23,9097.222222222223
-0.4,-0.225,9100.0
-0.41,-0.205,9102.777777777777
-0.395,-0.22,9105.555555555555
-0.405,-0.195,9108.333333333334
-0.405,-0.2,9111.111111111111
-0.41,-0.185,9113.888888888889
-0.42,-0.175,9116.666666666666
-0.43,-0.185,9119.444444444445
-0.445,-0.185,9122.222222222223
-0.455,-0.18,9125.0
-0.47,-0.185,9127.777777777777
-0.485,-0.19,9130.555555555555
-0.49,-0.195,9133.333333333334
-0.485,-0.185,9136.111111111111
-0.475,-0.185,9138.888888888889
-0.48,-0.19,9141.666666666666
-0.48,-0.17,9144.444444444445
-0.48,-0.165,9147.222222222223
-0.47,-0.165,9150.0
-0.475,-0.16,9152.777777777777
-0.475,-0.165,9155.555555555555
-0.475,-0.165,9158.333333333334
-0.495,-0.175,9161.111111111111
-0.5,-0.17,9163.888888888889
-0.505,-0.175,9166.666666666666
-0.505,-0.175,9169.444444444445
-0.51,-0.16,9172.222222222223
-0.5,-0.15,9175.0
-0.48,-0.135,9177.777777777777
-0.46,-0.115,9180.555555555555
-0.445,-0.1,9183.333333333334
-0.435,-0.105,9186.111111111111
-0.425,-0.095,9188.888888888889
-0.425,-0.09,9191.666666666666
-0.435,-0.09,9194.444444444445
-0.445,-0.095,9197.222222222223
-0.45,-0.09,9200.0
-0.445,-0.08,9202.777777777777
-0.455,-0.07,9205.555555555555
-0.445,-0.05,9208.333333333334
-0.435,-0.04,9211.111111111111
-0.425,-0.025,9213.888888888889
-0.42,-0.01,9216.666666666666
-0.405,0.0,9219.444444444445
-0.405,0.0,9222.222222222223
-0.395,0.015,9225.0
-0.415,0.01,9227.777777777777
-0.415,0.015,9230.555555555555
-0.415,0.02,9233.333333333334
-0.425,0.035,9236.111111111111
-0.425,0.035,9238.888888888889
-0.415,0.045,9241.666666666666
-0.415,0.05,9244.444444444445
-0.4,0.065,9247.222222222223
-0.4,0.065,9250.0
-0.395,0.07,9252.777777777777
-0.39,0.08,9255.555555555555
-0.395,0.055,9258.333333333334
-0.39,0.05,9261.111111111111
-0.39,0.04,9263.888888888889
-0.4,0.045,9266.666666666666
-0.385,0.04,9269.444444444445
-0.39,0.035,9272.222222222223
-0.385,0.035,9275.0
-0.385,0.025,9277.777777777777
-0.385,0.005,9280.555555555555
-0.375,0.0,9283.333333333334
-0.385,-0.015,9286.111111111111
-0.39,-0.03,9288.888888888889
-0.375,-0.055,9291.666666666666
-0.385,-0.085,9294.444444444445
-0.395,-0.11,9297.222222222223
-0.385,-0.12,9300.0
-0.4,-0.135,9302.777777777777
-0.4,-0.145,9305.555555555555
-0.38,-0.15,9308.333333333334
-0.38,-0.14,9311.111111111111
-0.385,-0.155,9313.888888888889
-0.365,-0.155,9316.666666666666
-0.365,-0.155,9319.444444444445
-0.37,-0.165,9322.222222222223
-0.36,-0.18,9325.0
-0.365,-0.19,9327.777777777777
-0.365,-0.2,9330.555555555555
-0.37,-0.2,9333.333333333334
-0.38,-0.19,9336.111111111111
-0.385,-0.2,9338.888888888889
-0.395,-0.175,9341.666666666666
-0.385,-0.19,9344.444444444445
-0.385,-0.17,9347.222222222223
-0.365,-0.175,9350.0
-0.355,-0.175,9352.777777777777
-0.365,-0.175,9355.555555555555
-0.375,-0.185,9358.333333333334
-0.36,-0.19,9361.111111111111
-0.36,-0.2,9363.888888888889
-0.375,-0.2,9366.666666666666
-0.37,-0.205,9369.444444444445
-0.365,-0.195,9372.222222222223
-0.365,-0.195,9375.0
-0.35,-0.18,9377.777777777777
-0.35,-0.175,9380.555555555555
-0.355,-0.18,9383.333333333334
-0.345,-0.18,9386.111111111111
-0.34,-0.185,9388.888888888889
-0.34,-0.185,9391.666666666666
-0.335,-0.195,9394.444444444445
-0.345,-0.2,9397.222222222223
-0.345,-0.21,9400.0
-0.36,-0.205,9402.777777777777
-0.365,-0.21,9405.555555555555
-0.36,-0.2,9408.333333333334
-0.37,-0.21,9411.111111111111
-0.37,-0.185,9413.888888888889
-0.37,-0.185,9416.666666666666
-0.36,-0.195,9419.444444444445
-0.355,-0.195,9422.222222222223
-0.37,-0.21,9425.0
-0.37,-0.215,9427.777777777777
-0.385,-0.21,9430.555555555555
-0.395,-0.24,9433.333333333334
-0.385,-0.235,9436.111111111111
-0.405,-0.24,9438.888888888889
-0.4,-0.22,9441.666666666666
-0.39,-0.225,9444.444444444445
-0.39,-0.225,9447.222222222223
-0.38,-0.225,9450.0
-0.38,-0.23,9452.777777777777
-0.385,-0.235,9455.555555555555
-0.385,-0.255,9458.333333333334
-0.395,-0.25,9461.111111111111
-0.405,-0.265,9463.888888888889
-0.41,-0.27,9466.666666666666
-0.425,-0.27,9469.444444444445
-0.435,-0.275,9472.222222222223
-0.435,-0.26,9475.0
-0.42,-0.26,9477.777777777777
-0.41,-0.255,9480.555555555555
-0.395,-0.26,9483.333333333334
-0.39,-0.25,9486.111111111111
-0.38,-0.26,9488.888888888889
-0.4,-0.275,9491.666666666666
-0.41,-0.275,9494.444444444445
-0.4,-0.28,9497.222222222223
-0.415,-0.29,9500.0
-0.4,-0.285,9502.777777777777
-0.42,-0.275,9505.555555555555
-0.4,-0.27,9508.333333333334
-0.39,-0.265,9511.111111111111
-0.37,-0.25,9513.888888888889
-0.36,-0.235,9516.666666666666
-0.36,-0.225,9519.444444444445
-0.35,-0.23,9522.222222222223
-0.335,-0.225,9525.0
-0.335,-0.215,9527.777777777777
-0.325,-0.22,9530.555555555555
-0.335,-0.21,9533.333333333334
-0.315,-0.21,9536.111111111111
-0.315,-0.2,9538.888888888889
-0.295,-0.19,9541.666666666666
-0.275,-0.175,9544.444444444445
-0.275,-0.17,9547.222222222223
-0.25,-0.16,9550.0
-0.245,-0.16,9552.777777777777
-0.245,-0.15,9555.555555555555
-0.245,-0.175,9558.333333333334
-0.275,-0.2,9561.111111111111
-0.295,-0.215,9563.888888888889
-0.31,-0.23,9566.666666666666
-0.32,-0.245,9569.444444444445
-0.33,-0.245,9572.222222222223
-0.33,-0.235,9575.0
-0.325,-0.24,9577.777777777777
-0.345,-0.215,9580.555555555555
-0.345,-0.22,9583.333333333334
-0.355,-0.245,9586.111111111111
-0.37,-0.24,9588.888888888889
-0.385,-0.26,9591.666666666666
-0.395,-0.28,9594.444444444445
-0.41,-0.275,9597.222222222223
-0.415,-0.28,9600.0
-0.435,-0.275,9602.777777777777
-0.44,-0.285,9605.555555555555
-0.45,-0.285,9608.333333333334
-0.48,-0.285,9611.111111111111
-0.485,-0.29,9613.888888888889
-0.495,-0.295,9616.666666666666
-0.495,-0.3,9619.444444444445
-0.5,-0.31,9622.222222222223
-0.505,-0.3,9625.0
-0.495,-0.305,9627.777777777777
-0.495,-0.305,9630.555555555555
-0.485,-0.3,9633.333333333334
-0.49,-0.285,9636.111111111111
-0.495,-0.28,9638.888888888889
-0.475,-0.245,9641.666666666666
-0.46,-0.25,9644.444444444445
-0.44,-0.225,9647.222222222223
-0.435,-0.205,9650.0
-0.425,-0.19,9652.777777777777
-0.4,-0.175,9655.555555555555
-0.4,-0.18,9658.333333333334
-0.38,-0.16,9661.111111111111
-0.365,-0.155,9663.888888888889
-0.35,-0.14,9666.666666666666
-0.325,-0.115,9669.444444444445
-0.295,-0.09,9672.222222222223
-0.26,-0.06,9675.0
-0.23,-0.04,9677.777777777777
-0.175,-0.015,9680.555555555555
-0.135,0.0,9683.333333333334
-0.085,0.005,9686.111111111111
-0.045,0.005,9688.888888888889
-0.005,0.025,9691.666666666666
0.04,0.035,9694.444444444445
0.08,0.055,9697.222222222223
0.12,0.095,9700.0
0.185,0.13,9702.777777777777
0.26,0.19,9705.555555555555
0.395,0.26,9708.333333333334
0.55,0.375,9711.111111111111
0.76,0.48,9713.888888888889
0.98,0.62,9716.666666666666
1.225,0.75,9719.444444444445
1.465,0.875,9722.222222222223
1.68,0.975,9725.0
1.84,0.995,9727.777777777777
1.92,0.94,9730.555555555555
1.91,0.82,9733.333333333334
1.765,0.655,9736.111111111111
1.46,0.47,9738.888888888889
1.04,0.3,9741.666666666666
0.535,0.17,9744.444444444445
-0.03,0.045,9747.222222222223
-0.565,-0.07,9750.0
-0.985,-0.195,9752.777777777777
-1.235,-0.33,9755.555555555555
-1.305,-0.46,9758.333333333334
-1.22,-0.55,9761.111111111111
-1.045,-0.59,9763.888888888889
-0.87,-0.59,9766.666666666666
-0.685,-0.545,9769.444444444445
-0.555,-0.49,9772.222222222223
-0.48,-0.395,9775.0
-0.43,-0.33,9777.777777777777
-0.425,-0.265,9780.555555555555
-0.435,-0.225,9783.333333333334
-0.45,-0.22,9786.111111111111
-0.465,-0.225,9788.888888888889
-0.475,-0.23,9791.666666666666
-0.48,-0.25,9794.444444444445
-0.485,-0.265,9797.222222222223
-0.49,-0.26,9800.0
-0.49,-0.27,9802.777777777777
-0.495,-0.265,9805.555555555555
-0.505,-0.255,9808.333333333334
-0.51,-0.26,9811.111111111111
-0.49,-0.245,9813.888888888889
-0.49,-0.245,9816.666666666666
-0.48,-0.24,9819.444444444445
-0.48,-0.25,9822.222222222223
-0.475,-0.23,9825.0
-0.48,-0.24,9827.777777777777
-0.48,-0.26,9830.555555555555
-0.495,-0.25,9833.333333333334
-0.495,-0.255,9836.111111111111
-0.49,-0.24,9838.888888888889
-0.495,-0.25,9841.666666666666
-0.485,-0.23,9844.444444444445
-0.475,-0.225,9847.222222222223
-0.475,-0.22,9850.0
-0.465,-0.215,9852.777777777777
-0.46,-0.23,9855.555555555555
-0.46,-0.24,9858.333333333334
-0.465,-0.24,9861.111111111111
-0.465,-0.255,9863.888888888889
-0.475,-0.26,9866.666666666666
-0.48,-0.265,9869.444444444445
-0.485,-0.25,9872.222222222223
-0.475,-0.25,9875.0
-0.475,-0.245,9877.777777777777
-0.47,-0.23,9880.555555555555
-0.445,-0.235,9883.333333333334
-0.45,-0.23,9886.111111111111
-0.425,-0.235,9888.888888888889
-0.43,-0.235,9891.666666666666
-0.44,-0.255,9894.444444444445
-0.43,-0.265,9897.222222222223
-0.42,-0.255,9900.0
-0.42,-0.25,9902.777777777777
-0.42,-0.24,9905.555555555555
-0.41,-0.23,9908.333333333334
-0.395,-0.225,9911.111111111111
-0.38,-0.21,9913.888888888889
-0.365,-0.19,9916.666666666666
-0.35,-0.195,9919.444444444445
-0.345,-0.19,9922.222222222223
-0.335,-0.19,9925.0
-0.34,-0.2,9927.777777777777
-0.35,-0.185,9930.555555555555
-0.335,-0.185,9933.333333333334
-0.325,-0.175,9936.111111111111
-0.32,-0.16,9938.888888888889
-0.32,-0.145,9941.666666666666
-0.31,-0.135,9944.444444444445
-0.305,-0.115,9947.222222222223
-0.3,-0.11,9950.0
-0.285,-0.105,9952.777777777777
-0.28,-0.1,9955.555555555555
-0.27,-0.1,9958.333333333334
-0.275,-0.1,9961.111111111111
-0.28,-0.11,9963.888888888889
-0.27,-0.1,9966.666666666666
-0.26,-0.09,9969.444444444445
-0.26,-0.075,9972.222222222223
-0.25,-0.07,9975.0
-0.24,-0.055,9977.777777777777
-0.225,-0.05,9980.555555555555
-0.215,-0.03,9983.333333333334
-0.215,-0.03,9986.111111111111
-0.205,-0.035,9988.888888888889
-0.2,-0.035,9991.666666666666
-0.2,-0.04,9994.444444444445
-0.21,-0.06,9997.222222222223
-0.215,-0.06,10000.0
-0.23,-0.075,10002.777777777777
-0.25,-0.08,10005.555555555555
-0.25,-0.075,10008.333333333334
-0.255,-0.095,10011.111111111111
-0.26,-0.085,10013.888888888889
-0.27,-0.08,10016.666666666666
-0.27,-0.105,10019.444444444445
-0.27,-0.125,10022.222222222223
-0.29,-0.135,10025.0
-0.31,-0.155,10027.777777777777
-0.32,-0.17,10030.555555555555
-0.335,-0.19,10033.333333333334
-0.35,-0.18,10036.111111111111
-0.36,-0.18,10038.888888888889
-0.36,-0.2,10041.666666666666
-0.355,-0.195,10044.444444444445
-0.355,-0.195,10047.222222222223
-0.35,-0.195,10050.0
-0.35,-0.195,10052.777777777777
-0.355,-0.21,10055.555555555555
-0.355,-0.2,10058.333333333334
-0.36,-0.22,10061.111111111111
-0.37,-0.22,10063.888888888889
-0.385,-0.235,10066.666666666666
-0.4,-0.24,10069.444444444445
-0.405,-0.23,10072.222222222223
-0.395,-0.215,10075.0
-0.39,-0.225,10077.777777777777
-0.39,-0.205,10080.555555555555
-0.38,-0.21,10083.333333333334
-0.38,-0.205,10086.111111111111
-0.38,-0.215,10088.888888888889
-0.38,-0.215,10091.666666666666
-0.385,-0.215,10094.444444444445
-0.4,-0.22,10097.222222222223
-0.41,-0.235,10100.0
-0.41,-0.23,10102.777777777777
-0.405,-0.225,10105.555555555555
-0.41,-0.225,10108.333333333334
-0.405,-0.215,10111.111111111111
-0.4,-0.21,10113.888888888889
-0.39,-0.205,10116.666666666666
-0.375,-0.21,10119.444444444445
-0.38,-0.215,10122.222222222223
-0.385,-0.215,10125.0
-0.385,-0.225,10127.777777777777
-0.39,-0.235,10130.555555555555
-0.395,-0.24,10133.333333333334
-0.395,-0.24,10136.111111111111
-0.41,-0.24,10138.888888888889
-0.4,-0.225,10141.666666666666
-0.415,-0.23,10144.444444444445
-0.39,-0.225,10147.222222222223
-0.385,-0.225,10150.0
-0.375,-0.235,10152.777777777777
-0.37,-0.235,10155.555555555555
-0.365,-0.245,10158.333333333334
-0.375,-0.255,10161.111111111111
-0.39,-0.27,10163.888888888889
-0.385,-0.285,10166.666666666666
-0.395,-0.27,10169.444444444445
-0.4,-0.27,10172.222222222223
-0.4,-0.27,10175.0
-0.395,-0.275,10177.777777777777
-0.385,-0.265,10180.555555555555
-0.38,-0.265,10183.333333333334
-0.385,-0.27,10186.111111111111
-0.38,-0.28,10188.888888888889
-0.39,-0.28,10191.666666666666
-0.39,-0.28,10194.444444444445
-0.4,-0.29,10197.222222222223
-0.415,-0.305,10200.0
-0.415,-0.285,10202.777777777777
-0.41,-0.295,10205.555555555555
-0.415,-0.29,10208.333333333334
-0.405,-0.28,10211.111111111111
-0.405,-0.275,10213.888888888889
-0.395,-0.275,10216.666666666666
-0.405,-0.275,10219.444444444445
-0.405,-0.28,10222.222222222223
-0.405,-0.28,10225.0
-0.415,-0.29,10227.777777777777
-0.415,-0.28,10230.555555555555
-0.42,-0.28,10233.333333333334
-0.41,-0.29,10236.111111111111
-0.405,-0.27,10238.888888888889
-0.395,-0.26,10241.666666666666
-0.38,-0.25,10244.444444444445
-0.365,-0.23,10247.222222222223
-0.34,-0.21,10250.0
-0.325,-0.22,10252.777777777777
-0.32,-0.205,10255.555555555555
-0.3,-0.205,10258.333333333334
-0.295,-0.205,10261.111111111111
-0.29,-0.21,10263.888888888889
-0.295,-0.21,10266.666666666666
-0.27,-0.21,10269.444444444445
-0.26,-0.21,10272.222222222223
-0.235,-0.195,10275.0
-0.215,-0.18,10277.777777777777
-0.2,-0.17,10280.555555555555
-0.19,-0.17,10283.333333333334
-0.18,-0.175,10286.111111111111
-0.19,-0.185,10288.888888888889
-0.185,-0.21,10291.666666666666
-0.2,-0.24,10294.444444444445
-0.21,-0.25,10297.222222222223
-0.22,-0.255,10300.0
-0.23,-0.265,10302.777777777777
-0.24,-0.26,10305.555555555555
-0.225,-0.25,10308.333333333334
-0.235,-0.26,10311.111111111111
-0.24,-0.26,10313.888888888889
-0.25,-0.255,10316.666666666666
-0.26,-0.27,10319.444444444445
-0.265,-0.27,10322.222222222223
-0.28,-0.28,10325.0
-0.28,-0.29,10327.777777777777
-0.305,-0.315,10330.555555555555
-0.31,-0.31,10333.333333333334
-0.325,-0.32,10336.111111111111
-0.345,-0.325,10338.888888888889
-0.34,-0.325,10341.666666666666
-0.34,-0.335,10344.444444444445
-0.34,-0.32,10347.222222222223
-0.34,-0.325,10350.0
-0.34,-0.32,10352.777777777777
-0.34,-0.3,10355.555555555555
-0.35,-0.325,10358.333333333334
-0.355,-0.305,10361.111111111111
-0.35,-0.3,10363.888888888889
-0.35,-0.305,10366.666666666666
-0.345,-0.285,10369.444444444445
-0.34,-0.27,10372.222222222223
-0.325,-0.25,10375.0
-0.325,-0.235,10377.777777777777
-0.305,-0.225,10380.555555555555
-0.295,-0.205,10383.333333333334
-0.285,-0.195,10386.111111111111
-0.28,-0.17,10388.888888888889
-0.27,-0.155,10391.666666666666
-0.255,-0.13,10394.444444444445
-0.24,-0.12,10397.222222222223
-0.235,-0.1,10400.0
-0.21,-0.08,10402.777777777777
-0.175,-0.07,10405.555555555555
-0.145,-0.05,10408.333333333334
-0.1,-0.025,10411.111111111111
-0.05,0.005,10413.888888888889
-0.005,0.025,10416.666666666666
0.04,0.04,10419.444444444445
0.07,0.06,10422.222222222223
0.105,0.09,10425.0
0.16,0.15,10427.777777777777
0.22,0.195,10430.555555555555
0.325,0.28,10433.333333333334
0.475,0.385,10436.111111111111
0.645,0.515,10438.888888888889
0.85,0.645,10441.666666666666
1.075,0.785,10444.444444444445
1.27,0.895,10447.222222222223
1.46,0.945,10450.0
1.595,0.905,10452.777777777777
1.655,0.805,10455.555555555555
1.605,0.635,10458.333333333334
1.43,0.43,10461.111111111111
1.12,0.23,10463.888888888889
0.725,0.055,10466.666666666666
0.265,-0.08,10469.444444444445
-0.24,-0.185,10472.222222222223
-0.705,-0.28,10475.0
-1.045,-0.385,10477.777777777777
-1.215,-0.48,10480.555555555555
-1.23,-0.545,10483.333333333334
-1.13,-0.595,10486.111111111111
-0.96,-0.595,10488.888888888889
-0.81,-0.57,10491.666666666666
-0.67,-0.535,10494.444444444445
-0.58,-0.48,10497.222222222223
-0.53,-0.415,10500.0
-0.52,-0.37,10502.777777777777
-0.535,-0.33,10505.555555555555
-0.55,-0.305,10508.333333333334
-0.575,-0.285,10511.111111111111
-0.585,-0.28,10513.888888888889
-0.58,-0.27,10516.666666666666
-0.58,-0.275,10519.444444444445
-0.57,-0.27,10522.222222222223
-0.58,-0.27,10525.0
-0.575,-0.275,10527.777777777777
-0.59,-0.275,10530.555555555555
-0.59,-0.29,10533.333333333334
-0.59,-0.285,10536.111111111111
-0.595,-0.27,10538.888888888889
-0.59,-0.265,10541.666666666666
-0.575,-0.275,10544.444444444445
-0.57,-0.265,10547.222222222223
-0.545,-0.25,10550.0
-0.55,-0.245,10552.777777777777
-0.525,-0.26,10555.555555555555
-0.525,-0.27,10558.333333333334
-0.515,-0.28,10561.111111111111
-0.525,-0.285,10563.888888888889
-0.535,-0.295,10566.666666666666
-0.52,-0.29,10569.444444444445
-0.52,-0.285,10572.222222222223
-0.51,-0.275,10575.0
-0.505,-0.25,10577.777777777777
-0.49,-0.24,10580.555555555555
-0.47,-0.245,10583.333333333334
-0.455,-0.235,10586.111111111111
-0.44,-0.24,10588.888888888889
-0.43,-0.24,10591.666666666666
-0.445,-0.235,10594.444444444445
-0.435,-0.25,10597.222222222223
-0.435,-0.245,10600.0
-0.435,-0.25,10602.777777777777
-0.44,-0.235,10605.555555555555
-0.435,-0.22,10608.333333333334
-0.42,-0.205,10611.111111111111
-0.41,-0.195,10613.888888888889
-0.405,-0.18,10616.666666666666
-0.405,-0.16,10619.444444444445
-0.4,-0.175,10622.222222222223
-0.39,-0.155,10625.0
-0.39,-0.165,10627.777777777777
-0.395,-0.165,10630.555555555555
-0.395,-0.15,10633.333333333334
-0.405,-0.155,10636.111111111111
-0.405,-0.135,10638.888888888889
-0.405,-0.12,10641.666666666666
-0.385,-0.115,10644.444444444445
-0.375,-0.09,10647.222222222223
-0.36,-0.075,10650.0
-0.355,-0.07,10652.777777777777
-0.345,-0.07,10655.555555555555
-0.335,-0.06,10658.333333333334
-0.34,-0.065,10661.111111111111
-0.335,-0.055,10663.888888888889
-0.355,-0.05,10666.666666666666
-0.35,-0.035,10669.444444444445
-0.345,-0.025,10672.222222222223
-0.335,0.0,10675.0
-0.325,0.0,10677.777777777777
-0.3,0.02,10680.555555555555
-0.27,0.04,10683.333333333334
-0.25,0.04,10686.111111111111
-0.25,0.04,10688.888888888889
-0.235,0.035,10691.666666666666
-0.225,0.045,10694.444444444445
-0.23,0.035,10697.222222222223
-0.255,0.03,10700.0
-0.255,0.015,10702.777777777777
-0.23,0.025,10705.555555555555
-0.235,0.035,10708.333333333334
-0.23,0.025,10711.111111111111
-0.225,0.02,10713.888888888889
-0.225,0.02,10716.666666666666
-0.235,0.005,10719.444444444445
-0.24,-0.015,10722.222222222223
-0.25,-0.03,10725.0
-0.26,-0.045,10727.777777777777
-0.285,-0.065,10730.555555555555
-0.29,-0.08,10733.333333333334
-0.305,-0.095,10736.111111111111
-0.315,-0.1,10738.888888888889
-0.305,-0.115,10741.666666666666
-0.315,-0.12,10744.444444444445
-0.32,-0.125,10747.222222222223
-0.315,-0.135,10750.0
-0.31,-0.125,10752.777777777777
-0.315,-0.15,10755.555555555555
-0.32,-0.165,10758.333333333334
-0.32,-0.16,10761.111111111111
-0.33,-0.185,10763.888888888889
-0.335,-0.2,10766.666666666666
-0.34,-0.21,10769.444444444445
-0.335,-0.2,10772.222222222223
-0.345,-0.19,10775.0
-0.335,-0.18,10777.777777777777
-0.325,-0.19,10780.555555555555
-0.31,-0.19,10783.333333333334
-0.305,-0.18,10786.111111111111
-0.31,-0.185,10788.888888888889
-0.3,-0.2,10791.666666666666
-0.295,-0.205,10794.444444444445
-0.305,-0.21,10797.222222222223
-0.305,-0.22,10800.0
-0.3,-0.21,10802.777777777777
-0.31,-0.215,10805.555555555555
-0.305,-0.21,10808.333333333334
-0.31,-0.215,10811.111111111111
-0.29,-0.205,10813.888888888889
-0.275,-0.19,10816.666666666666
-0.27,-0.195,10819.444444444445
-0.27,-0.195,10822.222222222223
-0.27,-0.2,10825.0
-0.285,-0.215,10827.777777777777
-0.28,-0.215,10830.555555555555
-0.305,-0.23,10833.333333333334
-0.31,-0.23,10836.111111111111
-0.305,-0.23,10838.888888888889
-0.31,-0.225,10841.666666666666
-0.315,-0.215,10844.444444444445
-0.305,-0.21,10847.222222222223
-0.3,-0.205,10850.0
-0.29,-0.21,10852.777777777777
-0.295,-0.215,10855.555555555555
-0.305,-0.22,10858.333333333334
-0.31,-0.225,10861.111111111111
-0.32,-0.235,10863.888888888889
-0.32,-0.245,10866.666666666666
-0.325,-0.24,10869.444444444445
-0.33,-0.245,10872.222222222223
-0.335,-0.24,10875.0
-0.345,-0.235,10877.777777777777
-0.345,-0.235,10880.555555555555
-0.35,-0.22,10883.333333333334
-0.34,-0.22,10886.111111111111
-0.35,-0.235,10888.888888888889
-0.35,-0.225,10891.666666666666
-0.35,-0.245,10894.444444444445
-0.37,-0.235,10897.222222222223
-0.39,-0.25,10900.0
-0.39,-0.255,10902.777777777777
-0.405,-0.255,10905.555555555555
-0.405,-0.245,10908.333333333334
-0.405,-0.245,10911.111111111111
-0.39,-0.24,10913.888888888889
-0.395,-0.235,10916.666666666666
-0.38,-0.235,10919.444444444445
-0.395,-0.245,10922.222222222223
-0.4,-0.23,10925.0
-0.415,-0.24,10927.777777777777
-0.415,-0.255,10930.555555555555
-0.425,-0.255,10933.333333333334
-0.43,-0.26,10936.111111111111
-0.43,-0.255,10938.888888888889
-0.435,-0.255,10941.666666666666
-0.45,-0.25,10944.444444444445
-0.42,-0.245,10947.222222222223
-0.42,-0.24,10950.0
-0.415,-0.235,10952.777777777777
-0.425,-0.24,10955.555555555555
-0.42,-0.245,10958.333333333334
-0.41,-0.235,10961.111111111111
-0.42,-0.245,10963.888888888889
-0.425,-0.255,10966.666666666666
-0.42,-0.25,10969.444444444445
-0.41,-0.235,10972.222222222223
-0.4,-0.22,10975.0
-0.38,-0.21,10977.777777777777
-0.365,-0.195,10980.555555555555
-0.35,-0.185,10983.333333333334
-0.31,-0.16,10986.111111111111
-0.3,-0.155,10988.888888888889
-0.29,-0.155,10991.666666666666
-0.285,-0.15,10994.444444444445
-0.285,-0.155,10997.222222222223
-0.275,-0.155,11000.0
-0.275,-0.16,11002.777777777777
-0.275,-0.135,11005.555555555555
-0.275,-0.125,11008.333333333334
-0.27,-0.125,11011.111111111111
-0.28,-0.125,11013.888888888889
-0.29,-0.125,11016.666666666666
-0.295,-0.145,11019.444444444445
-0.315,-0.165,11022.222222222223
-0.325,-0.175,11025.0
-0.34,-0.2,11027.777777777777
-0.345,-0.215,11030.555555555555
-0.355,-0.235,11033.333333333334
-0.35,-0.23,11036.111111111111
-0.36,-0.225,11038.888888888889
-0.38,-0.22,11041.666666666666
-0.395,-0.245,11044.444444444445
-0.4,-0.225,11047.222222222223
-0.38,-0.235,11050.0
-0.36,-0.235,11052.777777777777
-0.355,-0.245,11055.555555555555
-0.36,-0.245,11058.333333333334
-0.355,-0.255,11061.111111111111
-0.375,-0.27,11063.888888888889
-0.39,-0.295,11066.666666666666
-0.41,-0.285,11069.444444444445
-0.41,-0.285,11072.222222222223
-0.4,-0.3,11075.0
-0.385,-0.29,11077.777777777777
-0.355,-0.29,11080.555555555555
-0.335,-0.275,11083.333333333334
-0.325,-0.275,11086.111111111111
-0.32,-0.28,11088.888888888889
-0.31,-0.27,11091.666666666666
-0.295,-0.265,11094.444444444445
-0.3,-0.26,11097.222222222223
-0.285,-0.265,11100.0
-0.27,-0.245,11102.777777777777
-0.265,-0.22,11105.555555555555
-0.245,-0.2,11108.333333333334
-0.225,-0.19,11111.111111111111
-0.215,-0.16,11113.888888888889
-0.195,-0.14,11116.666666666666
-0.165,-0.11,11119.444444444445
-0.135,-0.095,11122.222222222223
-0.115,-0.085,11125.0
-0.095,-0.06,11127.777777777777
-0.08,-0.05,11130.555555555555
-0.055,-0.035,11133.333333333334
-0.02,-0.02,11136.111111111111
0.015,-0.005,11138.888888888889
0.06,0.005,11141.666666666666
0.09,0.025,11144.444444444445
0.13,0.045,11147.222222222223
0.17,0.07,11150.0
0.205,0.1,11152.777777777777
0.23,0.12,11155.555555555555
0.295,0.17,11158.333333333334
0.375,0.24,11161.111111111111
0.49,0.31,11163.888888888889
0.635,0.41,11166.666666666666
0.8,0.515,11169.444444444445
0.99,0.64,11172.222222222223
1.2,0.755,11175.0
1.415,0.855,11177.777777777777
1.61,0.905,11180.555555555555
1.775,0.86,11183.333333333334
1.84,0.74,11186.111111111111
1.78,0.55,11188.888888888889
1.61,0.345,11191.666666666666
1.31,0.145,11194.444444444445
0.88,-0.01,11197.222222222223
0.395,-0.13,11200.0
-0.11,-0.23,11202.777777777777
-0.595,-0.325,11205.555555555555
-0.955,-0.42,11208.333333333334
-1.13,-0.5,11211.111111111111
-1.12,-0.555,11213.888888888889
-0.98,-0.58,11216.666666666666
-0.8,-0.58,11219.444444444445
-0.6,-0.55,11222.222222222223
