MLII,V1,time_ms
-0.2,0.075,0.0
-0.2,0.075,2.7777777777777777
-0.2,0.075,5.555555555555555
-0.2,0.075,8.333333333333334
-0.2,0.075,11.11111111111111
-0.2,0.075,13.88888888888889
-0.2,0.075,16.666666666666668
-0.2,0.075,19.444444444444443
-0.185,0.075,22.22222222222222
-0.185,0.08,25.0
-0.19,0.075,27.77777777777778
-0.195,0.06,30.555555555555557
-0.21,0.06,33.333333333333336
-0.21,0.06,36.111111111111114
-0.195,0.065,38.888888888888886
-0.19,0.065,41.666666666666664
-0.18,0.075,44.44444444444444
-0.18,0.08,47.22222222222222
-0.175,0.09,50.0
-0.165,0.085,52.77777777777778
-0.17,0.085,55.55555555555556
-0.175,0.065,58.333333333333336
-0.185,0.06,61.111111111111114
-0.195,0.065,63.888888888888886
-0.195,0.065,66.66666666666667
-0.225,0.055,69.44444444444444
-0.225,0.06,72.22222222222223
-0.225,0.075,75.0
-0.21,0.075,77.77777777777777
-0.215,0.085,80.55555555555556
-0.195,0.085,83.33333333333333
-0.205,0.085,86.11111111111111
-0.21,0.08,88.88888888888889
-0.215,0.07,91.66666666666667
-0.225,0.065,94.44444444444444
-0.23,0.065,97.22222222222223
-0.24,0.06,100.0
-0.245,0.06,102.77777777777777
-0.26,0.055,105.55555555555556
-0.25,0.065,108.33333333333333
-0.24,0.065,111.11111111111111
-0.235,0.085,113.88888888888889
-0.245,0.09,116.66666666666667
-0.245,0.08,119.44444444444444
-0.245,0.08,122.22222222222223
-0.26,0.07,125.0
-0.255,0.06,127.77777777777777
-0.26,0.06,130.55555555555554
-0.265,0.06,133.33333333333334
-0.26,0.065,136.11111111111111
-0.275,0.065,138.88888888888889
-0.265,0.06,141.66666666666666
-0.265,0.07,144.44444444444446
-0.27,0.08,147.22222222222223
-0.275,0.095,150.0
-0.265,0.08,152.77777777777777
-0.27,0.085,155.55555555555554
-0.275,0.07,158.33333333333334
-0.275,0.06,161.11111111111111
-0.285,0.06,163.88888888888889
-0.28,0.055,166.66666666666666
-0.285,0.055,169.44444444444446
-0.275,0.065,172.22222222222223
-0.275,0.075,175.0
-0.27,0.075,177.77777777777777
-0.265,0.095,180.55555555555554
-0.265,0.085,183.33333333333334
-0.265,0.08,186.11111111111111
-0.27,0.065,188.88888888888889
-0.29,0.075,191.66666666666666
-0.275,0.08,194.44444444444446
-0.28,0.07,197.22222222222223
-0.295,0.065,200.0
-0.285,0.065,202.77777777777777
-0.295,0.07,205.55555555555554
-0.295,0.075,208.33333333333334
-0.285,0.085,211.11111111111111
-0.29,0.085,213.88888888888889
-0.28,0.085,216.66666666666666
-0.27,0.085,219.44444444444446
-0.285,0.075,222.22222222222223
-0.275,0.075,225.0
-0.28,0.06,227.77777777777777
-0.285,0.055,230.55555555555554
-0.29,0.05,233.33333333333334
-0.295,0.045,236.11111111111111
-0.295,0.055,238.88888888888889
-0.3,0.065,241.66666666666666
-0.29,0.085,244.44444444444446
-0.29,0.075,247.22222222222223
-0.29,0.08,250.0
-0.275,0.085,252.77777777777777
-0.28,0.085,255.55555555555554
-0.28,0.07,258.3333333333333
-0.285,0.065,261.1111111111111
-0.3,0.07,263.8888888888889
-0.3,0.06,266.6666666666667
-0.305,0.075,269.44444444444446
-0.295,0.07,272.22222222222223
-0.295,0.08,275.0
-0.29,0.085,277.77777777777777
-0.28,0.09,280.55555555555554
-0.285,0.085,283.3333333333333
-0.28,0.1,286.1111111111111
-0.265,0.105,288.8888888888889
-0.285,0.11,291.6666666666667
-0.285,0.105,294.44444444444446
-0.275,0.105,297.22222222222223
-0.275,0.125,300.0
-0.27,0.14,302.77777777777777
-0.26,0.155,305.55555555555554
-0.26,0.16,308.3333333333333
-0.23,0.16,311.1111111111111
-0.21,0.17,313.8888888888889
-0.205,0.155,316.6666666666667
-0.2,0.14,319.44444444444446
-0.19,0.135,322.22222222222223
-0.18,0.12,325.0
-0.185,0.105,327.77777777777777
-0.16,0.095,330.55555555555554
-0.145,0.085,333.3333333333333
-0.135,0.075,336.1111111111111
-0.105,0.08,338.8888888888889
-0.095,0.09,341.6666666666667
-0.1,0.08,344.44444444444446
-0.1,0.08,347.22222222222223
-0.11,0.075,350.0
-0.125,0.08,352.77777777777777
-0.125,0.06,355.55555555555554
-0.14,0.05,358.3333333333333
-0.155,0.045,361.1111111111111
-0.17,0.045,363.8888888888889
-0.18,0.05,366.6666666666667
-0.2,0.05,369.44444444444446
-0.205,0.055,372.22222222222223
-0.215,0.06,375.0
-0.235,0.06,377.77777777777777
-0.25,0.065,380.55555555555554
-0.255,0.07,383.3333333333333
-0.275,0.06,386.1111111111111
-0.29,0.055,388.8888888888889
-0.285,0.05,391.6666666666667
-0.3,0.045,394.44444444444446
-0.305,0.03,397.22222222222223
-0.31,0.03,400.0
-0.315,0.035,402.77777777777777
-0.315,0.03,405.55555555555554
-0.32,0.05,408.3333333333333
-0.31,0.055,411.1111111111111
-0.3,0.065,413.8888888888889
-0.3,0.065,416.6666666666667
-0.3,0.06,419.44444444444446
-0.295,0.06,422.22222222222223
-0.295,0.045,425.0
-0.295,0.045,427.77777777777777
-0.3,0.04,430.55555555555554
-0.31,0.05,433.3333333333333
-0.32,0.035,436.1111111111111
-0.315,0.05,438.8888888888889
-0.31,0.065,441.6666666666667
-0.305,0.06,444.44444444444446
-0.285,0.065,447.22222222222223
-0.29,0.085,450.0
-0.285,0.075,452.77777777777777
-0.29,0.095,455.55555555555554
-0.3,0.11,458.3333333333333
-0.315,0.14,461.1111111111111
-0.34,0.175,463.8888888888889
-0.375,0.195,466.6666666666667
-0.43,0.2,469.44444444444446
-0.5,0.195,472.22222222222223
-0.55,0.175,475.0
-0.545,0.14,477.77777777777777
-0.48,0.09,480.55555555555554
-0.285,0.03,483.3333333333333
-0.005,-0.02,486.1111111111111
0.365,-0.055,488.8888888888889
0.76,-0.085,491.6666666666667
1.12,-0.105,494.44444444444446
1.395,-0.125,497.22222222222223
1.52,-0.115,500.0
1.43,-0.105,502.77777777777777
1.14,-0.105,505.55555555555554
0.675,-0.07,508.3333333333333
0.175,-0.01,511.1111111111111
-0.195,0.11,513.8888888888889
-0.42,0.265,516.6666666666666
-0.5,0.435,519.4444444444445
-0.485,0.59,522.2222222222222
-0.47,0.72,525.0
-0.48,0.805,527.7777777777778
-0.565,0.86,530.5555555555555
-0.665,0.895,533.3333333333334
-0.78,0.93,536.1111111111111
-0.915,0.96,538.8888888888889
-1.01,1.0,541.6666666666666
-1.06,1.005,544.4444444444445
-1.09,0.99,547.2222222222222
-1.075,0.93,550.0
-1.035,0.87,552.7777777777778
-0.995,0.795,555.5555555555555
-0.91,0.695,558.3333333333334
-0.83,0.6,561.1111111111111
-0.75,0.51,563.8888888888889
-0.67,0.405,566.6666666666666
-0.575,0.31,569.4444444444445
-0.505,0.245,572.2222222222222
-0.44,0.195,575.0
-0.38,0.175,577.7777777777778
-0.35,0.15,580.5555555555555
-0.325,0.14,583.3333333333334
-0.325,0.13,586.1111111111111
-0.31,0.125,588.8888888888889
-0.32,0.105,591.6666666666666
-0.3,0.105,594.4444444444445
-0.305,0.09,597.2222222222222
-0.295,0.07,600.0
-0.305,0.07,602.7777777777778
-0.3,0.065,605.5555555555555
-0.29,0.06,608.3333333333334
-0.27,0.07,611.1111111111111
-0.25,0.07,613.8888888888889
-0.24,0.06,616.6666666666666
-0.245,0.065,619.4444444444445
-0.25,0.065,622.2222222222222
-0.245,0.05,625.0
-0.25,0.04,627.7777777777778
-0.245,0.035,630.5555555555555
-0.255,0.04,633.3333333333334
-0.255,0.025,636.1111111111111
-0.255,0.045,638.8888888888889
-0.225,0.045,641.6666666666666
-0.23,0.05,644.4444444444445
-0.22,0.065,647.2222222222222
-0.205,0.05,650.0
-0.21,0.05,652.7777777777778
-0.21,0.05,655.5555555555555
-0.21,0.035,658.3333333333334
-0.205,0.03,661.1111111111111
-0.215,0.02,663.8888888888889
-0.215,0.035,666.6666666666666
-0.21,0.015,669.4444444444445
-0.205,0.025,672.2222222222222
-0.2,0.04,675.0
-0.19,0.03,677.7777777777778
-0.18,0.035,680.5555555555555
-0.175,0.05,683.3333333333334
-0.17,0.035,686.1111111111111
-0.175,0.035,688.8888888888889
-0.17,0.025,691.6666666666666
-0.175,0.03,694.4444444444445
-0.175,0.02,697.2222222222222
-0.155,0.01,700.0
-0.16,0.01,702.7777777777778
-0.155,0.0,705.5555555555555
-0.145,0.005,708.3333333333334
-0.13,0.01,711.1111111111111
-0.115,0.02,713.8888888888889
-0.105,0.02,716.6666666666666
-0.095,0.015,719.4444444444445
-0.08,0.01,722.2222222222222
-0.085,-0.01,725.0
-0.075,-0.015,727.7777777777778
-0.075,-0.01,730.5555555555555
-0.08,-0.025,733.3333333333334
-0.07,-0.025,736.1111111111111
-0.06,-0.025,738.8888888888889
-0.045,-0.015,741.6666666666666
-0.05,-0.01,744.4444444444445
-0.01,-0.01,747.2222222222222
-0.01,0.0,750.0
0.005,-0.01,752.7777777777778
0.01,-0.01,755.5555555555555
0.01,-0.02,758.3333333333334
0.015,-0.03,761.1111111111111
0.03,-0.05,763.8888888888889
0.04,-0.055,766.6666666666666
0.04,-0.06,769.4444444444445
0.06,-0.055,772.2222222222222
0.075,-0.045,775.0
0.095,-0.05,777.7777777777778
0.11,-0.05,780.5555555555555
0.125,-0.05,783.3333333333334
0.15,-0.07,786.1111111111111
0.155,-0.06,788.8888888888889
0.18,-0.075,791.6666666666666
0.17,-0.07,794.4444444444445
0.185,-0.09,797.2222222222222
0.19,-0.085,800.0
0.21,-0.1,802.7777777777778
0.21,-0.095,805.5555555555555
0.22,-0.09,808.3333333333334
0.235,-0.085,811.1111111111111
0.25,-0.085,813.8888888888889
0.27,-0.09,816.6666666666666
0.28,-0.08,819.4444444444445
0.285,-0.08,822.2222222222222
0.28,-0.09,825.0
0.295,-0.095,827.7777777777778
0.28,-0.115,830.5555555555555
0.295,-0.115,833.3333333333334
0.29,-0.11,836.1111111111111
0.3,-0.095,838.8888888888889
0.305,-0.085,841.6666666666666
0.32,-0.065,844.4444444444445
0.325,-0.065,847.2222222222222
0.325,-0.065,850.0
0.325,-0.06,852.7777777777778
0.315,-0.075,855.5555555555555
0.32,-0.07,858.3333333333334
0.305,-0.08,861.1111111111111
0.29,-0.07,863.8888888888889
0.28,-0.07,866.6666666666666
0.255,-0.055,869.4444444444445
0.24,-0.035,872.2222222222222
0.235,-0.015,875.0
0.21,-0.005,877.7777777777778
0.19,0.01,880.5555555555555
0.185,0.02,883.3333333333334
0.165,0.02,886.1111111111111
0.13,0.035,888.8888888888889
0.115,0.045,891.6666666666666
0.095,0.055,894.4444444444445
0.07,0.045,897.2222222222222
0.045,0.045,900.0
0.02,0.065,902.7777777777778
0.005,0.075,905.5555555555555
-0.02,0.095,908.3333333333334
-0.025,0.09,911.1111111111111
-0.03,0.105,913.8888888888889
-0.04,0.12,916.6666666666666
-0.055,0.115,919.4444444444445
-0.065,0.125,922.2222222222222
-0.075,0.115,925.0
-0.095,0.12,927.7777777777778
-0.125,0.115,930.5555555555555
-0.13,0.12,933.3333333333334
-0.145,0.115,936.1111111111111
-0.14,0.13,938.8888888888889
-0.15,0.14,941.6666666666666
-0.15,0.145,944.4444444444445
-0.145,0.145,947.2222222222222
-0.14,0.15,950.0
-0.145,0.145,952.7777777777778
-0.15,0.155,955.5555555555555
-0.16,0.15,958.3333333333334
-0.165,0.135,961.1111111111111
-0.18,0.135,963.8888888888889
-0.18,0.14,966.6666666666666
-0.18,0.135,969.4444444444445
-0.175,0.14,972.2222222222222
-0.165,0.14,975.0
-0.17,0.155,977.7777777777778
-0.17,0.155,980.5555555555555
-0.145,0.155,983.3333333333334
-0.155,0.155,986.1111111111111
-0.155,0.155,988.8888888888889
-0.155,0.14,991.6666666666666
-0.18,0.145,994.4444444444445
-0.165,0.13,997.2222222222222
-0.185,0.135,1000.0
-0.19,0.135,1002.7777777777778
-0.175,0.15,1005.5555555555555
-0.175,0.145,1008.3333333333334
-0.16,0.135,1011.1111111111111
-0.16,0.15,1013.8888888888889
-0.16,0.155,1016.6666666666666
-0.16,0.155,1019.4444444444445
-0.16,0.15,1022.2222222222222
-0.17,0.14,1025.0
-0.175,0.135,1027.7777777777778
-0.185,0.115,1030.5555555555557
-0.19,0.105,1033.3333333333333
-0.19,0.11,1036.111111111111
-0.19,0.125,1038.888888888889
-0.175,0.14,1041.6666666666667
-0.185,0.135,1044.4444444444443
-0.17,0.135,1047.2222222222222
-0.16,0.145,1050.0
-0.16,0.135,1052.7777777777778
-0.175,0.15,1055.5555555555557
-0.175,0.13,1058.3333333333333
-0.18,0.14,1061.111111111111
-0.195,0.13,1063.888888888889
-0.2,0.115,1066.6666666666667
-0.21,0.125,1069.4444444444443
-0.22,0.115,1072.2222222222222
-0.215,0.125,1075.0
-0.21,0.135,1077.7777777777778
-0.21,0.135,1080.5555555555557
-0.21,0.125,1083.3333333333333
-0.215,0.13,1086.111111111111
-0.215,0.145,1088.888888888889
-0.21,0.13,1091.6666666666667
-0.22,0.115,1094.4444444444443
-0.225,0.11,1097.2222222222222
-0.225,0.105,1100.0
-0.23,0.11,1102.7777777777778
-0.225,0.115,1105.5555555555557
-0.23,0.12,1108.3333333333333
-0.235,0.12,1111.111111111111
-0.22,0.135,1113.888888888889
-0.205,0.14,1116.6666666666667
-0.22,0.135,1119.4444444444443
-0.22,0.125,1122.2222222222222
-0.215,0.12,1125.0
-0.22,0.115,1127.7777777777778
-0.23,0.09,1130.5555555555557
-0.24,0.095,1133.3333333333333
-0.245,0.1,1136.111111111111
-0.235,0.105,1138.888888888889
-0.225,0.11,1141.6666666666667
-0.23,0.12,1144.4444444444443
-0.22,0.11,1147.2222222222222
-0.21,0.12,1150.0
-0.21,0.115,1152.7777777777778
-0.225,0.12,1155.5555555555557
-0.235,0.11,1158.3333333333333
-0.23,0.105,1161.111111111111
-0.225,0.09,1163.888888888889
-0.245,0.09,1166.6666666666667
-0.25,0.095,1169.4444444444443
-0.235,0.105,1172.2222222222222
-0.23,0.105,1175.0
-0.23,0.12,1177.7777777777778
-0.225,0.11,1180.5555555555557
-0.225,0.115,1183.3333333333333
-0.22,0.115,1186.111111111111
-0.22,0.115,1188.888888888889
-0.22,0.12,1191.6666666666667
-0.24,0.11,1194.4444444444443
-0.23,0.1,1197.2222222222222
-0.24,0.095,1200.0
-0.24,0.095,1202.7777777777778
-0.24,0.095,1205.5555555555557
-0.235,0.115,1208.3333333333333
-0.23,0.115,1211.111111111111
-0.215,0.115,1213.888888888889
-0.21,0.105,1216.6666666666667
-0.205,0.115,1219.4444444444443
-0.21,0.115,1222.2222222222222
-0.21,0.11,1225.0
-0.215,0.105,1227.7777777777778
-0.215,0.105,1230.5555555555557
-0.23,0.09,1233.3333333333333
-0.23,0.11,1236.111111111111
-0.235,0.1,1238.888888888889
-0.23,0.125,1241.6666666666667
-0.22,0.125,1244.4444444444443
-0.22,0.155,1247.2222222222222
-0.21,0.165,1250.0
-0.205,0.16,1252.7777777777778
-0.21,0.175,1255.5555555555557
-0.2,0.17,1258.3333333333333
-0.2,0.17,1261.111111111111
-0.19,0.175,1263.888888888889
-0.19,0.175,1266.6666666666667
-0.19,0.175,1269.4444444444443
-0.18,0.185,1272.2222222222222
-0.18,0.185,1275.0
-0.165,0.18,1277.7777777777778
-0.15,0.175,1280.5555555555557
-0.135,0.17,1283.3333333333333
-0.14,0.17,1286.111111111111
-0.105,0.15,1288.888888888889
-0.1,0.135,1291.6666666666667
-0.08,0.135,1294.4444444444443
-0.07,0.125,1297.2222222222222
-0.045,0.1,1300.0
-0.05,0.11,1302.7777777777778
-0.045,0.095,1305.5555555555557
-0.055,0.095,1308.3333333333333
-0.07,0.105,1311.111111111111
-0.07,0.105,1313.888888888889
-0.085,0.115,1316.6666666666667
-0.095,0.095,1319.4444444444443
-0.095,0.1,1322.2222222222222
-0.105,0.105,1325.0
-0.1,0.1,1327.7777777777778
-0.1,0.105,1330.5555555555557
-0.14,0.11,1333.3333333333333
-0.15,0.095,1336.111111111111
-0.17,0.085,1338.888888888889
-0.19,0.09,1341.6666666666667
-0.19,0.095,1344.4444444444443
-0.215,0.1,1347.2222222222222
-0.215,0.095,1350.0
-0.22,0.09,1352.7777777777778
-0.24,0.095,1355.5555555555557
-0.24,0.09,1358.3333333333333
-0.245,0.08,1361.111111111111
-0.255,0.07,1363.888888888889
-0.26,0.075,1366.6666666666667
-0.27,0.075,1369.4444444444443
-0.26,0.095,1372.2222222222222
-0.265,0.085,1375.0
-0.27,0.09,1377.7777777777778
-0.275,0.12,1380.5555555555557
-0.275,0.115,1383.3333333333333
-0.27,0.105,1386.111111111111
-0.27,0.095,1388.888888888889
-0.28,0.095,1391.6666666666667
-0.275,0.08,1394.4444444444443
-0.28,0.075,1397.2222222222222
-0.275,0.08,1400.0
-0.27,0.095,1402.7777777777778
-0.26,0.095,1405.5555555555557
-0.255,0.11,1408.3333333333333
-0.255,0.11,1411.111111111111
-0.245,0.12,1413.888888888889
-0.25,0.125,1416.6666666666667
-0.245,0.125,1419.4444444444443
-0.25,0.14,1422.2222222222222
-0.255,0.145,1425.0
-0.27,0.17,1427.7777777777778
-0.305,0.205,1430.5555555555557
-0.335,0.22,1433.3333333333333
-0.385,0.235,1436.111111111111
-0.46,0.215,1438.888888888889
-0.5,0.205,1441.6666666666667
-0.495,0.145,1444.4444444444443
-0.38,0.075,1447.2222222222222
-0.145,0.015,1450.0
0.215,-0.04,1452.7777777777778
0.63,-0.075,1455.5555555555557
1.05,-0.105,1458.3333333333333
1.395,-0.1,1461.111111111111
1.585,-0.075,1463.888888888889
1.54,-0.06,1466.6666666666667
1.215,-0.05,1469.4444444444443
0.685,-0.015,1472.2222222222222
0.14,0.065,1475.0
-0.295,0.19,1477.7777777777778
-0.52,0.355,1480.5555555555557
-0.59,0.535,1483.3333333333333
-0.565,0.69,1486.111111111111
-0.53,0.815,1488.888888888889
-0.53,0.88,1491.6666666666667
-0.585,0.92,1494.4444444444443
-0.665,0.945,1497.2222222222222
-0.795,0.96,1500.0
-0.925,0.99,1502.7777777777778
-1.025,1.0,1505.5555555555557
-1.065,0.99,1508.3333333333333
-1.06,0.97,1511.111111111111
-1.015,0.925,1513.888888888889
-0.93,0.86,1516.6666666666667
-0.845,0.775,1519.4444444444443
-0.76,0.675,1522.2222222222222
-0.665,0.56,1525.0
-0.59,0.425,1527.7777777777778
-0.5,0.315,1530.5555555555557
-0.435,0.24,1533.3333333333333
-0.385,0.175,1536.111111111111
-0.345,0.14,1538.888888888889
-0.31,0.135,1541.6666666666667
-0.285,0.13,1544.4444444444443
-0.265,0.125,1547.2222222222222
-0.24,0.12,1550.0
-0.23,0.115,1552.7777777777778
-0.235,0.1,1555.5555555555557
-0.225,0.085,1558.3333333333333
-0.215,0.075,1561.111111111111
-0.22,0.06,1563.888888888889
-0.225,0.045,1566.6666666666667
-0.225,0.05,1569.4444444444443
-0.21,0.04,1572.2222222222222
-0.215,0.06,1575.0
-0.19,0.05,1577.7777777777778
-0.185,0.05,1580.5555555555557
-0.175,0.06,1583.3333333333333
-0.17,0.055,1586.111111111111
-0.175,0.055,1588.888888888889
-0.175,0.045,1591.6666666666667
-0.17,0.03,1594.4444444444443
-0.185,0.02,1597.2222222222222
-0.185,0.025,1600.0
-0.195,0.03,1602.7777777777778
-0.19,0.025,1605.5555555555557
-0.19,0.035,1608.3333333333333
-0.17,0.03,1611.111111111111
-0.165,0.04,1613.888888888889
-0.15,0.04,1616.6666666666667
-0.16,0.035,1619.4444444444443
-0.15,0.04,1622.2222222222222
-0.14,0.025,1625.0
-0.16,0.025,1627.7777777777778
-0.16,0.01,1630.5555555555557
-0.155,0.0,1633.3333333333333
-0.15,-0.015,1636.111111111111
-0.16,0.0,1638.888888888889
-0.15,-0.005,1641.6666666666667
-0.125,0.005,1644.4444444444443
-0.12,0.02,1647.2222222222222
-0.105,0.025,1650.0
-0.085,0.025,1652.7777777777778
-0.085,0.005,1655.5555555555557
-0.07,0.0,1658.3333333333333
-0.08,-0.01,1661.111111111111
-0.085,-0.01,1663.888888888889
-0.085,-0.02,1666.6666666666667
-0.105,-0.01,1669.4444444444443
-0.085,-0.005,1672.2222222222222
-0.08,-0.02,1675.0
-0.06,-0.005,1677.7777777777778
-0.045,-0.015,1680.5555555555557
-0.03,0.0,1683.3333333333333
-0.015,0.0,1686.111111111111
-0.02,-0.01,1688.888888888889
-0.01,-0.005,1691.6666666666667
-0.025,-0.02,1694.4444444444443
-0.02,-0.045,1697.2222222222222
-0.025,-0.055,1700.0
-0.005,-0.045,1702.7777777777778
0.0,-0.055,1705.5555555555557
0.02,-0.04,1708.3333333333333
0.03,-0.045,1711.111111111111
0.045,-0.04,1713.888888888889
0.055,-0.025,1716.6666666666667
0.07,-0.03,1719.4444444444443
0.09,-0.04,1722.2222222222222
0.095,-0.055,1725.0
0.095,-0.075,1727.7777777777778
0.11,-0.09,1730.5555555555557
0.12,-0.07,1733.3333333333333
0.13,-0.09,1736.111111111111
0.135,-0.08,1738.888888888889
0.15,-0.075,1741.6666666666667
0.16,-0.08,1744.4444444444443
0.175,-0.09,1747.2222222222222
0.205,-0.09,1750.0
0.22,-0.09,1752.7777777777778
0.23,-0.1,1755.5555555555557
0.24,-0.12,1758.3333333333333
0.24,-0.12,1761.111111111111
0.24,-0.12,1763.888888888889
0.245,-0.12,1766.6666666666667
0.245,-0.13,1769.4444444444443
0.245,-0.115,1772.2222222222222
0.27,-0.12,1775.0
0.3,-0.11,1777.7777777777778
0.3,-0.12,1780.5555555555557
0.305,-0.115,1783.3333333333333
0.315,-0.12,1786.111111111111
0.31,-0.12,1788.888888888889
0.32,-0.135,1791.6666666666667
0.32,-0.14,1794.4444444444443
0.33,-0.14,1797.2222222222222
0.33,-0.15,1800.0
0.335,-0.145,1802.7777777777778
0.34,-0.13,1805.5555555555557
0.335,-0.12,1808.3333333333333
0.345,-0.115,1811.111111111111
0.355,-0.11,1813.888888888889
0.355,-0.105,1816.6666666666667
0.345,-0.095,1819.4444444444443
0.345,-0.095,1822.2222222222222
0.34,-0.1,1825.0
0.315,-0.09,1827.7777777777778
0.3,-0.11,1830.5555555555557
0.265,-0.105,1833.3333333333333
0.245,-0.095,1836.111111111111
0.235,-0.08,1838.888888888889
0.215,-0.06,1841.6666666666667
0.195,-0.04,1844.4444444444443
0.2,-0.035,1847.2222222222222
0.19,-0.02,1850.0
0.17,-0.01,1852.7777777777778
0.155,-0.005,1855.5555555555557
0.12,0.005,1858.3333333333333
0.1,0.005,1861.111111111111
0.065,0.01,1863.888888888889
0.04,0.01,1866.6666666666667
0.01,0.02,1869.4444444444443
-0.01,0.04,1872.2222222222222
-0.015,0.055,1875.0
-0.02,0.06,1877.7777777777778
-0.035,0.07,1880.5555555555557
-0.03,0.09,1883.3333333333333
-0.04,0.09,1886.111111111111
-0.08,0.08,1888.888888888889
-0.08,0.09,1891.6666666666667
-0.11,0.085,1894.4444444444443
-0.13,0.08,1897.2222222222222
-0.145,0.085,1900.0
-0.165,0.1,1902.7777777777778
-0.155,0.1,1905.5555555555557
-0.155,0.12,1908.3333333333333
-0.145,0.145,1911.111111111111
-0.165,0.12,1913.888888888889
-0.16,0.13,1916.6666666666667
-0.16,0.125,1919.4444444444443
-0.155,0.13,1922.2222222222222
-0.155,0.12,1925.0
-0.175,0.115,1927.7777777777778
-0.175,0.12,1930.5555555555557
-0.175,0.11,1933.3333333333333
-0.18,0.11,1936.111111111111
-0.175,0.12,1938.888888888889
-0.18,0.14,1941.6666666666667
-0.185,0.135,1944.4444444444443
-0.18,0.15,1947.2222222222222
-0.16,0.145,1950.0
-0.16,0.14,1952.7777777777778
-0.16,0.135,1955.5555555555557
-0.165,0.125,1958.3333333333333
-0.16,0.12,1961.111111111111
-0.19,0.115,1963.888888888889
-0.185,0.125,1966.6666666666667
-0.185,0.11,1969.4444444444443
-0.175,0.12,1972.2222222222222
-0.165,0.125,1975.0
-0.16,0.135,1977.7777777777778
-0.15,0.135,1980.5555555555557
-0.145,0.14,1983.3333333333333
-0.16,0.13,1986.111111111111
-0.16,0.13,1988.888888888889
-0.16,0.13,1991.6666666666667
-0.165,0.11,1994.4444444444443
-0.18,0.1,1997.2222222222222
-0.17,0.095,2000.0
-0.175,0.115,2002.7777777777778
-0.19,0.095,2005.5555555555557
-0.185,0.11,2008.3333333333333
-0.195,0.11,2011.111111111111
-0.195,0.11,2013.888888888889
-0.185,0.115,2016.6666666666667
-0.185,0.115,2019.4444444444443
-0.165,0.1,2022.2222222222222
-0.16,0.105,2025.0
-0.15,0.095,2027.7777777777778
-0.165,0.1,2030.5555555555557
-0.18,0.095,2033.3333333333333
-0.205,0.085,2036.111111111111
-0.21,0.085,2038.888888888889
-0.2,0.095,2041.6666666666667
-0.2,0.105,2044.4444444444443
-0.19,0.115,2047.2222222222222
-0.165,0.12,2050.0
-0.17,0.12,2052.777777777778
-0.17,0.12,2055.5555555555557
-0.18,0.115,2058.3333333333335
-0.205,0.09,2061.1111111111113
-0.22,0.09,2063.8888888888887
-0.225,0.085,2066.6666666666665
-0.24,0.09,2069.4444444444443
-0.21,0.08,2072.222222222222
-0.205,0.1,2075.0
-0.195,0.1,2077.777777777778
-0.2,0.105,2080.5555555555557
-0.195,0.11,2083.3333333333335
-0.205,0.115,2086.1111111111113
-0.21,0.105,2088.8888888888887
-0.225,0.085,2091.6666666666665
-0.225,0.085,2094.4444444444443
-0.22,0.07,2097.222222222222
-0.23,0.08,2100.0
-0.22,0.08,2102.777777777778
-0.205,0.085,2105.5555555555557
-0.2,0.085,2108.3333333333335
-0.19,0.085,2111.1111111111113
-0.205,0.1,2113.8888888888887
-0.215,0.1,2116.6666666666665
-0.21,0.095,2119.4444444444443
-0.215,0.1,2122.222222222222
-0.23,0.095,2125.0
-0.225,0.095,2127.777777777778
-0.225,0.085,2130.5555555555557
-0.22,0.075,2133.3333333333335
-0.215,0.085,2136.1111111111113
-0.215,0.095,2138.8888888888887
-0.225,0.1,2141.6666666666665
-0.22,0.1,2144.4444444444443
-0.21,0.115,2147.222222222222
-0.215,0.13,2150.0
-0.215,0.135,2152.777777777778
-0.21,0.155,2155.5555555555557
-0.21,0.145,2158.3333333333335
-0.215,0.16,2161.1111111111113
-0.215,0.15,2163.8888888888887
-0.21,0.15,2166.6666666666665
-0.195,0.14,2169.4444444444443
-0.19,0.145,2172.222222222222
-0.155,0.145,2175.0
-0.13,0.14,2177.777777777778
-0.125,0.145,2180.5555555555557
-0.105,0.145,2183.3333333333335
-0.105,0.145,2186.1111111111113
-0.12,0.14,2188.8888888888887
-0.105,0.125,2191.6666666666665
-0.115,0.12,2194.4444444444443
-0.085,0.11,2197.222222222222
-0.055,0.095,2200.0
-0.035,0.095,2202.777777777778
-0.03,0.095,2205.5555555555557
-0.035,0.1,2208.3333333333335
-0.025,0.1,2211.1111111111113
-0.04,0.095,2213.8888888888887
-0.05,0.085,2216.6666666666665
-0.055,0.09,2219.4444444444443
-0.075,0.08,2222.222222222222
-0.09,0.075,2225.0
-0.1,0.085,2227.777777777778
-0.135,0.075,2230.5555555555557
-0.13,0.07,2233.3333333333335
-0.165,0.07,2236.1111111111113
-0.175,0.07,2238.8888888888887
-0.19,0.075,2241.6666666666665
-0.21,0.065,2244.4444444444443
-0.235,0.07,2247.222222222222
-0.235,0.075,2250.0
-0.255,0.08,2252.777777777778
-0.245,0.08,2255.5555555555557
-0.245,0.055,2258.3333333333335
-0.255,0.05,2261.1111111111113
-0.255,0.055,2263.8888888888887
-0.27,0.045,2266.6666666666665
-0.275,0.06,2269.4444444444443
-0.27,0.055,2272.222222222222
-0.27,0.06,2275.0
-0.25,0.065,2277.777777777778
-0.255,0.07,2280.5555555555557
-0.245,0.085,2283.3333333333335
-0.24,0.07,2286.1111111111113
-0.24,0.08,2288.8888888888887
-0.25,0.07,2291.6666666666665
-0.25,0.07,2294.4444444444443
-0.245,0.06,2297.222222222222
-0.245,0.065,2300.0
-0.26,0.07,2302.777777777778
-0.255,0.07,2305.5555555555557
-0.26,0.085,2308.3333333333335
-0.26,0.09,2311.1111111111113
-0.26,0.105,2313.8888888888887
-0.245,0.125,2316.6666666666665
-0.24,0.15,2319.4444444444443
-0.245,0.18,2322.222222222222
-0.28,0.195,2325.0
-0.35,0.195,2327.777777777778
-0.435,0.175,2330.5555555555557
-0.47,0.125,2333.3333333333335
-0.435,0.07,2336.1111111111113
-0.285,0.01,2338.8888888888887
0.03,-0.06,2341.6666666666665
0.435,-0.085,2344.4444444444443
0.87,-0.075,2347.222222222222
1.27,-0.015,2350.0
1.515,0.02,2352.777777777778
1.52,0.055,2355.5555555555557
1.205,0.05,2358.3333333333335
0.665,0.065,2361.1111111111113
0.075,0.105,2363.8888888888887
-0.38,0.195,2366.6666666666665
-0.625,0.34,2369.4444444444443
-0.695,0.49,2372.222222222222
-0.68,0.645,2375.0
-0.615,0.76,2377.777777777778
-0.61,0.84,2380.5555555555557
-0.635,0.91,2383.3333333333335
-0.715,0.945,2386.1111111111113
-0.82,0.975,2388.8888888888887
-0.9,0.99,2391.6666666666665
-0.96,1.0,2394.4444444444443
-0.975,0.995,2397.222222222222
-0.97,0.955,2400.0
-0.945,0.895,2402.777777777778
-0.9,0.845,2405.5555555555557
-0.825,0.785,2408.3333333333335
-0.745,0.7,2411.1111111111113
-0.66,0.61,2413.8888888888887
-0.555,0.495,2416.6666666666665
-0.48,0.375,2419.4444444444443
-0.4,0.27,2422.222222222222
-0.34,0.19,2425.0
-0.305,0.135,2427.777777777778
-0.275,0.115,2430.5555555555557
-0.265,0.1,2433.3333333333335
-0.27,0.095,2436.1111111111113
-0.24,0.1,2438.8888888888887
-0.225,0.09,2441.6666666666665
-0.215,0.09,2444.4444444444443
-0.2,0.075,2447.222222222222
-0.19,0.08,2450.0
-0.18,0.07,2452.777777777778
-0.185,0.055,2455.5555555555557
-0.165,0.05,2458.3333333333335
-0.175,0.045,2461.1111111111113
-0.18,0.045,2463.8888888888887
-0.185,0.035,2466.6666666666665
-0.18,0.025,2469.4444444444443
-0.18,0.035,2472.222222222222
-0.17,0.035,2475.0
-0.165,0.035,2477.777777777778
-0.16,0.035,2480.5555555555557
-0.145,0.04,2483.3333333333335
-0.135,0.05,2486.1111111111113
-0.14,0.045,2488.8888888888887
-0.14,0.02,2491.6666666666665
-0.14,0.015,2494.4444444444443
-0.135,0.01,2497.222222222222
-0.145,0.01,2500.0
-0.15,0.0,2502.777777777778
-0.14,-0.005,2505.5555555555557
-0.13,0.005,2508.3333333333335
-0.115,0.02,2511.1111111111113
-0.11,0.01,2513.8888888888887
-0.1,0.03,2516.6666666666665
-0.095,0.02,2519.4444444444443
-0.095,0.015,2522.222222222222
-0.1,0.005,2525.0
-0.105,-0.005,2527.777777777778
-0.1,-0.005,2530.5555555555557
-0.1,-0.02,2533.3333333333335
-0.105,-0.02,2536.1111111111113
-0.095,-0.01,2538.8888888888887
-0.085,-0.01,2541.6666666666665
-0.09,0.005,2544.4444444444443
-0.08,0.01,2547.222222222222
-0.08,0.005,2550.0
-0.055,-0.005,2552.777777777778
-0.05,0.0,2555.5555555555557
-0.04,-0.01,2558.3333333333335
-0.035,-0.01,2561.1111111111113
-0.045,-0.015,2563.8888888888887
-0.05,-0.03,2566.6666666666665
-0.05,-0.035,2569.4444444444443
-0.05,-0.035,2572.222222222222
-0.02,-0.04,2575.0
-0.015,-0.02,2577.777777777778
-0.005,-0.015,2580.5555555555557
0.0,-0.015,2583.3333333333335
0.015,-0.02,2586.1111111111113
0.0,-0.025,2588.8888888888887
0.005,-0.045,2591.6666666666665
0.01,-0.045,2594.4444444444443
0.035,-0.055,2597.222222222222
0.035,-0.06,2600.0
0.025,-0.06,2602.777777777778
0.035,-0.065,2605.5555555555557
0.04,-0.07,2608.3333333333335
0.065,-0.05,2611.1111111111113
0.06,-0.06,2613.8888888888887
0.075,-0.06,2616.6666666666665
0.085,-0.07,2619.4444444444443
0.085,-0.085,2622.222222222222
0.1,-0.1,2625.0
0.105,-0.105,2627.777777777778
0.105,-0.11,2630.5555555555557
0.105,-0.125,2633.3333333333335
0.125,-0.12,2636.1111111111113
0.115,-0.115,2638.8888888888887
0.12,-0.125,2641.6666666666665
0.15,-0.105,2644.4444444444443
0.16,-0.11,2647.222222222222
0.175,-0.11,2650.0
0.18,-0.12,2652.777777777778
0.2,-0.11,2655.5555555555557
0.2,-0.12,2658.3333333333335
0.195,-0.13,2661.1111111111113
0.2,-0.145,2663.8888888888887
0.2,-0.145,2666.6666666666665
0.205,-0.155,2669.4444444444443
0.21,-0.15,2672.222222222222
0.23,-0.155,2675.0
0.24,-0.14,2677.777777777778
0.255,-0.145,2680.5555555555557
0.26,-0.145,2683.3333333333335
0.265,-0.125,2686.1111111111113
0.275,-0.135,2688.8888888888887
0.28,-0.135,2691.6666666666665
0.285,-0.14,2694.4444444444443
0.295,-0.145,2697.222222222222
0.295,-0.15,2700.0
0.29,-0.145,2702.777777777778
0.285,-0.13,2705.5555555555557
0.285,-0.125,2708.3333333333335
0.28,-0.11,2711.1111111111113
0.28,-0.1,2713.8888888888887
0.28,-0.08,2716.6666666666665
0.275,-0.08,2719.4444444444443
0.255,-0.06,2722.222222222222
0.245,-0.06,2725.0
0.225,-0.045,2727.777777777778
0.195,-0.055,2730.5555555555557
0.175,-0.045,2733.3333333333335
0.155,-0.03,2736.1111111111113
0.145,-0.02,2738.8888888888887
0.12,0.0,2741.6666666666665
0.11,0.015,2744.4444444444443
0.09,0.015,2747.222222222222
0.08,0.04,2750.0
0.055,0.055,2752.777777777778
0.02,0.07,2755.5555555555557
0.03,0.07,2758.3333333333335
0.005,0.065,2761.1111111111113
-0.015,0.07,2763.8888888888887
-0.04,0.075,2766.6666666666665
-0.055,0.07,2769.4444444444443
-0.075,0.075,2772.222222222222
-0.1,0.095,2775.0
-0.115,0.11,2777.777777777778
-0.105,0.105,2780.5555555555557
-0.115,0.11,2783.3333333333335
-0.12,0.12,2786.1111111111113
-0.135,0.115,2788.8888888888887
-0.14,0.105,2791.6666666666665
-0.145,0.1,2794.4444444444443
-0.15,0.095,2797.222222222222
-0.155,0.09,2800.0
-0.15,0.1,2802.777777777778
-0.155,0.1,2805.5555555555557
-0.15,0.105,2808.3333333333335
-0.145,0.115,2811.1111111111113
-0.14,0.105,2813.8888888888887
-0.125,0.115,2816.6666666666665
-0.135,0.12,2819.4444444444443
-0.14,0.11,2822.222222222222
-0.13,0.11,2825.0
-0.14,0.1,2827.777777777778
-0.14,0.09,2830.5555555555557
-0.145,0.095,2833.3333333333335
-0.145,0.095,2836.1111111111113
-0.145,0.1,2838.8888888888887
-0.13,0.1,2841.6666666666665
-0.125,0.095,2844.4444444444443
-0.11,0.095,2847.222222222222
-0.11,0.085,2850.0
-0.11,0.09,2852.777777777778
-0.11,0.095,2855.5555555555557
-0.115,0.1,2858.3333333333335
-0.125,0.08,2861.1111111111113
-0.125,0.07,2863.8888888888887
-0.13,0.075,2866.6666666666665
-0.14,0.07,2869.4444444444443
-0.13,0.075,2872.222222222222
-0.125,0.085,2875.0
-0.125,0.075,2877.777777777778
-0.115,0.095,2880.5555555555557
-0.105,0.075,2883.3333333333335
-0.105,0.075,2886.1111111111113
-0.115,0.07,2888.8888888888887
-0.125,0.075,2891.6666666666665
-0.12,0.055,2894.4444444444443
-0.15,0.05,2897.222222222222
-0.15,0.05,2900.0
-0.165,0.065,2902.777777777778
-0.16,0.06,2905.5555555555557
-0.145,0.065,2908.3333333333335
-0.14,0.075,2911.1111111111113
-0.14,0.075,2913.8888888888887
-0.135,0.07,2916.6666666666665
-0.14,0.075,2919.4444444444443
-0.155,0.075,2922.222222222222
-0.165,0.06,2925.0
-0.17,0.06,2927.777777777778
-0.19,0.05,2930.5555555555557
-0.19,0.045,2933.3333333333335
-0.195,0.06,2936.1111111111113
-0.19,0.07,2938.8888888888887
-0.185,0.065,2941.6666666666665
-0.185,0.075,2944.4444444444443
-0.185,0.08,2947.222222222222
-0.185,0.075,2950.0
-0.18,0.085,2952.777777777778
-0.195,0.07,2955.5555555555557
-0.19,0.06,2958.3333333333335
-0.2,0.05,2961.1111111111113
-0.205,0.05,2963.8888888888887
-0.22,0.065,2966.6666666666665
-0.215,0.055,2969.4444444444443
-0.215,0.075,2972.222222222222
-0.215,0.075,2975.0
-0.21,0.08,2977.777777777778
-0.21,0.07,2980.5555555555557
-0.215,0.07,2983.3333333333335
-0.2,0.065,2986.1111111111113
-0.21,0.07,2988.8888888888887
-0.215,0.055,2991.6666666666665
-0.215,0.055,2994.4444444444443
-0.225,0.06,2997.222222222222
-0.24,0.055,3000.0
-0.235,0.065,3002.777777777778
-0.235,0.06,3005.5555555555557
-0.24,0.065,3008.3333333333335
-0.23,0.065,3011.1111111111113
-0.22,0.075,3013.8888888888887
-0.215,0.065,3016.6666666666665
-0.23,0.055,3019.4444444444443
-0.21,0.065,3022.222222222222
-0.21,0.06,3025.0
-0.22,0.065,3027.777777777778
-0.24,0.065,3030.5555555555557
-0.23,0.08,3033.3333333333335
-0.225,0.08,3036.1111111111113
-0.22,0.1,3038.8888888888887
-0.21,0.125,3041.6666666666665
-0.205,0.135,3044.4444444444443
-0.18,0.155,3047.222222222222
-0.17,0.17,3050.0
-0.17,0.165,3052.777777777778
-0.18,0.145,3055.5555555555557
-0.18,0.155,3058.3333333333335
-0.165,0.13,3061.1111111111113
-0.16,0.125,3063.8888888888887
-0.15,0.1,3066.6666666666665
-0.14,0.095,3069.4444444444443
-0.125,0.095,3072.222222222222
-0.1,0.09,3075.0
-0.075,0.09,3077.777777777778
-0.05,0.085,3080.5555555555557
-0.025,0.085,3083.3333333333335
-0.03,0.08,3086.1111111111113
-0.02,0.08,3088.8888888888887
-0.05,0.07,3091.6666666666665
-0.065,0.05,3094.4444444444443
-0.085,0.035,3097.222222222222
-0.09,0.03,3100.0
-0.115,0.05,3102.777777777778
-0.13,0.065,3105.5555555555557
-0.145,0.075,3108.3333333333335
-0.145,0.07,3111.1111111111113
-0.155,0.065,3113.8888888888887
-0.165,0.05,3116.6666666666665
-0.19,0.05,3119.4444444444443
-0.2,0.035,3122.222222222222
-0.22,0.025,3125.0
-0.245,0.02,3127.777777777778
-0.26,0.02,3130.5555555555557
-0.255,0.01,3133.3333333333335
-0.26,0.03,3136.1111111111113
-0.255,0.03,3138.8888888888887
-0.255,0.025,3141.6666666666665
-0.25,0.03,3144.4444444444443
-0.25,0.04,3147.222222222222
-0.245,0.04,3150.0
-0.255,0.045,3152.777777777778
-0.255,0.04,3155.5555555555557
-0.26,0.04,3158.3333333333335
-0.265,0.03,3161.1111111111113
-0.275,0.02,3163.8888888888887
-0.275,0.035,3166.6666666666665
-0.27,0.035,3169.4444444444443
-0.275,0.04,3172.222222222222
-0.27,0.065,3175.0
-0.265,0.05,3177.777777777778
-0.255,0.075,3180.5555555555557
-0.25,0.055,3183.3333333333335
-0.265,0.06,3186.1111111111113
-0.26,0.05,3188.8888888888887
-0.27,0.06,3191.6666666666665
-0.27,0.065,3194.4444444444443
-0.285,0.075,3197.222222222222
-0.295,0.115,3200.0
-0.31,0.145,3202.777777777778
-0.33,0.195,3205.5555555555557
-0.365,0.22,3208.3333333333335
-0.425,0.225,3211.1111111111113
-0.495,0.205,3213.8888888888887
-0.52,0.16,3216.6666666666665
-0.49,0.105,3219.4444444444443
-0.325,0.045,3222.222222222222
-0.06,-0.02,3225.0
0.285,-0.08,3227.777777777778
0.68,-0.11,3230.5555555555557
1.075,-0.125,3233.3333333333335
1.395,-0.13,3236.1111111111113
1.535,-0.105,3238.8888888888887
1.45,-0.1,3241.6666666666665
1.135,-0.09,3244.4444444444443
0.65,-0.05,3247.222222222222
0.13,0.025,3250.0
-0.24,0.165,3252.777777777778
-0.445,0.35,3255.5555555555557
-0.525,0.515,3258.3333333333335
-0.525,0.665,3261.1111111111113
-0.53,0.79,3263.8888888888887
-0.575,0.865,3266.6666666666665
-0.655,0.915,3269.4444444444443
-0.785,0.955,3272.222222222222
-0.89,0.98,3275.0
-0.995,1.01,3277.777777777778
-1.045,0.99,3280.5555555555557
-1.05,0.955,3283.3333333333335
-1.04,0.89,3286.1111111111113
-0.985,0.805,3288.8888888888887
-0.91,0.71,3291.6666666666665
-0.825,0.6,3294.4444444444443
-0.735,0.49,3297.222222222222
-0.635,0.38,3300.0
-0.55,0.285,3302.777777777778
-0.47,0.22,3305.5555555555557
-0.41,0.17,3308.3333333333335
-0.355,0.15,3311.1111111111113
-0.325,0.14,3313.8888888888887
-0.305,0.115,3316.6666666666665
-0.3,0.115,3319.4444444444443
-0.29,0.11,3322.222222222222
-0.28,0.085,3325.0
-0.285,0.075,3327.777777777778
-0.285,0.055,3330.5555555555557
-0.27,0.055,3333.3333333333335
-0.27,0.04,3336.1111111111113
-0.26,0.055,3338.8888888888887
-0.26,0.05,3341.6666666666665
-0.25,0.055,3344.4444444444443
-0.23,0.055,3347.222222222222
-0.23,0.04,3350.0
-0.22,0.045,3352.777777777778
-0.215,0.035,3355.5555555555557
-0.22,0.025,3358.3333333333335
-0.22,0.03,3361.1111111111113
-0.22,0.03,3363.8888888888887
-0.235,0.015,3366.6666666666665
-0.235,0.02,3369.4444444444443
-0.235,0.035,3372.222222222222
-0.22,0.035,3375.0
-0.2,0.05,3377.777777777778
-0.195,0.045,3380.5555555555557
-0.19,0.035,3383.3333333333335
-0.185,0.035,3386.1111111111113
-0.185,0.03,3388.8888888888887
-0.18,0.025,3391.6666666666665
-0.18,0.02,3394.4444444444443
-0.2,0.015,3397.222222222222
-0.19,0.005,3400.0
-0.19,0.01,3402.777777777778
-0.19,0.015,3405.5555555555557
-0.165,0.02,3408.3333333333335
-0.155,0.025,3411.1111111111113
-0.15,0.03,3413.8888888888887
-0.135,0.02,3416.6666666666665
-0.145,0.02,3419.4444444444443
-0.14,0.01,3422.222222222222
-0.14,0.005,3425.0
-0.13,-0.005,3427.777777777778
-0.125,-0.005,3430.5555555555557
-0.125,-0.01,3433.3333333333335
-0.115,-0.01,3436.1111111111113
-0.105,0.0,3438.8888888888887
-0.105,0.0,3441.6666666666665
-0.095,0.0,3444.4444444444443
-0.07,0.005,3447.222222222222
-0.07,-0.005,3450.0
-0.06,0.0,3452.777777777778
-0.055,-0.01,3455.5555555555557
-0.045,-0.015,3458.3333333333335
-0.045,-0.02,3461.1111111111113
-0.04,-0.04,3463.8888888888887
-0.04,-0.04,3466.6666666666665
-0.03,-0.035,3469.4444444444443
-0.015,-0.04,3472.222222222222
-0.005,-0.03,3475.0
0.01,-0.025,3477.777777777778
0.015,-0.025,3480.5555555555557
0.035,-0.035,3483.3333333333335
0.035,-0.04,3486.1111111111113
0.045,-0.035,3488.8888888888887
0.065,-0.06,3491.6666666666665
0.055,-0.07,3494.4444444444443
0.07,-0.06,3497.222222222222
0.075,-0.08,3500.0
0.095,-0.07,3502.777777777778
0.115,-0.08,3505.5555555555557
0.125,-0.07,3508.3333333333335
0.15,-0.085,3511.1111111111113
0.16,-0.07,3513.8888888888887
0.18,-0.08,3516.6666666666665
0.19,-0.08,3519.4444444444443
0.195,-0.09,3522.222222222222
0.215,-0.1,3525.0
0.2,-0.11,3527.777777777778
0.215,-0.12,3530.5555555555557
0.225,-0.115,3533.3333333333335
0.24,-0.125,3536.1111111111113
0.245,-0.115,3538.8888888888887
0.26,-0.115,3541.6666666666665
0.26,-0.105,3544.4444444444443
0.285,-0.11,3547.222222222222
0.29,-0.11,3550.0
0.3,-0.125,3552.777777777778
0.31,-0.125,3555.5555555555557
0.315,-0.13,3558.3333333333335
0.315,-0.125,3561.1111111111113
0.31,-0.13,3563.8888888888887
0.325,-0.13,3566.6666666666665
0.315,-0.135,3569.4444444444443
0.31,-0.115,3572.222222222222
0.33,-0.12,3575.0
0.335,-0.115,3577.777777777778
0.35,-0.1,3580.5555555555557
0.355,-0.1,3583.3333333333335
0.355,-0.09,3586.1111111111113
0.35,-0.09,3588.8888888888887
0.34,-0.095,3591.6666666666665
0.33,-0.09,3594.4444444444443
0.31,-0.095,3597.222222222222
0.295,-0.08,3600.0
0.28,-0.075,3602.777777777778
0.275,-0.06,3605.5555555555557
0.255,-0.055,3608.3333333333335
0.245,-0.025,3611.1111111111113
0.245,-0.01,3613.8888888888887
0.23,-0.01,3616.6666666666665
0.21,-0.005,3619.4444444444443
0.185,-0.005,3622.222222222222
0.16,0.0,3625.0
0.13,0.01,3627.777777777778
0.11,0.015,3630.5555555555557
0.085,0.025,3633.3333333333335
0.06,0.025,3636.1111111111113
0.045,0.04,3638.8888888888887
0.04,0.06,3641.6666666666665
0.025,0.08,3644.4444444444443
0.01,0.08,3647.222222222222
0.005,0.095,3650.0
-0.015,0.09,3652.777777777778
-0.03,0.095,3655.5555555555557
-0.045,0.1,3658.3333333333335
-0.07,0.095,3661.1111111111113
-0.09,0.08,3663.8888888888887
-0.105,0.1,3666.6666666666665
-0.115,0.095,3669.4444444444443
-0.13,0.095,3672.222222222222
-0.13,0.12,3675.0
-0.14,0.12,3677.777777777778
-0.15,0.125,3680.5555555555557
-0.15,0.125,3683.3333333333335
-0.14,0.125,3686.1111111111113
-0.135,0.12,3688.8888888888887
-0.145,0.115,3691.6666666666665
-0.155,0.125,3694.4444444444443
-0.155,0.11,3697.222222222222
-0.17,0.115,3700.0
-0.185,0.12,3702.777777777778
-0.175,0.12,3705.5555555555557
-0.18,0.125,3708.3333333333335
-0.185,0.125,3711.1111111111113
-0.16,0.145,3713.8888888888887
-0.15,0.145,3716.6666666666665
-0.16,0.14,3719.4444444444443
-0.155,0.145,3722.222222222222
-0.15,0.135,3725.0
-0.165,0.13,3727.777777777778
-0.165,0.115,3730.5555555555557
-0.165,0.125,3733.3333333333335
-0.175,0.13,3736.1111111111113
-0.175,0.14,3738.8888888888887
-0.165,0.15,3741.6666666666665
-0.17,0.145,3744.4444444444443
-0.165,0.15,3747.222222222222
-0.155,0.145,3750.0
-0.14,0.14,3752.777777777778
-0.14,0.145,3755.5555555555557
-0.14,0.135,3758.3333333333335
-0.155,0.135,3761.1111111111113
-0.14,0.125,3763.8888888888887
-0.15,0.13,3766.6666666666665
-0.16,0.125,3769.4444444444443
-0.165,0.14,3772.222222222222
-0.15,0.14,3775.0
-0.15,0.15,3777.777777777778
-0.14,0.14,3780.5555555555557
-0.14,0.14,3783.3333333333335
-0.145,0.145,3786.1111111111113
-0.16,0.135,3788.8888888888887
-0.165,0.135,3791.6666666666665
-0.165,0.12,3794.4444444444443
-0.16,0.125,3797.222222222222
-0.17,0.115,3800.0
-0.16,0.125,3802.777777777778
-0.17,0.13,3805.5555555555557
-0.165,0.13,3808.3333333333335
-0.175,0.135,3811.1111111111113
-0.16,0.14,3813.8888888888887
-0.16,0.135,3816.6666666666665
-0.175,0.14,3819.4444444444443
-0.165,0.135,3822.222222222222
-0.165,0.135,3825.0
-0.17,0.115,3827.777777777778
-0.185,0.11,3830.5555555555557
-0.195,0.1,3833.3333333333335
-0.2,0.1,3836.1111111111113
-0.195,0.125,3838.8888888888887
-0.195,0.13,3841.6666666666665
-0.195,0.13,3844.4444444444443
-0.185,0.135,3847.222222222222
-0.185,0.125,3850.0
-0.18,0.14,3852.777777777778
-0.18,0.13,3855.5555555555557
-0.185,0.12,3858.3333333333335
-0.195,0.105,3861.1111111111113
-0.205,0.11,3863.8888888888887
-0.205,0.1,3866.6666666666665
-0.215,0.105,3869.4444444444443
-0.215,0.105,3872.222222222222
-0.215,0.12,3875.0
-0.22,0.125,3877.777777777778
-0.2,0.14,3880.5555555555557
-0.195,0.125,3883.3333333333335
-0.195,0.115,3886.1111111111113
-0.195,0.125,3888.8888888888887
-0.195,0.12,3891.6666666666665
-0.205,0.115,3894.4444444444443
-0.21,0.115,3897.222222222222
-0.22,0.115,3900.0
-0.22,0.11,3902.777777777778
-0.225,0.12,3905.5555555555557
-0.225,0.12,3908.3333333333335
-0.23,0.12,3911.1111111111113
-0.215,0.13,3913.8888888888887
-0.21,0.135,3916.6666666666665
-0.205,0.125,3919.4444444444443
-0.215,0.13,3922.222222222222
-0.21,0.115,3925.0
-0.215,0.11,3927.777777777778
-0.225,0.115,3930.5555555555557
-0.235,0.11,3933.3333333333335
-0.23,0.11,3936.1111111111113
-0.23,0.105,3938.8888888888887
-0.22,0.105,3941.6666666666665
-0.22,0.12,3944.4444444444443
-0.21,0.125,3947.222222222222
-0.2,0.11,3950.0
-0.205,0.135,3952.777777777778
-0.19,0.12,3955.5555555555557
-0.22,0.11,3958.3333333333335
-0.21,0.11,3961.1111111111113
-0.215,0.105,3963.8888888888887
-0.215,0.12,3966.6666666666665
-0.22,0.125,3969.4444444444443
-0.22,0.14,3972.222222222222
-0.215,0.145,3975.0
-0.2,0.17,3977.777777777778
-0.19,0.18,3980.5555555555557
-0.18,0.195,3983.3333333333335
-0.175,0.195,3986.1111111111113
-0.175,0.205,3988.8888888888887
-0.17,0.205,3991.6666666666665
-0.16,0.21,3994.4444444444443
-0.16,0.205,3997.222222222222
-0.16,0.2,4000.0
-0.155,0.19,4002.777777777778
-0.15,0.19,4005.5555555555557
-0.14,0.2,4008.3333333333335
-0.125,0.18,4011.1111111111113
-0.115,0.18,4013.8888888888887
-0.095,0.175,4016.6666666666665
-0.075,0.17,4019.4444444444443
-0.055,0.145,4022.222222222222
-0.045,0.135,4025.0
-0.03,0.115,4027.777777777778
-0.03,0.125,4030.5555555555557
-0.035,0.115,4033.3333333333335
-0.05,0.115,4036.1111111111113
-0.05,0.125,4038.8888888888887
-0.06,0.11,4041.6666666666665
-0.065,0.105,4044.4444444444443
-0.06,0.115,4047.222222222222
-0.07,0.105,4050.0
-0.085,0.12,4052.777777777778
-0.085,0.125,4055.5555555555557
-0.105,0.12,4058.3333333333335
-0.12,0.115,4061.1111111111113
-0.15,0.1,4063.8888888888887
-0.175,0.09,4066.6666666666665
-0.18,0.095,4069.4444444444443
-0.21,0.09,4072.222222222222
-0.225,0.1,4075.0
-0.23,0.105,4077.777777777778
-0.245,0.105,4080.5555555555557
-0.225,0.105,4083.3333333333335
-0.23,0.1,4086.1111111111113
-0.23,0.095,4088.8888888888887
-0.235,0.105,4091.6666666666665
-0.24,0.09,4094.4444444444443
-0.245,0.08,4097.222222222223
-0.25,0.09,4100.0
-0.25,0.085,4102.777777777777
-0.25,0.1,4105.555555555556
-0.245,0.11,4108.333333333333
-0.255,0.11,4111.111111111111
-0.24,0.115,4113.888888888889
-0.235,0.12,4116.666666666667
-0.235,0.115,4119.444444444444
-0.23,0.105,4122.222222222223
-0.245,0.105,4125.0
-0.25,0.1,4127.777777777777
-0.245,0.09,4130.555555555556
-0.255,0.095,4133.333333333333
-0.255,0.09,4136.111111111111
-0.26,0.105,4138.888888888889
-0.245,0.105,4141.666666666667
-0.24,0.12,4144.444444444444
-0.235,0.135,4147.222222222223
-0.235,0.14,4150.0
-0.235,0.145,4152.777777777777
-0.235,0.165,4155.555555555556
-0.25,0.195,4158.333333333333
-0.28,0.23,4161.111111111111
-0.325,0.24,4163.888888888889
-0.375,0.25,4166.666666666667
-0.43,0.245,4169.444444444444
-0.495,0.235,4172.222222222223
-0.525,0.21,4175.0
-0.49,0.165,4177.777777777777
-0.36,0.13,4180.555555555556
-0.135,0.06,4183.333333333333
0.16,0.01,4186.111111111111
0.515,-0.025,4188.888888888889
0.89,-0.06,4191.666666666667
1.22,-0.06,4194.444444444444
1.465,-0.075,4197.222222222223
1.545,-0.065,4200.0
1.43,-0.07,4202.777777777777
1.09,-0.05,4205.555555555556
0.62,-0.005,4208.333333333333
0.16,0.06,4211.111111111111
-0.195,0.185,4213.888888888889
-0.38,0.345,4216.666666666667
-0.45,0.51,4219.444444444444
-0.445,0.66,4222.222222222223
-0.425,0.775,4225.0
-0.44,0.855,4227.777777777777
-0.52,0.905,4230.555555555556
-0.63,0.945,4233.333333333333
-0.765,0.98,4236.111111111111
-0.885,1.01,4238.888888888889
-0.995,1.035,4241.666666666667
-1.035,1.05,4244.444444444444
-1.055,1.035,4247.222222222223
-1.035,0.99,4250.0
-1.005,0.935,4252.777777777777
-0.94,0.84,4255.555555555556
-0.87,0.77,4258.333333333333
-0.79,0.665,4261.111111111111
-0.7,0.555,4263.888888888889
-0.62,0.455,4266.666666666667
-0.535,0.365,4269.444444444444
-0.455,0.295,4272.222222222223
-0.395,0.24,4275.0
-0.34,0.2,4277.777777777777
-0.305,0.185,4280.555555555556
-0.27,0.18,4283.333333333333
-0.27,0.165,4286.111111111111
-0.255,0.165,4288.888888888889
-0.25,0.15,4291.666666666667
-0.24,0.135,4294.444444444444
-0.245,0.12,4297.222222222223
-0.245,0.11,4300.0
-0.25,0.11,4302.777777777777
-0.24,0.11,4305.555555555556
-0.235,0.115,4308.333333333333
-0.225,0.11,4311.111111111111
-0.215,0.12,4313.888888888889
-0.205,0.115,4316.666666666667
-0.205,0.1,4319.444444444444
-0.185,0.1,4322.222222222223
-0.205,0.095,4325.0
-0.205,0.085,4327.777777777777
-0.205,0.07,4330.555555555556
-0.215,0.055,4333.333333333333
-0.22,0.075,4336.111111111111
-0.21,0.075,4338.888888888889
-0.19,0.085,4341.666666666667
-0.17,0.085,4344.444444444444
-0.155,0.095,4347.222222222223
-0.135,0.085,4350.0
-0.15,0.09,4352.777777777777
-0.145,0.075,4355.555555555556
-0.14,0.065,4358.333333333333
-0.135,0.065,4361.111111111111
-0.145,0.055,4363.888888888889
-0.145,0.06,4366.666666666667
-0.145,0.06,4369.444444444444
-0.135,0.055,4372.222222222223
-0.145,0.06,4375.0
-0.135,0.06,4377.777777777777
-0.125,0.07,4380.555555555556
-0.12,0.06,4383.333333333333
-0.12,0.05,4386.111111111111
-0.115,0.05,4388.888888888889
-0.105,0.045,4391.666666666667
-0.1,0.035,4394.444444444444
-0.1,0.025,4397.222222222223
-0.09,0.03,4400.0
-0.075,0.04,4402.777777777777
-0.07,0.035,4405.555555555556
-0.075,0.04,4408.333333333333
-0.065,0.045,4411.111111111111
-0.045,0.05,4413.888888888889
-0.04,0.04,4416.666666666667
-0.04,0.035,4419.444444444444
-0.035,0.03,4422.222222222223
-0.035,0.025,4425.0
-0.03,0.015,4427.777777777777
-0.025,0.01,4430.555555555556
-0.015,0.01,4433.333333333333
-0.005,0.015,4436.111111111111
0.005,0.005,4438.888888888889
0.005,0.005,4441.666666666667
0.03,0.005,4444.444444444444
0.06,0.01,4447.222222222223
0.07,0.005,4450.0
0.075,0.005,4452.777777777777
0.095,0.0,4455.555555555556
0.095,-0.015,4458.333333333333
0.1,-0.035,4461.111111111111
0.12,-0.04,4463.888888888889
0.11,-0.055,4466.666666666667
0.125,-0.055,4469.444444444444
0.14,-0.06,4472.222222222223
0.165,-0.04,4475.0
0.175,-0.055,4477.777777777777
0.195,-0.065,4480.555555555556
0.21,-0.065,4483.333333333333
0.22,-0.065,4486.111111111111
0.23,-0.075,4488.888888888889
0.21,-0.075,4491.666666666667
0.225,-0.085,4494.444444444444
0.25,-0.1,4497.222222222223
0.26,-0.1,4500.0
0.26,-0.1,4502.777777777777
0.275,-0.09,4505.555555555556
0.285,-0.095,4508.333333333333
0.3,-0.1,4511.111111111111
0.31,-0.09,4513.888888888889
0.32,-0.09,4516.666666666667
0.325,-0.085,4519.444444444444
0.33,-0.09,4522.222222222223
0.345,-0.105,4525.0
0.355,-0.115,4527.777777777777
0.365,-0.12,4530.555555555556
0.365,-0.11,4533.333333333333
0.37,-0.11,4536.111111111111
0.39,-0.11,4538.888888888889
0.41,-0.105,4541.666666666667
0.405,-0.095,4544.444444444444
0.405,-0.09,4547.222222222223
0.425,-0.075,4550.0
0.4,-0.07,4552.777777777777
0.395,-0.07,4555.555555555556
0.375,-0.075,4558.333333333333
0.355,-0.075,4561.111111111111
0.32,-0.06,4563.888888888889
0.285,-0.06,4566.666666666667
0.27,-0.045,4569.444444444444
0.255,-0.04,4572.222222222223
0.255,-0.01,4575.0
0.24,-0.01,4577.777777777777
0.24,0.01,4580.555555555556
0.23,0.005,4583.333333333333
0.21,0.02,4586.111111111111
0.17,0.025,4588.888888888889
0.14,0.035,4591.666666666667
0.11,0.035,4594.444444444444
0.075,0.04,4597.222222222223
0.045,0.055,4600.0
0.025,0.065,4602.777777777777
0.005,0.08,4605.555555555556
0.01,0.095,4608.333333333333
-0.005,0.1,4611.111111111111
0.0,0.12,4613.888888888889
0.005,0.11,4616.666666666667
-0.015,0.12,4619.444444444444
-0.04,0.12,4622.222222222223
-0.065,0.115,4625.0
-0.08,0.11,4627.777777777777
-0.095,0.11,4630.555555555556
-0.095,0.12,4633.333333333333
-0.095,0.12,4636.111111111111
-0.095,0.13,4638.888888888889
-0.1,0.14,4641.666666666667
-0.1,0.16,4644.444444444444
-0.105,0.16,4647.222222222223
-0.11,0.16,4650.0
-0.13,0.175,4652.777777777777
-0.15,0.175,4655.555555555556
-0.16,0.16,4658.333333333333
-0.155,0.155,4661.111111111111
-0.165,0.165,4663.888888888889
-0.18,0.16,4666.666666666667
-0.17,0.155,4669.444444444444
-0.17,0.155,4672.222222222223
-0.15,0.165,4675.0
-0.155,0.175,4677.777777777777
-0.125,0.19,4680.555555555556
-0.115,0.19,4683.333333333333
-0.12,0.18,4686.111111111111
-0.11,0.175,4688.888888888889
-0.125,0.17,4691.666666666667
-0.13,0.155,4694.444444444444
-0.16,0.155,4697.222222222223
-0.155,0.155,4700.0
-0.17,0.17,4702.777777777777
-0.155,0.165,4705.555555555556
-0.155,0.17,4708.333333333333
-0.145,0.17,4711.111111111111
-0.13,0.185,4713.888888888889
-0.125,0.185,4716.666666666667
-0.13,0.185,4719.444444444444
-0.12,0.19,4722.222222222223
-0.145,0.17,4725.0
-0.16,0.17,4727.777777777777
-0.155,0.15,4730.555555555556
-0.16,0.15,4733.333333333333
-0.16,0.15,4736.111111111111
-0.16,0.15,4738.888888888889
-0.15,0.15,4741.666666666667
-0.145,0.16,4744.444444444444
-0.15,0.175,4747.222222222223
-0.15,0.17,4750.0
-0.15,0.165,4752.777777777777
-0.15,0.16,4755.555555555556
-0.155,0.16,4758.333333333333
-0.165,0.14,4761.111111111111
-0.17,0.145,4763.888888888889
-0.175,0.135,4766.666666666667
-0.18,0.14,4769.444444444444
-0.185,0.14,4772.222222222223
-0.195,0.15,4775.0
-0.185,0.145,4777.777777777777
-0.18,0.165,4780.555555555556
-0.18,0.165,4783.333333333333
-0.18,0.16,4786.111111111111
-0.175,0.155,4788.888888888889
-0.175,0.145,4791.666666666667
-0.18,0.13,4794.444444444444
-0.185,0.14,4797.222222222223
-0.195,0.13,4800.0
-0.185,0.13,4802.777777777777
-0.185,0.15,4805.555555555556
-0.195,0.145,4808.333333333333
-0.175,0.15,4811.111111111111
-0.18,0.155,4813.888888888889
-0.17,0.155,4816.666666666667
-0.19,0.15,4819.444444444444
-0.19,0.155,4822.222222222223
-0.18,0.15,4825.0
-0.195,0.145,4827.777777777777
-0.22,0.145,4830.555555555556
-0.22,0.145,4833.333333333333
-0.23,0.13,4836.111111111111
-0.235,0.14,4838.888888888889
-0.225,0.15,4841.666666666667
-0.22,0.145,4844.444444444444
-0.215,0.155,4847.222222222223
-0.215,0.155,4850.0
-0.21,0.15,4852.777777777777
-0.2,0.14,4855.555555555556
-0.205,0.14,4858.333333333333
-0.195,0.125,4861.111111111111
-0.195,0.125,4863.888888888889
-0.185,0.125,4866.666666666667
-0.185,0.125,4869.444444444444
-0.2,0.14,4872.222222222223
-0.195,0.16,4875.0
-0.205,0.175,4877.777777777777
-0.2,0.19,4880.555555555556
-0.19,0.195,4883.333333333333
-0.195,0.19,4886.111111111111
-0.2,0.21,4888.888888888889
-0.195,0.205,4891.666666666667
-0.185,0.2,4894.444444444444
-0.18,0.205,4897.222222222223
-0.16,0.205,4900.0
-0.135,0.2,4902.777777777777
-0.135,0.195,4905.555555555556
-0.12,0.18,4908.333333333333
-0.115,0.195,4911.111111111111
-0.12,0.195,4913.888888888889
-0.115,0.205,4916.666666666667
-0.11,0.19,4919.444444444444
-0.11,0.195,4922.222222222223
-0.09,0.18,4925.0
-0.075,0.155,4927.777777777777
-0.055,0.145,4930.555555555556
-0.055,0.14,4933.333333333333
-0.04,0.155,4936.111111111111
-0.04,0.15,4938.888888888889
-0.03,0.15,4941.666666666667
-0.02,0.155,4944.444444444444
-0.02,0.155,4947.222222222223
-0.035,0.145,4950.0
-0.06,0.135,4952.777777777777
-0.075,0.135,4955.555555555556
-0.085,0.145,4958.333333333333
-0.105,0.135,4961.111111111111
-0.12,0.135,4963.888888888889
-0.15,0.125,4966.666666666667
-0.175,0.135,4969.444444444444
-0.185,0.13,4972.222222222223
-0.205,0.13,4975.0
-0.225,0.13,4977.777777777777
-0.23,0.14,4980.555555555556
-0.23,0.14,4983.333333333333
-0.215,0.135,4986.111111111111
-0.215,0.135,4988.888888888889
-0.205,0.12,4991.666666666667
-0.21,0.12,4994.444444444444
-0.225,0.11,4997.222222222223
-0.24,0.115,5000.0
-0.265,0.12,5002.777777777777
-0.265,0.115,5005.555555555556
-0.265,0.125,5008.333333333333
-0.26,0.14,5011.111111111111
-0.245,0.14,5013.888888888889
-0.22,0.14,5016.666666666667
-0.225,0.15,5019.444444444444
-0.225,0.15,5022.222222222223
-0.235,0.135,5025.0
-0.255,0.13,5027.777777777777
-0.265,0.125,5030.555555555556
-0.27,0.13,5033.333333333333
-0.27,0.125,5036.111111111111
-0.255,0.135,5038.888888888889
-0.245,0.145,5041.666666666667
-0.235,0.145,5044.444444444444
-0.22,0.155,5047.222222222223
-0.215,0.17,5050.0
-0.23,0.185,5052.777777777777
-0.22,0.21,5055.555555555556
-0.25,0.24,5058.333333333333
-0.29,0.245,5061.111111111111
-0.355,0.24,5063.888888888889
-0.435,0.235,5066.666666666667
-0.48,0.205,5069.444444444444
-0.47,0.155,5072.222222222223
-0.325,0.08,5075.0
-0.08,0.03,5077.777777777777
0.285,-0.005,5080.555555555556
0.7,-0.03,5083.333333333333
1.095,-0.005,5086.111111111111
1.415,0.035,5088.888888888889
1.57,0.065,5091.666666666667
1.48,0.09,5094.444444444444
1.125,0.095,5097.222222222223
0.56,0.095,5100.0
0.01,0.165,5102.777777777777
-0.415,0.27,5105.555555555556
-0.625,0.4,5108.333333333333
-0.66,0.565,5111.111111111111
-0.615,0.71,5113.888888888889
-0.565,0.82,5116.666666666667
-0.575,0.9,5119.444444444444
-0.605,0.955,5122.222222222223
-0.7,0.99,5125.0
-0.82,1.015,5127.777777777777
-0.91,1.03,5130.555555555556
-0.97,1.035,5133.333333333333
-0.995,1.025,5136.111111111111
-0.995,0.99,5138.888888888889
-0.955,0.93,5141.666666666667
-0.88,0.88,5144.444444444444
-0.785,0.815,5147.222222222223
-0.685,0.715,5150.0
-0.585,0.595,5152.777777777777
-0.5,0.49,5155.555555555556
-0.43,0.375,5158.333333333333
-0.375,0.27,5161.111111111111
-0.32,0.195,5163.888888888889
-0.295,0.16,5166.666666666667
-0.265,0.15,5169.444444444444
-0.245,0.165,5172.222222222223
-0.23,0.17,5175.0
-0.21,0.175,5177.777777777777
-0.205,0.16,5180.555555555556
-0.19,0.15,5183.333333333333
-0.18,0.155,5186.111111111111
-0.185,0.14,5188.888888888889
-0.19,0.105,5191.666666666667
-0.195,0.09,5194.444444444444
-0.2,0.09,5197.222222222223
-0.195,0.09,5200.0
-0.18,0.1,5202.777777777777
-0.165,0.105,5205.555555555556
-0.15,0.11,5208.333333333333
-0.12,0.105,5211.111111111111
-0.125,0.105,5213.888888888889
-0.11,0.11,5216.666666666667
-0.12,0.115,5219.444444444444
-0.135,0.11,5222.222222222223
-0.145,0.09,5225.0
-0.155,0.08,5227.777777777777
-0.17,0.07,5230.555555555556
-0.165,0.055,5233.333333333333
-0.145,0.065,5236.111111111111
-0.12,0.065,5238.888888888889
-0.095,0.075,5241.666666666667
-0.08,0.085,5244.444444444444
-0.075,0.085,5247.222222222223
-0.065,0.105,5250.0
-0.08,0.095,5252.777777777777
-0.09,0.09,5255.555555555556
-0.11,0.07,5258.333333333333
-0.115,0.07,5261.111111111111
-0.12,0.06,5263.888888888889
-0.12,0.055,5266.666666666667
-0.1,0.065,5269.444444444444
-0.085,0.075,5272.222222222223
-0.075,0.08,5275.0
-0.05,0.075,5277.777777777777
-0.025,0.085,5280.555555555556
-0.01,0.085,5283.333333333333
-0.01,0.08,5286.111111111111
-0.015,0.07,5288.888888888889
-0.025,0.055,5291.666666666667
-0.02,0.05,5294.444444444444
-0.03,0.04,5297.222222222223
-0.025,0.035,5300.0
-0.01,0.04,5302.777777777777
-0.005,0.035,5305.555555555556
-0.005,0.035,5308.333333333333
0.005,0.035,5311.111111111111
0.02,0.055,5313.888888888889
0.05,0.045,5316.666666666667
0.065,0.04,5319.444444444444
0.09,0.025,5322.222222222223
0.095,0.025,5325.0
0.085,0.005,5327.777777777777
0.075,-0.005,5330.555555555556
0.065,-0.005,5333.333333333333
0.07,-0.015,5336.111111111111
0.075,-0.005,5338.888888888889
0.08,-0.005,5341.666666666667
0.1,-0.005,5344.444444444444
0.11,0.0,5347.222222222223
0.14,-0.005,5350.0
0.15,-0.01,5352.777777777777
0.165,-0.025,5355.555555555556
0.175,-0.03,5358.333333333333
0.185,-0.045,5361.111111111111
0.19,-0.055,5363.888888888889
0.195,-0.06,5366.666666666667
0.2,-0.07,5369.444444444444
0.205,-0.075,5372.222222222223
0.215,-0.07,5375.0
0.23,-0.06,5377.777777777777
0.245,-0.055,5380.555555555556
0.265,-0.045,5383.333333333333
0.28,-0.06,5386.111111111111
0.285,-0.055,5388.888888888889
0.285,-0.075,5391.666666666667
0.285,-0.085,5394.444444444444
0.295,-0.095,5397.222222222223
0.305,-0.11,5400.0
0.305,-0.09,5402.777777777777
0.33,-0.09,5405.555555555556
0.335,-0.085,5408.333333333333
0.36,-0.085,5411.111111111111
0.355,-0.065,5413.888888888889
0.375,-0.06,5416.666666666667
0.38,-0.06,5419.444444444444
0.38,-0.065,5422.222222222223
0.37,-0.065,5425.0
0.355,-0.06,5427.777777777777
0.34,-0.065,5430.555555555556
0.32,-0.055,5433.333333333333
0.32,-0.045,5436.111111111111
0.29,-0.04,5438.888888888889
0.3,-0.01,5441.666666666667
0.29,-0.005,5444.444444444444
0.275,0.005,5447.222222222223
0.265,0.025,5450.0
0.25,0.035,5452.777777777777
0.235,0.03,5455.555555555556
0.2,0.045,5458.333333333333
0.175,0.045,5461.111111111111
0.165,0.055,5463.888888888889
0.135,0.065,5466.666666666667
0.115,0.075,5469.444444444444
0.095,0.095,5472.222222222223
0.065,0.105,5475.0
0.05,0.11,5477.777777777777
0.03,0.125,5480.555555555556
0.03,0.135,5483.333333333333
0.01,0.135,5486.111111111111
-0.005,0.14,5488.888888888889
-0.005,0.145,5491.666666666667
-0.025,0.145,5494.444444444444
-0.05,0.15,5497.222222222223
-0.06,0.135,5500.0
-0.065,0.155,5502.777777777777
-0.08,0.15,5505.555555555556
-0.085,0.175,5508.333333333333
-0.09,0.185,5511.111111111111
-0.09,0.185,5513.888888888889
-0.1,0.18,5516.666666666667
-0.095,0.18,5519.444444444444
-0.1,0.19,5522.222222222223
-0.105,0.18,5525.0
-0.115,0.175,5527.777777777777
-0.115,0.165,5530.555555555556
-0.125,0.155,5533.333333333333
-0.125,0.16,5536.111111111111
-0.115,0.165,5538.888888888889
-0.13,0.18,5541.666666666667
-0.125,0.19,5544.444444444444
-0.11,0.19,5547.222222222223
-0.11,0.18,5550.0
-0.105,0.18,5552.777777777777
-0.1,0.185,5555.555555555556
-0.105,0.18,5558.333333333333
-0.1,0.17,5561.111111111111
-0.1,0.165,5563.888888888889
-0.11,0.16,5566.666666666667
-0.105,0.155,5569.444444444444
-0.105,0.16,5572.222222222223
-0.095,0.16,5575.0
-0.105,0.17,5577.777777777777
-0.1,0.17,5580.555555555556
-0.095,0.165,5583.333333333333
-0.09,0.17,5586.111111111111
-0.09,0.16,5588.888888888889
-0.075,0.16,5591.666666666667
-0.08,0.145,5594.444444444444
-0.08,0.145,5597.222222222223
-0.095,0.135,5600.0
-0.1,0.13,5602.777777777777
-0.1,0.13,5605.555555555556
-0.105,0.145,5608.333333333333
-0.105,0.145,5611.111111111111
-0.095,0.165,5613.888888888889
-0.095,0.17,5616.666666666667
-0.095,0.155,5619.444444444444
-0.11,0.14,5622.222222222223
-0.11,0.145,5625.0
-0.13,0.14,5627.777777777777
-0.14,0.14,5630.555555555556
-0.15,0.145,5633.333333333333
-0.15,0.155,5636.111111111111
-0.14,0.145,5638.888888888889
-0.145,0.14,5641.666666666667
-0.135,0.155,5644.444444444444
-0.14,0.16,5647.222222222223
-0.135,0.17,5650.0
-0.135,0.155,5652.777777777777
-0.15,0.15,5655.555555555556
-0.155,0.14,5658.333333333333
-0.165,0.145,5661.111111111111
-0.155,0.125,5663.888888888889
-0.17,0.14,5666.666666666667
-0.17,0.14,5669.444444444444
-0.18,0.14,5672.222222222223
-0.175,0.14,5675.0
-0.195,0.14,5677.777777777777
-0.175,0.14,5680.555555555556
-0.16,0.15,5683.333333333333
-0.155,0.145,5686.111111111111
-0.15,0.15,5688.888888888889
-0.155,0.15,5691.666666666667
-0.16,0.135,5694.444444444444
-0.17,0.12,5697.222222222223
-0.18,0.115,5700.0
-0.175,0.125,5702.777777777777
-0.18,0.135,5705.555555555556
-0.18,0.135,5708.333333333333
-0.18,0.135,5711.111111111111
-0.175,0.15,5713.888888888889
-0.17,0.15,5716.666666666667
-0.17,0.15,5719.444444444444
-0.17,0.14,5722.222222222223
-0.17,0.14,5725.0
-0.175,0.15,5727.777777777777
-0.18,0.165,5730.555555555556
-0.175,0.17,5733.333333333333
-0.185,0.17,5736.111111111111
-0.175,0.19,5738.888888888889
-0.16,0.215,5741.666666666667
-0.155,0.22,5744.444444444444
-0.135,0.235,5747.222222222223
-0.125,0.225,5750.0
-0.12,0.22,5752.777777777777
-0.115,0.21,5755.555555555556
-0.115,0.195,5758.333333333333
-0.115,0.175,5761.111111111111
-0.115,0.155,5763.888888888889
-0.095,0.15,5766.666666666667
-0.08,0.14,5769.444444444444
-0.06,0.13,5772.222222222223
-0.045,0.14,5775.0
-0.02,0.14,5777.777777777777
-0.01,0.14,5780.555555555556
0.0,0.15,5783.333333333333
-0.015,0.135,5786.111111111111
-0.02,0.12,5788.888888888889
-0.035,0.1,5791.666666666667
-0.055,0.1,5794.444444444444
-0.075,0.085,5797.222222222223
-0.09,0.09,5800.0
-0.1,0.095,5802.777777777777
-0.105,0.105,5805.555555555556
-0.115,0.115,5808.333333333333
-0.12,0.115,5811.111111111111
-0.135,0.125,5813.888888888889
-0.145,0.115,5816.666666666667
-0.17,0.09,5819.444444444444
-0.185,0.095,5822.222222222223
-0.21,0.095,5825.0
-0.225,0.085,5827.777777777777
-0.235,0.075,5830.555555555556
-0.24,0.075,5833.333333333333
-0.245,0.09,5836.111111111111
-0.24,0.085,5838.888888888889
-0.235,0.095,5841.666666666667
-0.24,0.1,5844.444444444444
-0.24,0.11,5847.222222222223
-0.235,0.095,5850.0
-0.24,0.095,5852.777777777777
-0.25,0.085,5855.555555555556
-0.26,0.08,5858.333333333333
-0.26,0.08,5861.111111111111
-0.265,0.08,5863.888888888889
-0.27,0.075,5866.666666666667
-0.265,0.075,5869.444444444444
-0.27,0.07,5872.222222222223
-0.26,0.085,5875.0
-0.265,0.105,5877.777777777777
-0.25,0.09,5880.555555555556
-0.24,0.095,5883.333333333333
-0.25,0.1,5886.111111111111
-0.25,0.09,5888.888888888889
-0.25,0.09,5891.666666666667
-0.26,0.085,5894.444444444444
-0.265,0.085,5897.222222222223
-0.27,0.08,5900.0
-0.27,0.08,5902.777777777777
-0.275,0.085,5905.555555555556
-0.265,0.09,5908.333333333333
-0.255,0.105,5911.111111111111
-0.25,0.115,5913.888888888889
-0.25,0.115,5916.666666666667
-0.265,0.105,5919.444444444444
-0.245,0.105,5922.222222222223
-0.245,0.105,5925.0
-0.25,0.095,5927.777777777777
-0.275,0.09,5930.555555555556
-0.265,0.09,5933.333333333333
-0.275,0.085,5936.111111111111
-0.27,0.1,5938.888888888889
-0.26,0.105,5941.666666666667
-0.255,0.1,5944.444444444444
-0.25,0.105,5947.222222222223
-0.26,0.105,5950.0
-0.25,0.105,5952.777777777777
-0.25,0.11,5955.555555555556
-0.255,0.095,5958.333333333333
-0.26,0.095,5961.111111111111
-0.265,0.085,5963.888888888889
-0.265,0.08,5966.666666666667
-0.275,0.085,5969.444444444444
-0.275,0.095,5972.222222222223
-0.275,0.095,5975.0
-0.27,0.095,5977.777777777777
-0.26,0.1,5980.555555555556
-0.255,0.11,5983.333333333333
-0.25,0.11,5986.111111111111
-0.25,0.12,5988.888888888889
-0.265,0.1,5991.666666666667
-0.26,0.1,5994.444444444444
-0.275,0.085,5997.222222222223
-0.27,0.085,6000.0
-0.26,0.095,6002.777777777777
-0.27,0.095,6005.555555555556
-0.255,0.115,6008.333333333333
-0.26,0.11,6011.111111111111
-0.255,0.11,6013.888888888889
-0.24,0.1,6016.666666666667
-0.245,0.11,6019.444444444444
-0.24,0.11,6022.222222222223
-0.245,0.095,6025.0
-0.25,0.11,6027.777777777777
-0.255,0.09,6030.555555555556
-0.255,0.09,6033.333333333333
-0.25,0.09,6036.111111111111
-0.26,0.1,6038.888888888889
-0.26,0.1,6041.666666666667
-0.26,0.1,6044.444444444444
-0.255,0.115,6047.222222222223
-0.245,0.125,6050.0
-0.25,0.105,6052.777777777777
-0.245,0.105,6055.555555555556
-0.245,0.105,6058.333333333333
-0.245,0.11,6061.111111111111
-0.25,0.1,6063.888888888889
-0.255,0.09,6066.666666666667
-0.255,0.085,6069.444444444444
-0.26,0.095,6072.222222222223
-0.265,0.1,6075.0
-0.26,0.11,6077.777777777777
-0.25,0.13,6080.555555555556
-0.23,0.115,6083.333333333333
-0.23,0.11,6086.111111111111
-0.225,0.095,6088.888888888889
-0.245,0.105,6091.666666666667
-0.24,0.09,6094.444444444444
-0.245,0.095,6097.222222222223
-0.24,0.1,6100.0
-0.245,0.09,6102.777777777777
-0.24,0.08,6105.555555555556
-0.24,0.09,6108.333333333333
-0.23,0.1,6111.111111111111
-0.225,0.105,6113.888888888889
-0.225,0.105,6116.666666666667
-0.22,0.105,6119.444444444444
-0.215,0.095,6122.222222222223
-0.22,0.09,6125.0
-0.21,0.09,6127.777777777777
-0.22,0.095,6130.555555555556
-0.225,0.085,6133.333333333333
-0.225,0.085,6136.111111111111
-0.21,0.08,6138.888888888889
-0.21,0.085,6141.666666666667
-0.215,0.095,6144.444444444444
-0.2,0.11,6147.222222222223
-0.195,0.12,6150.0
-0.19,0.11,6152.777777777777
-0.19,0.115,6155.555555555556
-0.19,0.095,6158.333333333333
-0.195,0.095,6161.111111111111
-0.215,0.085,6163.888888888889
-0.205,0.09,6166.666666666667
-0.205,0.095,6169.444444444444
-0.205,0.09,6172.222222222223
-0.195,0.095,6175.0
-0.2,0.11,6177.777777777777
-0.185,0.115,6180.555555555556
-0.19,0.115,6183.333333333333
-0.195,0.115,6186.111111111111
-0.18,0.12,6188.888888888889
-0.18,0.1,6191.666666666667
-0.175,0.09,6194.444444444444
-0.18,0.09,6197.222222222223
-0.2,0.09,6200.0
-0.19,0.095,6202.777777777777
-0.195,0.085,6205.555555555556
-0.19,0.1,6208.333333333333
-0.175,0.115,6211.111111111111
-0.165,0.115,6213.888888888889
-0.165,0.11,6216.666666666667
-0.165,0.12,6219.444444444444
-0.17,0.11,6222.222222222223
-0.17,0.105,6225.0
-0.175,0.105,6227.777777777777
-0.18,0.085,6230.555555555556
-0.18,0.09,6233.333333333333
-0.18,0.1,6236.111111111111
-0.19,0.095,6238.888888888889
-0.17,0.095,6241.666666666667
-0.185,0.105,6244.444444444444
-0.18,0.1,6247.222222222223
-0.18,0.11,6250.0
-0.185,0.11,6252.777777777777
-0.18,0.125,6255.555555555556
-0.165,0.105,6258.333333333333
-0.18,0.105,6261.111111111111
-0.18,0.1,6263.888888888889
-0.175,0.085,6266.666666666667
-0.18,0.095,6269.444444444444
-0.185,0.09,6272.222222222223
-0.185,0.095,6275.0
-0.17,0.095,6277.777777777777
-0.165,0.1,6280.555555555556
-0.16,0.095,6283.333333333333
-0.165,0.115,6286.111111111111
-0.15,0.095,6288.888888888889
-0.17,0.09,6291.666666666667
-0.185,0.095,6294.444444444444
-0.185,0.085,6297.222222222223
-0.18,0.08,6300.0
-0.175,0.085,6302.777777777777
-0.175,0.1,6305.555555555556
-0.165,0.09,6308.333333333333
-0.165,0.1,6311.111111111111
-0.155,0.105,6313.888888888889
-0.14,0.105,6316.666666666667
-0.155,0.1,6319.444444444444
-0.155,0.1,6322.222222222223
-0.15,0.1,6325.0
-0.155,0.1,6327.777777777777
-0.155,0.08,6330.555555555556
-0.16,0.08,6333.333333333333
-0.17,0.085,6336.111111111111
-0.17,0.085,6338.888888888889
-0.165,0.095,6341.666666666667
-0.16,0.105,6344.444444444444
-0.16,0.1,6347.222222222223
-0.145,0.12,6350.0
-0.145,0.12,6352.777777777777
-0.145,0.12,6355.555555555556
-0.155,0.1,6358.333333333333
-0.155,0.09,6361.111111111111
-0.155,0.085,6363.888888888889
-0.17,0.08,6366.666666666667
-0.16,0.09,6369.444444444444
-0.17,0.1,6372.222222222223
-0.17,0.095,6375.0
-0.15,0.1,6377.777777777777
-0.16,0.11,6380.555555555556
-0.155,0.115,6383.333333333333
-0.15,0.12,6386.111111111111
-0.14,0.11,6388.888888888889
-0.145,0.11,6391.666666666667
-0.14,0.1,6394.444444444444
-0.14,0.095,6397.222222222223
-0.155,0.095,6400.0
-0.16,0.1,6402.777777777777
-0.155,0.09,6405.555555555556
-0.155,0.1,6408.333333333333
-0.15,0.105,6411.111111111111
-0.14,0.11,6413.888888888889
-0.135,0.11,6416.666666666667
-0.12,0.115,6419.444444444444
-0.13,0.11,6422.222222222223
-0.14,0.09,6425.0
-0.135,0.085,6427.777777777777
-0.155,0.085,6430.555555555556
-0.15,0.085,6433.333333333333
-0.15,0.095,6436.111111111111
-0.14,0.085,6438.888888888889
-0.15,0.085,6441.666666666667
-0.135,0.1,6444.444444444444
-0.135,0.095,6447.222222222223
-0.115,0.105,6450.0
-0.115,0.11,6452.777777777777
-0.12,0.105,6455.555555555556
-0.115,0.105,6458.333333333333
-0.115,0.095,6461.111111111111
-0.13,0.095,6463.888888888889
-0.125,0.085,6466.666666666667
-0.125,0.085,6469.444444444444
-0.125,0.085,6472.222222222223
-0.125,0.1,6475.0
-0.13,0.115,6477.777777777777
-0.125,0.115,6480.555555555556
-0.105,0.125,6483.333333333333
-0.105,0.12,6486.111111111111
-0.12,0.125,6488.888888888889
-0.11,0.1,6491.666666666667
-0.115,0.1,6494.444444444444
-0.125,0.09,6497.222222222223
-0.135,0.09,6500.0
-0.13,0.095,6502.777777777777
-0.125,0.09,6505.555555555556
-0.13,0.095,6508.333333333333
-0.125,0.1,6511.111111111111
-0.125,0.11,6513.888888888889
-0.1,0.11,6516.666666666667
-0.11,0.11,6519.444444444444
-0.11,0.11,6522.222222222223
-0.11,0.11,6525.0
-0.11,0.1,6527.777777777777
-0.115,0.095,6530.555555555556
-0.12,0.09,6533.333333333333
-0.125,0.09,6536.111111111111
-0.14,0.095,6538.888888888889
-0.115,0.1,6541.666666666667
-0.115,0.1,6544.444444444444
-0.12,0.115,6547.222222222223
-0.11,0.1,6550.0
-0.11,0.115,6552.777777777777
-0.1,0.095,6555.555555555556
-0.115,0.105,6558.333333333333
-0.12,0.1,6561.111111111111
-0.125,0.1,6563.888888888889
-0.12,0.095,6566.666666666667
-0.12,0.085,6569.444444444444
-0.12,0.085,6572.222222222223
-0.11,0.105,6575.0
-0.105,0.105,6577.777777777777
-0.105,0.1,6580.555555555556
-0.1,0.11,6583.333333333333
-0.095,0.105,6586.111111111111
-0.095,0.1,6588.888888888889
-0.09,0.11,6591.666666666667
-0.095,0.095,6594.444444444444
-0.095,0.085,6597.222222222223
-0.105,0.075,6600.0
-0.11,0.085,6602.777777777777
-0.1,0.08,6605.555555555556
-0.11,0.09,6608.333333333333
-0.1,0.095,6611.111111111111
-0.1,0.11,6613.888888888889
-0.085,0.125,6616.666666666667
-0.085,0.125,6619.444444444444
-0.085,0.13,6622.222222222223
-0.075,0.125,6625.0
-0.08,0.14,6627.777777777777
-0.08,0.14,6630.555555555556
-0.075,0.16,6633.333333333333
-0.065,0.175,6636.111111111111
-0.06,0.195,6638.888888888889
-0.04,0.21,6641.666666666667
-0.04,0.2,6644.444444444444
-0.035,0.195,6647.222222222223
-0.01,0.2,6650.0
-0.005,0.18,6652.777777777777
-0.005,0.17,6655.555555555556
0.005,0.135,6658.333333333333
0.015,0.13,6661.111111111111
0.035,0.12,6663.888888888889
0.045,0.11,6666.666666666667
0.05,0.115,6669.444444444444
0.09,0.115,6672.222222222223
0.1,0.11,6675.0
0.1,0.11,6677.777777777777
0.105,0.115,6680.555555555556
0.105,0.12,6683.333333333333
0.1,0.095,6686.111111111111
0.085,0.11,6688.888888888889
0.065,0.08,6691.666666666667
0.04,0.09,6694.444444444444
0.03,0.09,6697.222222222223
0.025,0.08,6700.0
-0.005,0.095,6702.777777777777
-0.02,0.09,6705.555555555556
-0.025,0.09,6708.333333333333
-0.03,0.09,6711.111111111111
-0.055,0.09,6713.888888888889
-0.06,0.085,6716.666666666667
-0.085,0.095,6719.444444444444
-0.085,0.085,6722.222222222223
-0.09,0.085,6725.0
-0.095,0.085,6727.777777777777
-0.115,0.065,6730.555555555556
-0.115,0.075,6733.333333333333
-0.125,0.06,6736.111111111111
-0.12,0.075,6738.888888888889
-0.115,0.085,6741.666666666667
-0.11,0.085,6744.444444444444
-0.12,0.095,6747.222222222223
-0.11,0.095,6750.0
-0.125,0.09,6752.777777777777
-0.125,0.085,6755.555555555556
-0.11,0.08,6758.333333333333
-0.11,0.085,6761.111111111111
-0.125,0.075,6763.888888888889
-0.125,0.085,6766.666666666667
-0.12,0.075,6769.444444444444
-0.125,0.08,6772.222222222223
-0.125,0.085,6775.0
-0.115,0.085,6777.777777777777
-0.12,0.1,6780.555555555556
-0.1,0.12,6783.333333333333
-0.105,0.12,6786.111111111111
-0.11,0.145,6788.888888888889
-0.12,0.16,6791.666666666667
-0.145,0.18,6794.444444444444
-0.19,0.2,6797.222222222223
-0.23,0.205,6800.0
-0.3,0.195,6802.777777777777
-0.365,0.185,6805.555555555556
-0.38,0.17,6808.333333333333
-0.315,0.15,6811.111111111111
-0.15,0.105,6813.888888888889
0.12,0.055,6816.666666666667
0.455,0.02,6819.444444444444
0.825,-0.02,6822.222222222223
1.2,-0.065,6825.0
1.52,-0.105,6827.777777777777
1.755,-0.15,6830.555555555556
1.845,-0.195,6833.333333333333
1.755,-0.22,6836.111111111111
1.455,-0.26,6838.888888888889
1.03,-0.26,6841.666666666667
0.6,-0.25,6844.444444444444
0.27,-0.215,6847.222222222223
0.085,-0.18,6850.0
0.02,-0.125,6852.777777777777
0.02,-0.075,6855.555555555556
0.075,-0.045,6858.333333333333
0.1,-0.015,6861.111111111111
0.11,-0.03,6863.888888888889
0.08,-0.015,6866.666666666667
0.03,0.015,6869.444444444444
-0.015,0.055,6872.222222222223
-0.07,0.085,6875.0
-0.105,0.125,6877.777777777777
-0.115,0.145,6880.555555555556
-0.1,0.15,6883.333333333333
-0.11,0.155,6886.111111111111
-0.105,0.145,6888.888888888889
-0.11,0.135,6891.666666666667
-0.115,0.125,6894.444444444444
-0.13,0.12,6897.222222222223
-0.14,0.125,6900.0
-0.15,0.12,6902.777777777777
-0.155,0.155,6905.555555555556
-0.16,0.15,6908.333333333333
-0.155,0.16,6911.111111111111
-0.155,0.17,6913.888888888889
-0.145,0.175,6916.666666666667
-0.145,0.16,6919.444444444444
-0.15,0.165,6922.222222222223
-0.16,0.155,6925.0
-0.17,0.155,6927.777777777777
-0.165,0.155,6930.555555555556
-0.175,0.15,6933.333333333333
-0.18,0.155,6936.111111111111
-0.18,0.145,6938.888888888889
-0.18,0.165,6941.666666666667
-0.165,0.17,6944.444444444444
-0.155,0.17,6947.222222222223
-0.145,0.185,6950.0
-0.145,0.175,6952.777777777777
-0.135,0.17,6955.555555555556
-0.135,0.175,6958.333333333333
-0.15,0.175,6961.111111111111
-0.155,0.16,6963.888888888889
-0.165,0.155,6966.666666666667
-0.16,0.15,6969.444444444444
-0.155,0.16,6972.222222222223
-0.15,0.165,6975.0
-0.145,0.175,6977.777777777777
-0.135,0.185,6980.555555555556
-0.14,0.19,6983.333333333333
-0.135,0.185,6986.111111111111
-0.14,0.175,6988.888888888889
-0.13,0.185,6991.666666666667
-0.13,0.165,6994.444444444444
-0.135,0.16,6997.222222222223
-0.135,0.155,7000.0
-0.135,0.155,7002.777777777777
-0.14,0.175,7005.555555555556
-0.145,0.18,7008.333333333333
-0.14,0.185,7011.111111111111
-0.125,0.195,7013.888888888889
-0.115,0.195,7016.666666666667
-0.11,0.195,7019.444444444444
-0.12,0.195,7022.222222222223
-0.125,0.185,7025.0
-0.125,0.19,7027.777777777777
-0.13,0.175,7030.555555555556
-0.13,0.18,7033.333333333333
-0.115,0.18,7036.111111111111
-0.105,0.185,7038.888888888889
-0.1,0.19,7041.666666666667
-0.1,0.205,7044.444444444444
-0.095,0.205,7047.222222222223
-0.08,0.21,7050.0
-0.07,0.195,7052.777777777777
-0.075,0.21,7055.555555555556
-0.07,0.205,7058.333333333333
-0.08,0.185,7061.111111111111
-0.07,0.185,7063.888888888889
-0.085,0.175,7066.666666666667
-0.075,0.19,7069.444444444444
-0.075,0.19,7072.222222222223
-0.075,0.2,7075.0
-0.055,0.21,7077.777777777777
-0.06,0.21,7080.555555555556
-0.045,0.22,7083.333333333333
-0.035,0.22,7086.111111111111
-0.03,0.22,7088.888888888889
-0.035,0.215,7091.666666666667
-0.045,0.21,7094.444444444444
-0.04,0.2,7097.222222222223
-0.04,0.195,7100.0
-0.055,0.195,7102.777777777777
-0.055,0.22,7105.555555555556
-0.055,0.215,7108.333333333333
-0.05,0.225,7111.111111111111
-0.04,0.235,7113.888888888889
-0.03,0.23,7116.666666666667
-0.01,0.225,7119.444444444444
-0.01,0.215,7122.222222222223
-0.01,0.205,7125.0
-0.015,0.215,7127.777777777777
-0.01,0.205,7130.555555555556
-0.02,0.2,7133.333333333333
-0.015,0.205,7136.111111111111
-0.01,0.2,7138.888888888889
-0.005,0.21,7141.666666666667
0.015,0.21,7144.444444444444
0.035,0.215,7147.222222222223
0.045,0.22,7150.0
0.065,0.205,7152.777777777777
0.07,0.205,7155.555555555556
0.085,0.2,7158.333333333333
0.09,0.195,7161.111111111111
0.11,0.175,7163.888888888889
0.115,0.18,7166.666666666667
0.105,0.17,7169.444444444444
0.12,0.165,7172.222222222223
0.13,0.17,7175.0
0.14,0.165,7177.777777777777
0.165,0.175,7180.555555555556
0.185,0.17,7183.333333333333
0.2,0.165,7186.111111111111
0.21,0.155,7188.888888888889
0.22,0.15,7191.666666666667
0.23,0.135,7194.444444444444
0.255,0.125,7197.222222222223
0.255,0.12,7200.0
0.275,0.12,7202.777777777777
0.285,0.12,7205.555555555556
0.295,0.125,7208.333333333333
0.3,0.135,7211.111111111111
0.325,0.125,7213.888888888889
0.33,0.135,7216.666666666667
0.345,0.12,7219.444444444444
0.34,0.12,7222.222222222223
0.335,0.105,7225.0
0.33,0.095,7227.777777777777
0.31,0.09,7230.555555555556
0.295,0.09,7233.333333333333
0.285,0.095,7236.111111111111
0.28,0.1,7238.888888888889
0.28,0.1,7241.666666666667
0.285,0.095,7244.444444444444
0.29,0.115,7247.222222222223
0.29,0.12,7250.0
0.27,0.115,7252.777777777777
0.255,0.13,7255.555555555556
0.24,0.115,7258.333333333333
0.22,0.12,7261.111111111111
0.195,0.1,7263.888888888889
0.18,0.1,7266.666666666667
0.145,0.11,7269.444444444444
0.145,0.11,7272.222222222223
0.13,0.11,7275.0
0.14,0.125,7277.777777777777
0.145,0.13,7280.555555555556
0.125,0.145,7283.333333333333
0.125,0.14,7286.111111111111
0.115,0.15,7288.888888888889
0.12,0.14,7291.666666666667
0.11,0.15,7294.444444444444
0.085,0.125,7297.222222222223
0.08,0.115,7300.0
0.055,0.14,7302.777777777777
0.045,0.14,7305.555555555556
0.045,0.145,7308.333333333333
0.04,0.17,7311.111111111111
0.05,0.175,7313.888888888889
0.055,0.185,7316.666666666667
0.04,0.175,7319.444444444444
0.035,0.17,7322.222222222223
0.035,0.165,7325.0
0.02,0.16,7327.777777777777
0.01,0.15,7330.555555555556
-0.005,0.145,7333.333333333333
-0.015,0.15,7336.111111111111
-0.01,0.155,7338.888888888889
-0.005,0.165,7341.666666666667
0.005,0.165,7344.444444444444
0.01,0.165,7347.222222222223
0.035,0.175,7350.0
0.035,0.165,7352.777777777777
0.015,0.175,7355.555555555556
0.0,0.16,7358.333333333333
0.01,0.17,7361.111111111111
0.0,0.15,7363.888888888889
-0.015,0.145,7366.666666666667
-0.02,0.14,7369.444444444444
-0.025,0.15,7372.222222222223
-0.02,0.155,7375.0
-0.005,0.16,7377.777777777777
0.0,0.165,7380.555555555556
-0.005,0.17,7383.333333333333
-0.005,0.17,7386.111111111111
-0.01,0.165,7388.888888888889
-0.035,0.155,7391.666666666667
-0.02,0.145,7394.444444444444
-0.02,0.14,7397.222222222223
-0.025,0.135,7400.0
-0.035,0.145,7402.777777777777
-0.035,0.14,7405.555555555556
-0.04,0.145,7408.333333333333
-0.03,0.14,7411.111111111111
-0.035,0.17,7413.888888888889
-0.015,0.155,7416.666666666667
-0.035,0.16,7419.444444444444
-0.04,0.16,7422.222222222223
-0.055,0.15,7425.0
-0.085,0.15,7427.777777777777
-0.075,0.14,7430.555555555556
-0.065,0.125,7433.333333333333
-0.065,0.125,7436.111111111111
-0.055,0.125,7438.888888888889
-0.055,0.135,7441.666666666667
-0.065,0.145,7444.444444444444
-0.065,0.15,7447.222222222223
-0.065,0.16,7450.0
-0.08,0.15,7452.777777777777
-0.1,0.155,7455.555555555556
-0.095,0.135,7458.333333333333
-0.1,0.12,7461.111111111111
-0.1,0.115,7463.888888888889
-0.09,0.1,7466.666666666667
-0.095,0.105,7469.444444444444
-0.085,0.115,7472.222222222223
-0.09,0.13,7475.0
-0.1,0.12,7477.777777777777
-0.09,0.125,7480.555555555556
-0.095,0.14,7483.333333333333
-0.1,0.155,7486.111111111111
-0.085,0.14,7488.888888888889
-0.095,0.13,7491.666666666667
-0.09,0.135,7494.444444444444
-0.095,0.14,7497.222222222223
-0.095,0.135,7500.0
-0.12,0.13,7502.777777777777
-0.1,0.145,7505.555555555556
-0.105,0.125,7508.333333333333
-0.105,0.145,7511.111111111111
-0.105,0.135,7513.888888888889
-0.11,0.15,7516.666666666667
-0.105,0.135,7519.444444444444
-0.12,0.15,7522.222222222223
-0.11,0.145,7525.0
-0.11,0.16,7527.777777777777
-0.11,0.155,7530.555555555556
-0.105,0.175,7533.333333333333
-0.115,0.185,7536.111111111111
-0.125,0.195,7538.888888888889
-0.125,0.195,7541.666666666667
-0.1,0.21,7544.444444444444
-0.095,0.22,7547.222222222223
-0.07,0.225,7550.0
-0.045,0.22,7552.777777777777
-0.03,0.22,7555.555555555556
-0.005,0.195,7558.333333333333
-0.015,0.185,7561.111111111111
-0.025,0.18,7563.888888888889
-0.03,0.175,7566.666666666667
-0.035,0.16,7569.444444444444
-0.02,0.155,7572.222222222223
0.005,0.16,7575.0
0.025,0.165,7577.777777777777
0.06,0.165,7580.555555555556
0.075,0.165,7583.333333333333
0.09,0.155,7586.111111111111
0.085,0.165,7588.888888888889
0.06,0.145,7591.666666666667
0.035,0.125,7594.444444444444
0.01,0.11,7597.222222222223
-0.01,0.1,7600.0
-0.025,0.105,7602.777777777777
-0.04,0.14,7605.555555555556
-0.045,0.145,7608.333333333333
-0.035,0.16,7611.111111111111
-0.045,0.155,7613.888888888889
-0.05,0.15,7616.666666666667
-0.06,0.14,7619.444444444444
-0.085,0.135,7622.222222222223
-0.1,0.115,7625.0
-0.135,0.11,7627.777777777777
-0.145,0.115,7630.555555555556
-0.155,0.115,7633.333333333333
-0.17,0.11,7636.111111111111
-0.18,0.11,7638.888888888889
-0.18,0.13,7641.666666666667
-0.18,0.125,7644.444444444444
-0.17,0.125,7647.222222222223
-0.175,0.125,7650.0
-0.165,0.135,7652.777777777777
-0.175,0.145,7655.555555555556
-0.165,0.135,7658.333333333333
-0.18,0.13,7661.111111111111
-0.185,0.12,7663.888888888889
-0.2,0.11,7666.666666666667
-0.205,0.11,7669.444444444444
-0.21,0.12,7672.222222222223
-0.215,0.13,7675.0
-0.205,0.14,7677.777777777777
-0.185,0.135,7680.555555555556
-0.18,0.145,7683.333333333333
-0.165,0.155,7686.111111111111
-0.16,0.14,7688.888888888889
-0.16,0.13,7691.666666666667
-0.17,0.12,7694.444444444444
-0.19,0.125,7697.222222222223
-0.185,0.125,7700.0
-0.205,0.135,7702.777777777777
-0.19,0.145,7705.555555555556
-0.195,0.185,7708.333333333333
-0.2,0.23,7711.111111111111
-0.22,0.255,7713.888888888889
-0.26,0.26,7716.666666666667
-0.335,0.255,7719.444444444444
-0.405,0.235,7722.222222222223
-0.45,0.2,7725.0
-0.4,0.13,7727.777777777777
-0.26,0.07,7730.555555555556
-0.02,-0.015,7733.333333333333
0.32,-0.05,7736.111111111111
0.715,-0.055,7738.888888888889
1.13,-0.04,7741.666666666667
1.455,0.015,7744.444444444444
1.64,0.065,7747.222222222223
1.6,0.09,7750.0
1.29,0.1,7752.777777777777
0.775,0.095,7755.555555555556
0.215,0.135,7758.333333333333
-0.235,0.225,7761.111111111111
-0.49,0.375,7763.888888888889
-0.575,0.525,7766.666666666667
-0.565,0.67,7769.444444444444
-0.525,0.77,7772.222222222223
-0.51,0.865,7775.0
-0.535,0.945,7777.777777777777
-0.605,0.995,7780.555555555556
-0.685,1.03,7783.333333333333
-0.79,1.055,7786.111111111111
-0.865,1.08,7788.888888888889
-0.92,1.075,7791.666666666667
-0.935,1.055,7794.444444444444
-0.93,1.01,7797.222222222223
-0.9,0.945,7800.0
-0.85,0.88,7802.777777777777
-0.77,0.805,7805.555555555556
-0.68,0.72,7808.333333333333
-0.575,0.62,7811.111111111111
-0.475,0.515,7813.888888888889
-0.4,0.415,7816.666666666667
-0.325,0.32,7819.444444444444
-0.29,0.265,7822.222222222223
-0.23,0.22,7825.0
-0.205,0.19,7827.777777777777
-0.2,0.18,7830.555555555556
-0.19,0.175,7833.333333333333
-0.19,0.165,7836.111111111111
-0.2,0.165,7838.888888888889
-0.185,0.155,7841.666666666667
-0.18,0.15,7844.444444444444
-0.165,0.14,7847.222222222223
-0.145,0.15,7850.0
-0.135,0.14,7852.777777777777
-0.13,0.145,7855.555555555556
-0.12,0.12,7858.333333333333
-0.13,0.12,7861.111111111111
-0.13,0.115,7863.888888888889
-0.125,0.095,7866.666666666667
-0.13,0.105,7869.444444444444
-0.125,0.105,7872.222222222223
-0.11,0.11,7875.0
-0.095,0.12,7877.777777777777
-0.09,0.12,7880.555555555556
-0.09,0.125,7883.333333333333
-0.08,0.105,7886.111111111111
-0.085,0.095,7888.888888888889
-0.08,0.085,7891.666666666667
-0.08,0.085,7894.444444444444
-0.095,0.08,7897.222222222223
-0.085,0.07,7900.0
-0.095,0.08,7902.777777777777
-0.085,0.075,7905.555555555556
-0.085,0.08,7908.333333333333
-0.075,0.09,7911.111111111111
-0.05,0.1,7913.888888888889
-0.04,0.1,7916.666666666667
-0.045,0.1,7919.444444444444
-0.03,0.09,7922.222222222223
-0.03,0.08,7925.0
-0.035,0.08,7927.777777777777
-0.055,0.07,7930.555555555556
-0.08,0.05,7933.333333333333
-0.06,0.06,7936.111111111111
-0.045,0.065,7938.888888888889
-0.03,0.065,7941.666666666667
-0.02,0.055,7944.444444444444
-0.005,0.065,7947.222222222223
0.02,0.065,7950.0
0.025,0.065,7952.777777777777
0.045,0.065,7955.555555555556
0.04,0.06,7958.333333333333
0.05,0.04,7961.111111111111
0.055,0.035,7963.888888888889
0.05,0.025,7966.666666666667
0.04,0.04,7969.444444444444
0.06,0.035,7972.222222222223
0.05,0.035,7975.0
0.07,0.035,7977.777777777777
0.1,0.035,7980.555555555556
0.125,0.035,7983.333333333333
0.135,0.03,7986.111111111111
0.145,0.025,7988.888888888889
0.17,0.015,7991.666666666667
0.16,-0.005,7994.444444444444
0.16,-0.015,7997.222222222223
0.16,-0.01,8000.0
0.15,-0.035,8002.777777777777
0.175,-0.035,8005.555555555556
0.185,-0.045,8008.333333333333
0.215,-0.04,8011.111111111111
0.22,-0.04,8013.888888888889
0.25,-0.04,8016.666666666667
0.27,-0.035,8019.444444444444
0.29,-0.04,8022.222222222223
0.3,-0.04,8025.0
0.315,-0.065,8027.777777777777
0.325,-0.08,8030.555555555556
0.32,-0.08,8033.333333333333
0.3,-0.08,8036.111111111111
0.315,-0.085,8038.888888888889
0.32,-0.065,8041.666666666667
0.33,-0.075,8044.444444444444
0.35,-0.07,8047.222222222223
0.36,-0.05,8050.0
0.365,-0.055,8052.777777777777
0.365,-0.075,8055.555555555556
0.375,-0.08,8058.333333333333
0.37,-0.085,8061.111111111111
0.385,-0.11,8063.888888888889
0.375,-0.11,8066.666666666667
0.38,-0.12,8069.444444444444
0.4,-0.105,8072.222222222223
0.39,-0.09,8075.0
0.4,-0.065,8077.777777777777
0.4,-0.06,8080.555555555556
0.385,-0.035,8083.333333333333
0.385,-0.045,8086.111111111111
0.37,-0.045,8088.888888888889
0.36,-0.03,8091.666666666667
0.35,-0.045,8094.444444444444
0.335,-0.04,8097.222222222223
0.32,-0.03,8100.0
0.3,-0.01,8102.777777777777
0.285,-0.005,8105.555555555556
0.27,0.015,8108.333333333333
0.245,0.015,8111.111111111111
0.235,0.045,8113.888888888889
0.21,0.045,8116.666666666667
0.2,0.075,8119.444444444444
0.175,0.085,8122.222222222223
0.155,0.095,8125.0
0.115,0.09,8127.777777777777
0.095,0.1,8130.555555555556
0.07,0.085,8133.333333333333
0.055,0.11,8136.111111111111
0.05,0.135,8138.888888888889
0.04,0.125,8141.666666666667
0.03,0.15,8144.444444444444
0.01,0.16,8147.222222222223
0.0,0.17,8150.0
-0.02,0.18,8152.777777777777
-0.04,0.185,8155.555555555556
-0.045,0.165,8158.333333333333
-0.05,0.165,8161.111111111111
-0.06,0.175,8163.888888888889
-0.075,0.17,8166.666666666667
-0.105,0.175,8169.444444444444
-0.12,0.185,8172.222222222223
-0.125,0.195,8175.0
-0.105,0.205,8177.777777777777
-0.1,0.21,8180.555555555556
-0.08,0.23,8183.333333333333
-0.065,0.23,8186.111111111111
-0.075,0.225,8188.888888888889
-0.09,0.215,8191.666666666667
-0.11,0.21,8194.444444444445
-0.12,0.19,8197.222222222223
-0.13,0.18,8200.0
-0.13,0.19,8202.777777777777
-0.13,0.19,8205.555555555555
-0.12,0.19,8208.333333333334
-0.115,0.205,8211.111111111111
-0.11,0.215,8213.888888888889
-0.105,0.215,8216.666666666666
-0.085,0.22,8219.444444444445
-0.08,0.215,8222.222222222223
-0.075,0.205,8225.0
-0.08,0.195,8227.777777777777
-0.09,0.19,8230.555555555555
-0.09,0.18,8233.333333333334
-0.105,0.18,8236.111111111111
-0.095,0.195,8238.888888888889
-0.1,0.19,8241.666666666666
-0.095,0.18,8244.444444444445
-0.08,0.195,8247.222222222223
-0.08,0.2,8250.0
-0.08,0.2,8252.777777777777
-0.08,0.2,8255.555555555555
-0.08,0.185,8258.333333333334
-0.085,0.185,8261.111111111111
-0.085,0.17,8263.888888888889
-0.095,0.165,8266.666666666666
-0.095,0.17,8269.444444444445
-0.105,0.175,8272.222222222223
-0.105,0.17,8275.0
-0.1,0.185,8277.777777777777
-0.095,0.19,8280.555555555555
-0.09,0.195,8283.333333333334
-0.08,0.18,8286.111111111111
-0.095,0.17,8288.888888888889
-0.095,0.17,8291.666666666666
-0.1,0.18,8294.444444444445
-0.11,0.17,8297.222222222223
-0.11,0.155,8300.0
-0.115,0.165,8302.777777777777
-0.13,0.165,8305.555555555555
-0.13,0.18,8308.333333333334
-0.115,0.18,8311.111111111111
-0.12,0.18,8313.888888888889
-0.12,0.2,8316.666666666666
-0.105,0.185,8319.444444444445
-0.115,0.185,8322.222222222223
-0.13,0.185,8325.0
-0.13,0.185,8327.777777777777
-0.14,0.17,8330.555555555555
-0.13,0.165,8333.333333333334
-0.135,0.16,8336.111111111111
-0.14,0.15,8338.888888888889
-0.145,0.17,8341.666666666666
-0.135,0.165,8344.444444444445
-0.14,0.185,8347.222222222223
-0.13,0.185,8350.0
-0.13,0.185,8352.777777777777
-0.14,0.175,8355.555555555555
-0.145,0.175,8358.333333333334
-0.15,0.16,8361.111111111111
-0.15,0.17,8363.888888888889
-0.145,0.16,8366.666666666666
-0.165,0.17,8369.444444444445
-0.155,0.18,8372.222222222223
-0.145,0.2,8375.0
-0.145,0.205,8377.777777777777
-0.13,0.23,8380.555555555555
-0.115,0.24,8383.333333333334
-0.105,0.24,8386.111111111111
-0.095,0.25,8388.888888888889
-0.085,0.245,8391.666666666666
-0.08,0.235,8394.444444444445
-0.08,0.22,8397.222222222223
-0.085,0.195,8400.0
-0.08,0.205,8402.777777777777
-0.07,0.205,8405.555555555555
-0.055,0.21,8408.333333333334
-0.035,0.2,8411.111111111111
-0.015,0.2,8413.888888888889
0.005,0.205,8416.666666666666
0.025,0.185,8419.444444444445
0.035,0.185,8422.222222222223
0.035,0.18,8425.0
0.035,0.17,8427.777777777777
0.01,0.14,8430.555555555555
-0.005,0.13,8433.333333333334
-0.02,0.115,8436.111111111111
-0.025,0.13,8438.888888888889
-0.035,0.135,8441.666666666666
-0.04,0.15,8444.444444444445
-0.05,0.16,8447.222222222223
-0.06,0.165,8450.0
-0.085,0.15,8452.777777777777
-0.105,0.15,8455.555555555555
-0.12,0.125,8458.333333333334
-0.14,0.13,8461.111111111111
-0.17,0.11,8463.888888888889
-0.18,0.115,8466.666666666666
-0.195,0.12,8469.444444444445
-0.2,0.115,8472.222222222223
-0.2,0.125,8475.0
-0.2,0.135,8477.777777777777
-0.205,0.14,8480.555555555555
-0.19,0.14,8483.333333333334
-0.195,0.13,8486.111111111111
-0.2,0.13,8488.888888888889
-0.21,0.12,8491.666666666666
-0.215,0.12,8494.444444444445
-0.21,0.105,8497.222222222223
-0.225,0.11,8500.0
-0.23,0.12,8502.777777777777
-0.225,0.12,8505.555555555555
-0.235,0.13,8508.333333333334
-0.22,0.115,8511.111111111111
-0.225,0.135,8513.888888888889
-0.21,0.14,8516.666666666666
-0.21,0.13,8519.444444444445
-0.2,0.13,8522.222222222223
-0.21,0.135,8525.0
-0.22,0.14,8527.777777777777
-0.215,0.125,8530.555555555555
-0.22,0.145,8533.333333333334
-0.225,0.15,8536.111111111111
-0.225,0.175,8538.888888888889
-0.24,0.215,8541.666666666666
-0.265,0.24,8544.444444444445
-0.295,0.265,8547.222222222223
-0.36,0.26,8550.0
-0.43,0.255,8552.777777777777
-0.46,0.21,8555.555555555555
-0.41,0.145,8558.333333333334
-0.23,0.06,8561.111111111111
0.04,-0.005,8563.888888888889
0.425,-0.05,8566.666666666666
0.835,-0.07,8569.444444444445
1.23,-0.05,8572.222222222223
1.495,-0.015,8575.0
1.54,0.01,8577.777777777777
1.315,0.03,8580.555555555555
0.835,0.06,8583.333333333334
0.31,0.13,8586.111111111111
-0.13,0.255,8588.888888888889
-0.39,0.395,8591.666666666666
-0.5,0.565,8594.444444444445
-0.515,0.72,8597.222222222223
-0.51,0.835,8600.0
-0.545,0.91,8602.777777777777
-0.61,0.97,8605.555555555555
-0.7,1.015,8608.333333333334
-0.81,1.065,8611.111111111111
-0.895,1.08,8613.888888888889
-0.945,1.08,8616.666666666666
-0.945,1.05,8619.444444444445
-0.93,0.98,8622.222222222223
-0.87,0.875,8625.0
-0.825,0.785,8627.777777777777
-0.745,0.675,8630.555555555555
-0.655,0.575,8633.333333333334
-0.555,0.46,8636.111111111111
-0.465,0.37,8638.888888888889
-0.41,0.275,8641.666666666666
-0.335,0.24,8644.444444444445
-0.295,0.2,8647.222222222223
-0.26,0.195,8650.0
-0.235,0.17,8652.777777777777
-0.23,0.16,8655.555555555555
-0.22,0.15,8658.333333333334
-0.225,0.13,8661.111111111111
-0.205,0.125,8663.888888888889
-0.21,0.125,8666.666666666666
-0.205,0.11,8669.444444444445
-0.19,0.105,8672.222222222223
-0.195,0.105,8675.0
-0.18,0.105,8677.777777777777
-0.175,0.1,8680.555555555555
-0.165,0.095,8683.333333333334
-0.155,0.11,8686.111111111111
-0.155,0.1,8688.888888888889
-0.155,0.09,8691.666666666666
-0.165,0.09,8694.444444444445
-0.15,0.07,8697.222222222223
-0.155,0.065,8700.0
-0.17,0.07,8702.777777777777
-0.16,0.055,8705.555555555555
-0.16,0.065,8708.333333333334
-0.14,0.065,8711.111111111111
-0.12,0.075,8713.888888888889
-0.125,0.08,8716.666666666666
-0.125,0.07,8719.444444444445
-0.13,0.065,8722.222222222223
-0.11,0.055,8725.0
-0.115,0.055,8727.777777777777
-0.11,0.05,8730.555555555555
-0.11,0.04,8733.333333333334
-0.115,0.04,8736.111111111111
-0.13,0.035,8738.888888888889
-0.12,0.04,8741.666666666666
-0.105,0.05,8744.444444444445
-0.07,0.045,8747.222222222223
-0.065,0.055,8750.0
-0.055,0.045,8752.777777777777
-0.065,0.045,8755.555555555555
-0.06,0.05,8758.333333333334
-0.05,0.03,8761.111111111111
-0.05,0.035,8763.888888888889
-0.045,0.025,8766.666666666666
-0.04,0.02,8769.444444444445
-0.045,0.015,8772.222222222223
-0.03,0.02,8775.0
-0.02,0.025,8777.777777777777
-0.01,0.035,8780.555555555555
0.005,0.04,8783.333333333334
0.015,0.025,8786.111111111111
0.035,0.025,8788.888888888889
0.03,0.015,8791.666666666666
0.035,0.01,8794.444444444445
0.03,0.01,8797.222222222223
0.04,-0.005,8800.0
0.05,-0.02,8802.777777777777
0.06,-0.025,8805.555555555555
0.055,-0.005,8808.333333333334
0.085,-0.01,8811.111111111111
0.095,-0.015,8813.888888888889
0.11,-0.01,8816.666666666666
0.125,-0.03,8819.444444444445
0.115,-0.025,8822.222222222223
0.135,-0.025,8825.0
0.14,-0.035,8827.777777777777
0.14,-0.055,8830.555555555555
0.15,-0.065,8833.333333333334
0.16,-0.07,8836.111111111111
0.165,-0.07,8838.888888888889
0.185,-0.06,8841.666666666666
0.2,-0.065,8844.444444444445
0.215,-0.06,8847.222222222223
0.235,-0.06,8850.0
0.25,-0.06,8852.777777777777
0.26,-0.075,8855.555555555555
0.265,-0.08,8858.333333333334
0.275,-0.075,8861.111111111111
0.275,-0.08,8863.888888888889
0.265,-0.085,8866.666666666666
0.255,-0.105,8869.444444444445
0.28,-0.095,8872.222222222223
0.29,-0.085,8875.0
0.3,-0.09,8877.777777777777
0.31,-0.08,8880.555555555555
0.32,-0.08,8883.333333333334
0.345,-0.09,8886.111111111111
0.355,-0.07,8888.888888888889
0.355,-0.075,8891.666666666666
0.35,-0.07,8894.444444444445
0.37,-0.09,8897.222222222223
0.365,-0.085,8900.0
0.355,-0.075,8902.777777777777
0.35,-0.075,8905.555555555555
0.365,-0.055,8908.333333333334
0.365,-0.05,8911.111111111111
0.37,-0.045,8913.888888888889
0.375,-0.025,8916.666666666666
0.36,-0.02,8919.444444444445
0.34,-0.02,8922.222222222223
0.325,-0.005,8925.0
0.325,-0.015,8927.777777777777
0.295,0.005,8930.555555555555
0.275,0.01,8933.333333333334
0.245,0.005,8936.111111111111
0.225,0.025,8938.888888888889
0.22,0.045,8941.666666666666
0.19,0.065,8944.444444444445
0.175,0.08,8947.222222222223
0.155,0.085,8950.0
0.14,0.085,8952.777777777777
0.11,0.1,8955.555555555555
0.09,0.105,8958.333333333334
0.07,0.095,8961.111111111111
0.055,0.09,8963.888888888889
0.025,0.09,8966.666666666666
0.0,0.1,8969.444444444445
-0.02,0.095,8972.222222222223
-0.025,0.11,8975.0
-0.045,0.12,8977.777777777777
-0.05,0.125,8980.555555555555
-0.06,0.13,8983.333333333334
-0.065,0.13,8986.111111111111
-0.065,0.13,8988.888888888889
-0.065,0.14,8991.666666666666
-0.08,0.13,8994.444444444445
-0.09,0.125,8997.222222222223
-0.1,0.125,9000.0
-0.11,0.12,9002.777777777777
-0.115,0.125,9005.555555555555
-0.105,0.135,9008.333333333334
-0.105,0.135,9011.111111111111
-0.105,0.14,9013.888888888889
-0.095,0.14,9016.666666666666
-0.09,0.15,9019.444444444445
-0.08,0.155,9022.222222222223
-0.09,0.155,9025.0
-0.095,0.145,9027.777777777777
-0.105,0.135,9030.555555555555
-0.11,0.13,9033.333333333334
-0.12,0.125,9036.111111111111
-0.115,0.13,9038.888888888889
-0.105,0.13,9041.666666666666
-0.11,0.14,9044.444444444445
-0.09,0.15,9047.222222222223
-0.09,0.155,9050.0
-0.08,0.155,9052.777777777777
-0.08,0.145,9055.555555555555
-0.065,0.14,9058.333333333334
-0.085,0.14,9061.111111111111
-0.075,0.13,9063.888888888889
-0.08,0.12,9066.666666666666
-0.08,0.115,9069.444444444445
-0.09,0.12,9072.222222222223
-0.085,0.115,9075.0
-0.07,0.115,9077.777777777777
-0.08,0.125,9080.555555555555
-0.06,0.14,9083.333333333334
-0.06,0.14,9086.111111111111
-0.055,0.135,9088.888888888889
-0.07,0.145,9091.666666666666
-0.07,0.13,9094.444444444445
-0.075,0.125,9097.222222222223
-0.075,0.12,9100.0
-0.09,0.1,9102.777777777777
-0.09,0.105,9105.555555555555
-0.1,0.115,9108.333333333334
-0.08,0.12,9111.111111111111
-0.095,0.13,9113.888888888889
-0.075,0.135,9116.666666666666
-0.085,0.14,9119.444444444445
-0.105,0.13,9122.222222222223
-0.1,0.125,9125.0
-0.085,0.11,9127.777777777777
-0.105,0.11,9130.555555555555
-0.115,0.105,9133.333333333334
-0.115,0.1,9136.111111111111
-0.12,0.11,9138.888888888889
-0.12,0.12,9141.666666666666
-0.12,0.125,9144.444444444445
-0.115,0.14,9147.222222222223
-0.11,0.13,9150.0
-0.12,0.13,9152.777777777777
-0.115,0.12,9155.555555555555
-0.12,0.11,9158.333333333334
-0.125,0.115,9161.111111111111
-0.135,0.105,9163.888888888889
-0.14,0.105,9166.666666666666
-0.155,0.095,9169.444444444445
-0.16,0.105,9172.222222222223
-0.15,0.11,9175.0
-0.155,0.115,9177.777777777777
-0.145,0.12,9180.555555555555
-0.15,0.13,9183.333333333334
-0.14,0.12,9186.111111111111
-0.15,0.105,9188.888888888889
-0.145,0.12,9191.666666666666
-0.145,0.1,9194.444444444445
-0.16,0.11,9197.222222222223
-0.165,0.1,9200.0
-0.165,0.105,9202.777777777777
-0.155,0.105,9205.555555555555
-0.165,0.12,9208.333333333334
-0.16,0.125,9211.111111111111
-0.145,0.13,9213.888888888889
-0.15,0.14,9216.666666666666
-0.14,0.13,9219.444444444445
-0.145,0.14,9222.222222222223
-0.16,0.135,9225.0
-0.165,0.115,9227.777777777777
-0.16,0.105,9230.555555555555
-0.165,0.125,9233.333333333334
-0.175,0.115,9236.111111111111
-0.17,0.105,9238.888888888889
-0.16,0.115,9241.666666666666
-0.17,0.115,9244.444444444445
-0.155,0.135,9247.222222222223
-0.155,0.135,9250.0
-0.14,0.13,9252.777777777777
-0.15,0.13,9255.555555555555
-0.145,0.115,9258.333333333334
-0.145,0.12,9261.111111111111
-0.145,0.115,9263.888888888889
-0.165,0.115,9266.666666666666
-0.16,0.12,9269.444444444445
-0.165,0.115,9272.222222222223
-0.155,0.13,9275.0
-0.165,0.14,9277.777777777777
-0.155,0.155,9280.555555555555
-0.145,0.155,9283.333333333334
-0.135,0.18,9286.111111111111
-0.135,0.19,9288.888888888889
-0.13,0.195,9291.666666666666
-0.115,0.19,9294.444444444445
-0.115,0.205,9297.222222222223
-0.12,0.21,9300.0
-0.115,0.21,9302.777777777777
-0.105,0.205,9305.555555555555
-0.1,0.205,9308.333333333334
-0.09,0.205,9311.111111111111
-0.08,0.2,9313.888888888889
-0.065,0.205,9316.666666666666
-0.055,0.205,9319.444444444445
-0.05,0.195,9322.222222222223
-0.04,0.17,9325.0
-0.025,0.155,9327.777777777777
-0.015,0.15,9330.555555555555
0.005,0.14,9333.333333333334
0.02,0.14,9336.111111111111
0.02,0.145,9338.888888888889
0.035,0.14,9341.666666666666
0.025,0.14,9344.444444444445
0.015,0.135,9347.222222222223
0.01,0.14,9350.0
0.01,0.135,9352.777777777777
-0.01,0.125,9355.555555555555
-0.02,0.13,9358.333333333334
-0.03,0.125,9361.111111111111
-0.05,0.125,9363.888888888889
-0.05,0.125,9366.666666666666
-0.065,0.115,9369.444444444445
-0.095,0.115,9372.222222222223
-0.115,0.115,9375.0
-0.12,0.115,9377.777777777777
-0.135,0.125,9380.555555555555
-0.15,0.135,9383.333333333334
-0.15,0.115,9386.111111111111
-0.15,0.115,9388.888888888889
-0.165,0.115,9391.666666666666
-0.18,0.11,9394.444444444445
-0.205,0.095,9397.222222222223
-0.19,0.105,9400.0
-0.205,0.095,9402.777777777777
-0.21,0.095,9405.555555555555
-0.215,0.11,9408.333333333334
-0.21,0.11,9411.111111111111
-0.195,0.115,9413.888888888889
-0.2,0.13,9416.666666666666
-0.19,0.12,9419.444444444445
-0.19,0.12,9422.222222222223
-0.185,0.12,9425.0
-0.21,0.12,9427.777777777777
-0.2,0.1,9430.555555555555
-0.205,0.1,9433.333333333334
-0.205,0.1,9436.111111111111
-0.21,0.11,9438.888888888889
-0.21,0.12,9441.666666666666
-0.2,0.13,9444.444444444445
-0.2,0.135,9447.222222222223
-0.195,0.155,9450.0
-0.18,0.165,9452.777777777777
-0.195,0.18,9455.555555555555
-0.195,0.21,9458.333333333334
-0.215,0.235,9461.111111111111
-0.24,0.265,9463.888888888889
-0.295,0.27,9466.666666666666
-0.355,0.26,9469.444444444445
-0.43,0.245,9472.222222222223
-0.46,0.22,9475.0
-0.425,0.185,9477.777777777777
-0.295,0.125,9480.555555555555
-0.045,0.08,9483.333333333334
0.29,0.035,9486.111111111111
0.68,0.0,9488.888888888889
1.07,-0.015,9491.666666666666
1.39,-0.035,9494.444444444445
1.59,-0.045,9497.222222222223
1.605,-0.045,9500.0
1.38,-0.04,9502.777777777777
0.96,-0.01,9505.555555555555
0.45,0.045,9508.333333333334
0.01,0.16,9511.111111111111
-0.28,0.33,9513.888888888889
-0.41,0.52,9516.666666666666
-0.44,0.685,9519.444444444445
-0.43,0.83,9522.222222222223
-0.44,0.905,9525.0
-0.495,0.965,9527.777777777777
-0.595,1.015,9530.555555555555
-0.73,1.045,9533.333333333334
-0.855,1.06,9536.111111111111
-0.95,1.07,9538.888888888889
-1.0,1.07,9541.666666666666
-1.0,1.035,9544.444444444445
-0.965,0.975,9547.222222222223
-0.915,0.9,9550.0
-0.82,0.815,9552.777777777777
-0.735,0.705,9555.555555555555
-0.64,0.6,9558.333333333334
-0.535,0.48,9561.111111111111
-0.47,0.375,9563.888888888889
-0.39,0.3,9566.666666666666
-0.35,0.245,9569.444444444445
-0.305,0.22,9572.222222222223
-0.27,0.205,9575.0
-0.245,0.205,9577.777777777777
-0.225,0.205,9580.555555555555
-0.215,0.195,9583.333333333334
-0.21,0.195,9586.111111111111
-0.21,0.19,9588.888888888889
-0.195,0.17,9591.666666666666
-0.185,0.15,9594.444444444445
-0.195,0.14,9597.222222222223
-0.185,0.13,9600.0
-0.195,0.125,9602.777777777777
-0.185,0.13,9605.555555555555
-0.175,0.14,9608.333333333334
-0.17,0.135,9611.111111111111
-0.16,0.14,9613.888888888889
-0.16,0.135,9616.666666666666
-0.14,0.145,9619.444444444445
-0.145,0.125,9622.222222222223
-0.14,0.13,9625.0
-0.145,0.12,9627.777777777777
-0.155,0.095,9630.555555555555
-0.145,0.095,9633.333333333334
-0.16,0.11,9636.111111111111
-0.17,0.09,9638.888888888889
-0.155,0.095,9641.666666666666
-0.14,0.105,9644.444444444445
-0.135,0.11,9647.222222222223
-0.135,0.11,9650.0
-0.12,0.115,9652.777777777777
-0.11,0.12,9655.555555555555
-0.115,0.115,9658.333333333334
-0.125,0.11,9661.111111111111
-0.11,0.105,9663.888888888889
-0.12,0.09,9666.666666666666
-0.12,0.08,9669.444444444445
-0.11,0.095,9672.222222222223
-0.11,0.09,9675.0
-0.1,0.1,9677.777777777777
-0.09,0.11,9680.555555555555
-0.085,0.11,9683.333333333334
-0.065,0.095,9686.111111111111
-0.07,0.105,9688.888888888889
-0.07,0.09,9691.666666666666
-0.075,0.08,9694.444444444445
-0.08,0.075,9697.222222222223
-0.075,0.075,9700.0
-0.06,0.075,9702.777777777777
-0.05,0.065,9705.555555555555
-0.04,0.08,9708.333333333334
-0.035,0.085,9711.111111111111
-0.02,0.08,9713.888888888889
-0.015,0.085,9716.666666666666
0.005,0.09,9719.444444444445
0.015,0.085,9722.222222222223
0.025,0.07,9725.0
0.015,0.07,9727.777777777777
0.025,0.06,9730.555555555555
0.03,0.045,9733.333333333334
0.03,0.04,9736.111111111111
0.035,0.04,9738.888888888889
0.05,0.06,9741.666666666666
0.055,0.055,9744.444444444445
0.065,0.05,9747.222222222223
0.085,0.06,9750.0
0.11,0.05,9752.777777777777
0.115,0.05,9755.555555555555
0.125,0.03,9758.333333333334
0.13,0.04,9761.111111111111
0.13,0.025,9763.888888888889
0.135,0.0,9766.666666666666
0.14,0.015,9769.444444444445
0.155,-0.005,9772.222222222223
0.17,0.0,9775.0
0.185,0.005,9777.777777777777
0.2,0.01,9780.555555555555
0.225,0.0,9783.333333333334
0.235,-0.005,9786.111111111111
0.245,0.0,9788.888888888889
0.265,-0.015,9791.666666666666
0.265,-0.02,9794.444444444445
0.265,-0.04,9797.222222222223
0.28,-0.035,9800.0
0.285,-0.045,9802.777777777777
0.3,-0.05,9805.555555555555
0.32,-0.045,9808.333333333334
0.335,-0.05,9811.111111111111
0.35,-0.035,9813.888888888889
0.35,-0.025,9816.666666666666
0.37,-0.025,9819.444444444445
0.38,-0.035,9822.222222222223
0.385,-0.04,9825.0
0.385,-0.035,9827.777777777777
0.39,-0.05,9830.555555555555
0.38,-0.04,9833.333333333334
0.39,-0.05,9836.111111111111
0.395,-0.035,9838.888888888889
0.4,-0.03,9841.666666666666
0.405,-0.015,9844.444444444445
0.415,-0.03,9847.222222222223
0.43,-0.02,9850.0
0.435,-0.03,9852.777777777777
0.43,-0.015,9855.555555555555
0.425,-0.02,9858.333333333334
0.425,-0.015,9861.111111111111
0.41,-0.02,9863.888888888889
0.395,-0.015,9866.666666666666
0.38,-0.01,9869.444444444445
0.37,0.005,9872.222222222223
0.36,0.01,9875.0
0.34,0.025,9877.777777777777
0.34,0.025,9880.555555555555
0.325,0.055,9883.333333333334
0.305,0.065,9886.111111111111
0.29,0.07,9888.888888888889
0.265,0.065,9891.666666666666
0.25,0.065,9894.444444444445
0.225,0.07,9897.222222222223
0.185,0.075,9900.0
0.17,0.085,9902.777777777777
0.14,0.09,9905.555555555555
0.11,0.11,9908.333333333334
0.105,0.125,9911.111111111111
0.085,0.13,9913.888888888889
0.09,0.165,9916.666666666666
0.09,0.16,9919.444444444445
0.075,0.16,9922.222222222223
0.06,0.165,9925.0
0.035,0.155,9927.777777777777
0.025,0.17,9930.555555555555
0.005,0.16,9933.333333333334
-0.02,0.165,9936.111111111111
-0.025,0.175,9938.888888888889
-0.035,0.175,9941.666666666666
-0.04,0.185,9944.444444444445
-0.035,0.205,9947.222222222223
-0.03,0.21,9950.0
-0.035,0.205,9952.777777777777
-0.035,0.205,9955.555555555555
-0.04,0.2,9958.333333333334
-0.055,0.195,9961.111111111111
-0.06,0.195,9963.888888888889
-0.075,0.19,9966.666666666666
-0.095,0.19,9969.444444444445
-0.095,0.195,9972.222222222223
-0.1,0.19,9975.0
-0.095,0.2,9977.777777777777
-0.09,0.205,9980.555555555555
-0.07,0.225,9983.333333333334
-0.065,0.22,9986.111111111111
-0.07,0.21,9988.888888888889
-0.07,0.215,9991.666666666666
-0.075,0.205,9994.444444444445
-0.08,0.19,9997.222222222223
-0.095,0.185,10000.0
-0.1,0.2,10002.777777777777
-0.095,0.18,10005.555555555555
-0.09,0.185,10008.333333333334
-0.095,0.19,10011.111111111111
-0.095,0.2,10013.888888888889
-0.075,0.22,10016.666666666666
-0.075,0.215,10019.444444444445
-0.08,0.205,10022.222222222223
-0.06,0.2,10025.0
-0.065,0.205,10027.777777777777
-0.07,0.195,10030.555555555555
-0.075,0.19,10033.333333333334
-0.095,0.19,10036.111111111111
-0.085,0.185,10038.888888888889
-0.08,0.18,10041.666666666666
-0.085,0.19,10044.444444444445
-0.085,0.2,10047.222222222223
-0.085,0.2,10050.0
-0.08,0.205,10052.777777777777
-0.085,0.2,10055.555555555555
-0.09,0.19,10058.333333333334
-0.1,0.19,10061.111111111111
-0.095,0.18,10063.888888888889
-0.115,0.17,10066.666666666666
-0.125,0.17,10069.444444444445
-0.12,0.17,10072.222222222223
-0.125,0.18,10075.0
-0.12,0.185,10077.777777777777
-0.12,0.185,10080.555555555555
-0.125,0.195,10083.333333333334
-0.11,0.19,10086.111111111111
-0.11,0.19,10088.888888888889
-0.11,0.185,10091.666666666666
-0.12,0.185,10094.444444444445
-0.13,0.17,10097.222222222223
-0.14,0.165,10100.0
-0.155,0.165,10102.777777777777
-0.165,0.16,10105.555555555555
-0.15,0.165,10108.333333333334
-0.135,0.165,10111.111111111111
-0.14,0.18,10113.888888888889
-0.125,0.175,10116.666666666666
-0.13,0.185,10119.444444444445
-0.14,0.18,10122.222222222223
-0.145,0.17,10125.0
-0.16,0.18,10127.777777777777
-0.175,0.165,10130.555555555555
-0.175,0.16,10133.333333333334
-0.16,0.165,10136.111111111111
-0.15,0.16,10138.888888888889
-0.145,0.16,10141.666666666666
-0.14,0.17,10144.444444444445
-0.14,0.18,10147.222222222223
-0.135,0.195,10150.0
-0.135,0.185,10152.777777777777
-0.125,0.175,10155.555555555555
-0.145,0.175,10158.333333333334
-0.165,0.165,10161.111111111111
-0.18,0.16,10163.888888888889
-0.195,0.155,10166.666666666666
-0.195,0.155,10169.444444444445
-0.18,0.135,10172.222222222223
-0.185,0.155,10175.0
-0.175,0.165,10177.777777777777
-0.185,0.17,10180.555555555555
-0.17,0.17,10183.333333333334
-0.175,0.165,10186.111111111111
-0.18,0.17,10188.888888888889
-0.165,0.165,10191.666666666666
-0.165,0.17,10194.444444444445
-0.165,0.17,10197.222222222223
-0.165,0.17,10200.0
-0.175,0.17,10202.777777777777
-0.175,0.16,10205.555555555555
-0.175,0.165,10208.333333333334
-0.165,0.175,10211.111111111111
-0.165,0.195,10213.888888888889
-0.175,0.21,10216.666666666666
-0.165,0.215,10219.444444444445
-0.16,0.235,10222.222222222223
-0.135,0.23,10225.0
-0.145,0.245,10227.777777777777
-0.13,0.24,10230.555555555555
-0.13,0.235,10233.333333333334
-0.14,0.24,10236.111111111111
-0.13,0.225,10238.888888888889
-0.13,0.235,10241.666666666666
-0.13,0.235,10244.444444444445
-0.115,0.23,10247.222222222223
-0.075,0.23,10250.0
-0.06,0.235,10252.777777777777
-0.04,0.22,10255.555555555555
-0.02,0.21,10258.333333333334
-0.01,0.185,10261.111111111111
-0.005,0.17,10263.888888888889
-0.005,0.175,10266.666666666666
-0.02,0.165,10269.444444444445
-0.015,0.165,10272.222222222223
-0.02,0.175,10275.0
-0.015,0.175,10277.777777777777
-0.005,0.165,10280.555555555555
-0.01,0.18,10283.333333333334
-0.005,0.185,10286.111111111111
-0.025,0.205,10288.888888888889
-0.045,0.19,10291.666666666666
-0.075,0.2,10294.444444444445
-0.09,0.175,10297.222222222223
-0.12,0.165,10300.0
-0.125,0.155,10302.777777777777
-0.14,0.15,10305.555555555555
-0.17,0.155,10308.333333333334
-0.175,0.16,10311.111111111111
-0.185,0.165,10313.888888888889
-0.18,0.165,10316.666666666666
-0.175,0.165,10319.444444444445
-0.175,0.16,10322.222222222223
-0.18,0.155,10325.0
-0.19,0.14,10327.777777777777
-0.21,0.14,10330.555555555555
-0.215,0.13,10333.333333333334
-0.215,0.13,10336.111111111111
-0.225,0.135,10338.888888888889
-0.22,0.135,10341.666666666666
-0.215,0.155,10344.444444444445
-0.205,0.155,10347.222222222223
-0.2,0.16,10350.0
-0.21,0.16,10352.777777777777
-0.21,0.155,10355.555555555555
-0.22,0.165,10358.333333333334
-0.24,0.16,10361.111111111111
-0.23,0.14,10363.888888888889
-0.235,0.14,10366.666666666666
-0.22,0.13,10369.444444444445
-0.225,0.14,10372.222222222223
-0.205,0.165,10375.0
-0.195,0.165,10377.777777777777
-0.185,0.175,10380.555555555555
-0.19,0.205,10383.333333333334
-0.19,0.225,10386.111111111111
-0.2,0.26,10388.888888888889
-0.22,0.28,10391.666666666666
-0.255,0.3,10394.444444444445
-0.315,0.305,10397.222222222223
-0.37,0.29,10400.0
-0.435,0.245,10402.777777777777
-0.455,0.215,10405.555555555555
-0.395,0.15,10408.333333333334
-0.215,0.095,10411.111111111111
0.055,0.03,10413.888888888889
0.415,0.0,10416.666666666666
0.82,-0.02,10419.444444444445
1.18,-0.01,10422.222222222223
1.46,0.03,10425.0
1.575,0.045,10427.777777777777
1.465,0.075,10430.555555555555
1.105,0.075,10433.333333333334
0.58,0.09,10436.111111111111
0.075,0.155,10438.888888888889
-0.315,0.27,10441.666666666666
-0.51,0.435,10444.444444444445
-0.55,0.595,10447.222222222223
-0.515,0.75,10450.0
-0.49,0.855,10452.777777777777
-0.5,0.945,10455.555555555555
-0.56,0.995,10458.333333333334
-0.655,1.015,10461.111111111111
-0.77,1.05,10463.888888888889
-0.87,1.06,10466.666666666666
-0.94,1.08,10469.444444444445
-0.97,1.075,10472.222222222223
-0.975,1.03,10475.0
-0.93,0.995,10477.777777777777
-0.875,0.94,10480.555555555555
-0.81,0.89,10483.333333333334
-0.73,0.81,10486.111111111111
-0.65,0.715,10488.888888888889
-0.575,0.605,10491.666666666666
-0.495,0.49,10494.444444444445
-0.425,0.38,10497.222222222223
-0.36,0.3,10500.0
-0.325,0.245,10502.777777777777
-0.28,0.21,10505.555555555555
-0.245,0.215,10508.333333333334
-0.23,0.21,10511.111111111111
-0.21,0.205,10513.888888888889
-0.205,0.215,10516.666666666666
-0.195,0.195,10519.444444444445
-0.19,0.19,10522.222222222223
-0.18,0.17,10525.0
-0.18,0.16,10527.777777777777
-0.18,0.15,10530.555555555555
-0.175,0.14,10533.333333333334
-0.175,0.12,10536.111111111111
-0.18,0.13,10538.888888888889
-0.17,0.115,10541.666666666666
-0.165,0.125,10544.444444444445
-0.14,0.14,10547.222222222223
-0.125,0.155,10550.0
-0.13,0.15,10552.777777777777
-0.125,0.135,10555.555555555555
-0.115,0.135,10558.333333333334
-0.12,0.12,10561.111111111111
-0.13,0.115,10563.888888888889
-0.125,0.095,10566.666666666666
-0.14,0.105,10569.444444444445
-0.14,0.105,10572.222222222223
-0.135,0.1,10575.0
-0.135,0.115,10577.777777777777
-0.13,0.11,10580.555555555555
-0.11,0.115,10583.333333333334
-0.105,0.125,10586.111111111111
-0.095,0.115,10588.888888888889
-0.075,0.12,10591.666666666666
-0.07,0.11,10594.444444444445
-0.08,0.105,10597.222222222223
-0.075,0.09,10600.0
-0.085,0.095,10602.777777777777
-0.07,0.085,10605.555555555555
-0.08,0.075,10608.333333333334
-0.07,0.095,10611.111111111111
-0.075,0.115,10613.888888888889
-0.075,0.1,10616.666666666666
-0.06,0.095,10619.444444444445
-0.05,0.09,10622.222222222223
-0.03,0.1,10625.0
-0.03,0.075,10627.777777777777
-0.025,0.075,10630.555555555555
-0.015,0.07,10633.333333333334
-0.01,0.07,10636.111111111111
-0.005,0.07,10638.888888888889
-0.005,0.07,10641.666666666666
0.005,0.07,10644.444444444445
0.015,0.07,10647.222222222223
0.03,0.09,10650.0
0.05,0.08,10652.777777777777
0.055,0.065,10655.555555555555
0.065,0.07,10658.333333333334
0.065,0.055,10661.111111111111
0.06,0.04,10663.888888888889
0.05,0.045,10666.666666666666
0.055,0.035,10669.444444444445
0.065,0.03,10672.222222222223
0.08,0.025,10675.0
0.09,0.03,10677.777777777777
0.1,0.015,10680.555555555555
0.115,0.025,10683.333333333334
0.145,0.035,10686.111111111111
0.15,0.02,10688.888888888889
0.175,0.03,10691.666666666666
0.175,0.0,10694.444444444445
0.18,0.0,10697.222222222223
0.18,-0.005,10700.0
0.185,-0.01,10702.777777777777
0.19,-0.02,10705.555555555555
0.195,-0.025,10708.333333333334
0.21,-0.02,10711.111111111111
0.215,-0.02,10713.888888888889
0.24,-0.02,10716.666666666666
0.255,-0.03,10719.444444444445
0.265,-0.025,10722.222222222223
0.29,-0.045,10725.0
0.295,-0.05,10727.777777777777
0.295,-0.055,10730.555555555555
0.315,-0.07,10733.333333333334
0.325,-0.065,10736.111111111111
0.335,-0.07,10738.888888888889
0.33,-0.07,10741.666666666666
0.32,-0.06,10744.444444444445
0.32,-0.055,10747.222222222223
0.335,-0.06,10750.0
0.35,-0.05,10752.777777777777
0.36,-0.05,10755.555555555555
0.385,-0.045,10758.333333333334
0.395,-0.07,10761.111111111111
0.42,-0.065,10763.888888888889
0.415,-0.075,10766.666666666666
0.41,-0.075,10769.444444444445
0.41,-0.07,10772.222222222223
0.395,-0.08,10775.0
0.395,-0.055,10777.777777777777
0.385,-0.045,10780.555555555555
0.385,-0.035,10783.333333333334
0.4,-0.03,10786.111111111111
0.395,-0.02,10788.888888888889
0.375,-0.01,10791.666666666666
0.355,-0.005,10794.444444444445
0.33,-0.01,10797.222222222223
0.32,0.0,10800.0
0.295,0.0,10802.777777777777
0.27,0.01,10805.555555555555
0.255,0.025,10808.333333333334
0.24,0.04,10811.111111111111
0.215,0.065,10813.888888888889
0.21,0.085,10816.666666666666
0.195,0.095,10819.444444444445
0.165,0.115,10822.222222222223
0.14,0.115,10825.0
0.125,0.115,10827.777777777777
0.085,0.1,10830.555555555555
0.065,0.13,10833.333333333334
0.05,0.135,10836.111111111111
0.02,0.135,10838.888888888889
0.0,0.145,10841.666666666666
-0.01,0.155,10844.444444444445
-0.015,0.165,10847.222222222223
-0.025,0.175,10850.0
-0.025,0.185,10852.777777777777
-0.035,0.18,10855.555555555555
-0.05,0.19,10858.333333333334
-0.06,0.19,10861.111111111111
-0.065,0.18,10863.888888888889
-0.08,0.17,10866.666666666666
-0.1,0.175,10869.444444444445
-0.09,0.185,10872.222222222223
-0.105,0.185,10875.0
-0.105,0.185,10877.777777777777
-0.1,0.205,10880.555555555555
-0.09,0.21,10883.333333333334
-0.08,0.215,10886.111111111111
-0.09,0.22,10888.888888888889
-0.1,0.22,10891.666666666666
-0.095,0.215,10894.444444444445
-0.09,0.205,10897.222222222223
-0.09,0.185,10900.0
-0.08,0.18,10902.777777777777
-0.095,0.185,10905.555555555555
-0.095,0.195,10908.333333333334
-0.09,0.195,10911.111111111111
-0.085,0.195,10913.888888888889
-0.085,0.21,10916.666666666666
-0.065,0.205,10919.444444444445
-0.06,0.2,10922.222222222223
-0.05,0.205,10925.0
-0.055,0.195,10927.777777777777
-0.045,0.2,10930.555555555555
-0.055,0.18,10933.333333333334
-0.06,0.185,10936.111111111111
-0.07,0.17,10938.888888888889
-0.08,0.185,10941.666666666666
-0.07,0.18,10944.444444444445
-0.06,0.185,10947.222222222223
-0.06,0.19,10950.0
-0.065,0.19,10952.777777777777
-0.06,0.2,10955.555555555555
-0.065,0.2,10958.333333333334
-0.07,0.185,10961.111111111111
-0.08,0.18,10963.888888888889
-0.075,0.155,10966.666666666666
-0.075,0.17,10969.444444444445
-0.105,0.17,10972.222222222223
-0.105,0.18,10975.0
-0.09,0.185,10977.777777777777
-0.085,0.19,10980.555555555555
-0.09,0.19,10983.333333333334
-0.095,0.195,10986.111111111111
-0.09,0.195,10988.888888888889
-0.1,0.195,10991.666666666666
-0.11,0.185,10994.444444444445
-0.1,0.18,10997.222222222223
-0.115,0.175,11000.0
-0.11,0.165,11002.777777777777
-0.115,0.165,11005.555555555555
-0.12,0.175,11008.333333333334
-0.12,0.17,11011.111111111111
-0.115,0.185,11013.888888888889
-0.105,0.185,11016.666666666666
-0.11,0.18,11019.444444444445
-0.105,0.18,11022.222222222223
-0.105,0.19,11025.0
-0.11,0.185,11027.777777777777
-0.12,0.175,11030.555555555555
-0.13,0.175,11033.333333333334
-0.14,0.165,11036.111111111111
-0.135,0.175,11038.888888888889
-0.145,0.17,11041.666666666666
-0.14,0.165,11044.444444444445
-0.14,0.18,11047.222222222223
-0.13,0.185,11050.0
-0.125,0.195,11052.777777777777
-0.12,0.19,11055.555555555555
-0.115,0.2,11058.333333333334
-0.11,0.205,11061.111111111111
-0.12,0.2,11063.888888888889
-0.11,0.22,11066.666666666666
-0.115,0.215,11069.444444444445
-0.12,0.23,11072.222222222223
-0.1,0.24,11075.0
-0.095,0.245,11077.777777777777
-0.075,0.245,11080.555555555555
-0.065,0.24,11083.333333333334
-0.05,0.245,11086.111111111111
-0.045,0.245,11088.888888888889
-0.04,0.235,11091.666666666666
-0.04,0.235,11094.444444444445
-0.035,0.21,11097.222222222223
-0.025,0.21,11100.0
-0.01,0.195,11102.777777777777
0.01,0.19,11105.555555555555
0.025,0.185,11108.333333333334
0.035,0.185,11111.111111111111
0.045,0.195,11113.888888888889
0.05,0.19,11116.666666666666
0.045,0.2,11119.444444444445
0.04,0.185,11122.222222222223
0.025,0.18,11125.0
0.015,0.16,11127.777777777777
-0.005,0.17,11130.555555555555
-0.02,0.17,11133.333333333334
-0.05,0.165,11136.111111111111
-0.065,0.155,11138.888888888889
-0.095,0.17,11141.666666666666
-0.11,0.165,11144.444444444445
-0.12,0.155,11147.222222222223
-0.125,0.165,11150.0
-0.135,0.18,11152.777777777777
-0.145,0.17,11155.555555555555
-0.16,0.16,11158.333333333334
-0.18,0.16,11161.111111111111
-0.185,0.16,11163.888888888889
-0.205,0.14,11166.666666666666
-0.205,0.14,11169.444444444445
-0.205,0.14,11172.222222222223
-0.205,0.135,11175.0
-0.215,0.16,11177.777777777777
-0.21,0.16,11180.555555555555
-0.195,0.16,11183.333333333334
-0.19,0.16,11186.111111111111
-0.2,0.165,11188.888888888889
-0.195,0.155,11191.666666666666
-0.2,0.16,11194.444444444445
-0.21,0.15,11197.222222222223
-0.22,0.15,11200.0
-0.23,0.155,11202.777777777777
-0.24,0.15,11205.555555555555
-0.23,0.165,11208.333333333334
-0.225,0.165,11211.111111111111
-0.21,0.185,11213.888888888889
-0.215,0.18,11216.666666666666
-0.21,0.185,11219.444444444445
-0.215,0.185,11222.222222222223
-0.21,0.195,11225.0
-0.2,0.205,11227.777777777777
-0.21,0.21,11230.555555555555
-0.22,0.23,11233.333333333334
-0.24,0.255,11236.111111111111
-0.28,0.29,11238.888888888889
-0.325,0.3,11241.666666666666
-0.38,0.295,11244.444444444445
-0.45,0.265,11247.222222222223
-0.445,0.22,11250.0
-0.375,0.155,11252.777777777777
-0.175,0.085,11255.555555555555
0.125,0.015,11258.333333333334
0.515,-0.02,11261.111111111111
0.925,-0.01,11263.888888888889
1.29,0.0,11266.666666666666
1.52,0.05,11269.444444444445
1.525,0.06,11272.222222222223
1.235,0.08,11275.0
0.74,0.115,11277.777777777777
0.2,0.165,11280.555555555555
-0.23,0.29,11283.333333333334
-0.48,0.445,11286.111111111111
-0.555,0.615,11288.888888888889
-0.55,0.765,11291.666666666666
-0.52,0.86,11294.444444444445
-0.53,0.94,11297.222222222223
-0.585,0.975,11300.0
-0.68,1.02,11302.777777777777
-0.8,1.05,11305.555555555555
-0.895,1.09,11308.333333333334
-0.96,1.1,11311.111111111111
-0.965,1.105,11313.888888888889
-0.96,1.05,11316.666666666666
-0.915,0.985,11319.444444444445
-0.855,0.895,11322.222222222223
-0.785,0.8,11325.0
-0.69,0.695,11327.777777777777
-0.6,0.58,11330.555555555555
-0.52,0.47,11333.333333333334
-0.455,0.38,11336.111111111111
-0.385,0.31,11338.888888888889
-0.33,0.26,11341.666666666666
-0.29,0.23,11344.444444444445
-0.265,0.23,11347.222222222223
-0.245,0.205,11350.0
-0.22,0.205,11352.777777777777
-0.21,0.205,11355.555555555555
-0.215,0.2,11358.333333333334
-0.215,0.185,11361.111111111111
-0.21,0.165,11363.888888888889
-0.195,0.155,11366.666666666666
-0.19,0.135,11369.444444444445
-0.19,0.14,11372.222222222223
-0.195,0.135,11375.0
-0.19,0.13,11377.777777777777
-0.175,0.13,11380.555555555555
-0.155,0.14,11383.333333333334
-0.145,0.135,11386.111111111111
-0.145,0.14,11388.888888888889
-0.15,0.125,11391.666666666666
-0.14,0.13,11394.444444444445
-0.145,0.1,11397.222222222223
-0.155,0.095,11400.0
-0.165,0.105,11402.777777777777
-0.165,0.115,11405.555555555555
-0.165,0.105,11408.333333333334
-0.15,0.115,11411.111111111111
-0.15,0.12,11413.888888888889
-0.14,0.125,11416.666666666666
-0.13,0.135,11419.444444444445
-0.12,0.125,11422.222222222223
-0.12,0.115,11425.0
-0.12,0.105,11427.777777777777
-0.13,0.105,11430.555555555555
-0.12,0.09,11433.333333333334
-0.12,0.085,11436.111111111111
-0.12,0.09,11438.888888888889
-0.12,0.095,11441.666666666666
-0.105,0.09,11444.444444444445
-0.1,0.095,11447.222222222223
-0.095,0.1,11450.0
-0.075,0.095,11452.777777777777
-0.065,0.095,11455.555555555555
-0.06,0.095,11458.333333333334
-0.055,0.075,11461.111111111111
-0.065,0.075,11463.888888888889
-0.06,0.065,11466.666666666666
-0.06,0.07,11469.444444444445
-0.07,0.065,11472.222222222223
-0.055,0.06,11475.0
-0.04,0.065,11477.777777777777
-0.03,0.07,11480.555555555555
-0.035,0.075,11483.333333333334
0.005,0.07,11486.111111111111
0.0,0.065,11488.888888888889
-0.005,0.06,11491.666666666666
0.005,0.04,11494.444444444445
0.01,0.04,11497.222222222223
0.02,0.035,11500.0
0.025,0.035,11502.777777777777
0.03,0.025,11505.555555555555
0.03,0.035,11508.333333333334
0.04,0.025,11511.111111111111
0.055,0.03,11513.888888888889
0.07,0.04,11516.666666666666
0.095,0.035,11519.444444444445
