MLII,V1,time_ms
-0.245,0.21,0.0
-0.245,0.21,2.7777777777777777
-0.245,0.21,5.555555555555555
-0.245,0.21,8.333333333333334
-0.245,0.21,11.11111111111111
-0.245,0.21,13.88888888888889
-0.245,0.21,16.666666666666668
-0.245,0.21,19.444444444444443
-0.24,0.21,22.22222222222222
-0.235,0.215,25.0
-0.195,0.205,27.77777777777778
-0.18,0.215,30.555555555555557
-0.155,0.215,33.333333333333336
-0.135,0.21,36.111111111111114
-0.125,0.205,38.888888888888886
-0.14,0.215,41.666666666666664
-0.165,0.205,44.44444444444444
-0.17,0.2,47.22222222222222
-0.185,0.2,50.0
-0.195,0.185,52.77777777777778
-0.195,0.185,55.55555555555556
-0.19,0.19,58.333333333333336
-0.17,0.195,61.111111111111114
-0.165,0.2,63.888888888888886
-0.165,0.21,66.66666666666667
-0.17,0.22,69.44444444444444
-0.165,0.24,72.22222222222223
-0.175,0.23,75.0
-0.18,0.225,77.77777777777777
-0.195,0.22,80.55555555555556
-0.195,0.215,83.33333333333333
-0.195,0.215,86.11111111111111
-0.215,0.205,88.88888888888889
-0.215,0.21,91.66666666666667
-0.2,0.215,94.44444444444444
-0.185,0.22,97.22222222222223
-0.175,0.215,100.0
-0.175,0.23,102.77777777777777
-0.175,0.23,105.55555555555556
-0.19,0.235,108.33333333333333
-0.2,0.215,111.11111111111111
-0.205,0.22,113.88888888888889
-0.2,0.215,116.66666666666667
-0.2,0.205,119.44444444444444
-0.185,0.205,122.22222222222223
-0.2,0.195,125.0
-0.2,0.2,127.77777777777777
-0.2,0.22,130.55555555555554
-0.19,0.215,133.33333333333334
-0.16,0.225,136.11111111111111
-0.145,0.22,138.88888888888889
-0.14,0.215,141.66666666666666
-0.16,0.215,144.44444444444446
-0.175,0.205,147.22222222222223
-0.205,0.22,150.0
-0.225,0.23,152.77777777777777
-0.255,0.215,155.55555555555554
-0.26,0.22,158.33333333333334
-0.23,0.215,161.11111111111111
-0.185,0.215,163.88888888888889
-0.165,0.2,166.66666666666666
-0.16,0.235,169.44444444444446
-0.17,0.24,172.22222222222223
-0.2,0.24,175.0
-0.22,0.25,177.77777777777777
-0.215,0.235,180.55555555555554
-0.215,0.235,183.33333333333334
-0.215,0.21,186.11111111111111
-0.19,0.195,188.88888888888889
-0.19,0.2,191.66666666666666
-0.19,0.205,194.44444444444446
-0.195,0.21,197.22222222222223
-0.195,0.22,200.0
-0.195,0.23,202.77777777777777
-0.19,0.215,205.55555555555554
-0.19,0.24,208.33333333333334
-0.185,0.23,211.11111111111111
-0.185,0.21,213.88888888888889
-0.18,0.205,216.66666666666666
-0.17,0.21,219.44444444444446
-0.185,0.215,222.22222222222223
-0.2,0.23,225.0
-0.215,0.235,227.77777777777777
-0.21,0.235,230.55555555555554
-0.185,0.225,233.33333333333334
-0.15,0.22,236.11111111111111
-0.145,0.235,238.88888888888889
-0.17,0.24,241.66666666666666
-0.2,0.25,244.44444444444446
-0.225,0.24,247.22222222222223
-0.24,0.25,250.0
-0.225,0.215,252.77777777777777
-0.205,0.21,255.55555555555554
-0.2,0.2,258.3333333333333
-0.195,0.205,261.1111111111111
-0.195,0.225,263.8888888888889
-0.205,0.22,266.6666666666667
-0.205,0.25,269.44444444444446
-0.205,0.245,272.22222222222223
-0.21,0.235,275.0
-0.21,0.22,277.77777777777777
-0.19,0.2,280.55555555555554
-0.175,0.19,283.3333333333333
-0.175,0.19,286.1111111111111
-0.175,0.18,288.8888888888889
-0.175,0.185,291.6666666666667
-0.18,0.18,294.44444444444446
-0.18,0.195,297.22222222222223
-0.2,0.195,300.0
-0.235,0.23,302.77777777777777
-0.25,0.24,305.55555555555554
-0.255,0.23,308.3333333333333
-0.24,0.225,311.1111111111111
-0.215,0.2,313.8888888888889
-0.185,0.185,316.6666666666667
-0.17,0.16,319.44444444444446
-0.18,0.17,322.22222222222223
-0.175,0.18,325.0
-0.185,0.195,327.77777777777777
-0.185,0.21,330.55555555555554
-0.185,0.215,333.3333333333333
-0.19,0.23,336.1111111111111
-0.22,0.24,338.8888888888889
-0.22,0.23,341.6666666666667
-0.22,0.22,344.44444444444446
-0.205,0.21,347.22222222222223
-0.185,0.19,350.0
-0.195,0.19,352.77777777777777
-0.21,0.19,355.55555555555554
-0.215,0.185,358.3333333333333
-0.215,0.19,361.1111111111111
-0.195,0.2,363.8888888888889
-0.175,0.205,366.6666666666667
-0.18,0.215,369.44444444444446
-0.21,0.25,372.22222222222223
-0.245,0.255,375.0
-0.26,0.25,377.77777777777777
-0.265,0.235,380.55555555555554
-0.26,0.22,383.3333333333333
-0.255,0.205,386.1111111111111
-0.235,0.175,388.8888888888889
-0.21,0.18,391.6666666666667
-0.2,0.175,394.44444444444446
-0.175,0.195,397.22222222222223
-0.175,0.19,400.0
-0.17,0.205,402.77777777777777
-0.195,0.21,405.55555555555554
-0.215,0.21,408.3333333333333
-0.23,0.21,411.1111111111111
-0.235,0.215,413.8888888888889
-0.23,0.205,416.6666666666667
-0.22,0.2,419.44444444444446
-0.195,0.18,422.22222222222223
-0.175,0.18,425.0
-0.155,0.17,427.77777777777777
-0.15,0.175,430.55555555555554
-0.15,0.195,433.3333333333333
-0.17,0.21,436.1111111111111
-0.18,0.205,438.8888888888889
-0.21,0.225,441.6666666666667
-0.245,0.245,444.44444444444446
-0.25,0.245,447.22222222222223
-0.27,0.25,450.0
-0.275,0.24,452.77777777777777
-0.27,0.225,455.55555555555554
-0.255,0.21,458.3333333333333
-0.235,0.21,461.1111111111111
-0.2,0.205,463.8888888888889
-0.155,0.19,466.6666666666667
-0.12,0.175,469.44444444444446
-0.115,0.17,472.22222222222223
-0.125,0.175,475.0
-0.175,0.19,477.77777777777777
-0.225,0.215,480.55555555555554
-0.265,0.24,483.3333333333333
-0.29,0.24,486.1111111111111
-0.29,0.245,488.8888888888889
-0.3,0.235,491.6666666666667
-0.27,0.235,494.44444444444446
-0.235,0.215,497.22222222222223
-0.205,0.225,500.0
-0.19,0.215,502.77777777777777
-0.185,0.215,505.55555555555554
-0.18,0.2,508.3333333333333
-0.17,0.19,511.1111111111111
-0.145,0.18,513.8888888888889
-0.145,0.175,516.6666666666666
-0.145,0.16,519.4444444444445
-0.17,0.175,522.2222222222222
-0.21,0.195,525.0
-0.25,0.205,527.7777777777778
-0.28,0.23,530.5555555555555
-0.275,0.245,533.3333333333334
-0.275,0.245,536.1111111111111
-0.245,0.24,538.8888888888889
-0.225,0.225,541.6666666666666
-0.195,0.22,544.4444444444445
-0.175,0.2,547.2222222222222
-0.19,0.185,550.0
-0.195,0.17,552.7777777777778
-0.19,0.17,555.5555555555555
-0.195,0.18,558.3333333333334
-0.22,0.18,561.1111111111111
-0.22,0.205,563.8888888888889
-0.23,0.215,566.6666666666666
-0.22,0.24,569.4444444444445
-0.22,0.23,572.2222222222222
-0.22,0.225,575.0
-0.2,0.2,577.7777777777778
-0.205,0.195,580.5555555555555
-0.21,0.185,583.3333333333334
-0.22,0.2,586.1111111111111
-0.235,0.2,588.8888888888889
-0.25,0.21,591.6666666666666
-0.265,0.2,594.4444444444445
-0.25,0.205,597.2222222222222
-0.24,0.21,600.0
-0.225,0.21,602.7777777777778
-0.2,0.21,605.5555555555555
-0.2,0.185,608.3333333333334
-0.19,0.185,611.1111111111111
-0.185,0.19,613.8888888888889
-0.195,0.175,616.6666666666666
-0.195,0.18,619.4444444444445
-0.2,0.18,622.2222222222222
-0.205,0.195,625.0
-0.22,0.2,627.7777777777778
-0.215,0.205,630.5555555555555
-0.225,0.205,633.3333333333334
-0.23,0.215,636.1111111111111
-0.23,0.22,638.8888888888889
-0.23,0.22,641.6666666666666
-0.205,0.21,644.4444444444445
-0.21,0.2,647.2222222222222
-0.215,0.19,650.0
-0.22,0.185,652.7777777777778
-0.235,0.18,655.5555555555555
-0.245,0.18,658.3333333333334
-0.235,0.195,661.1111111111111
-0.23,0.2,663.8888888888889
-0.195,0.2,666.6666666666666
-0.18,0.205,669.4444444444445
-0.17,0.22,672.2222222222222
-0.17,0.205,675.0
-0.165,0.19,677.7777777777778
-0.17,0.195,680.5555555555555
-0.18,0.19,683.3333333333334
-0.21,0.18,686.1111111111111
-0.23,0.18,688.8888888888889
-0.23,0.195,691.6666666666666
-0.235,0.195,694.4444444444445
-0.24,0.205,697.2222222222222
-0.235,0.21,700.0
-0.245,0.215,702.7777777777778
-0.245,0.225,705.5555555555555
-0.24,0.22,708.3333333333334
-0.24,0.22,711.1111111111111
-0.22,0.19,713.8888888888889
-0.21,0.18,716.6666666666666
-0.195,0.19,719.4444444444445
-0.195,0.175,722.2222222222222
-0.21,0.19,725.0
-0.215,0.19,727.7777777777778
-0.215,0.2,730.5555555555555
-0.195,0.185,733.3333333333334
-0.17,0.2,736.1111111111111
-0.14,0.195,738.8888888888889
-0.145,0.185,741.6666666666666
-0.175,0.185,744.4444444444445
-0.215,0.215,747.2222222222222
-0.25,0.21,750.0
-0.28,0.21,752.7777777777778
-0.275,0.21,755.5555555555555
-0.265,0.2,758.3333333333334
-0.235,0.18,761.1111111111111
-0.205,0.19,763.8888888888889
-0.2,0.195,766.6666666666666
-0.195,0.2,769.4444444444445
-0.2,0.205,772.2222222222222
-0.205,0.205,775.0
-0.21,0.22,777.7777777777778
-0.22,0.22,780.5555555555555
-0.235,0.205,783.3333333333334
-0.255,0.21,786.1111111111111
-0.26,0.195,788.8888888888889
-0.245,0.19,791.6666666666666
-0.225,0.19,794.4444444444445
-0.21,0.2,797.2222222222222
-0.2,0.2,800.0
-0.19,0.21,802.7777777777778
-0.185,0.22,805.5555555555555
-0.2,0.215,808.3333333333334
-0.225,0.23,811.1111111111111
-0.225,0.215,813.8888888888889
-0.23,0.21,816.6666666666666
-0.225,0.2,819.4444444444445
-0.2,0.185,822.2222222222222
-0.19,0.17,825.0
-0.175,0.19,827.7777777777778
-0.165,0.2,830.5555555555555
-0.19,0.205,833.3333333333334
-0.205,0.205,836.1111111111111
-0.215,0.22,838.8888888888889
-0.23,0.22,841.6666666666666
-0.21,0.195,844.4444444444445
-0.18,0.19,847.2222222222222
-0.17,0.17,850.0
-0.18,0.17,852.7777777777778
-0.205,0.185,855.5555555555555
-0.235,0.2,858.3333333333334
-0.255,0.21,861.1111111111111
-0.25,0.21,863.8888888888889
-0.225,0.205,866.6666666666666
-0.195,0.215,869.4444444444445
-0.175,0.22,872.2222222222222
-0.165,0.215,875.0
-0.155,0.21,877.7777777777778
-0.175,0.19,880.5555555555555
-0.2,0.205,883.3333333333334
-0.215,0.195,886.1111111111111
-0.22,0.19,888.8888888888889
-0.205,0.18,891.6666666666666
-0.2,0.185,894.4444444444445
-0.19,0.185,897.2222222222222
-0.175,0.19,900.0
-0.175,0.205,902.7777777777778
-0.185,0.215,905.5555555555555
-0.195,0.215,908.3333333333334
-0.205,0.195,911.1111111111111
-0.21,0.215,913.8888888888889
-0.215,0.21,916.6666666666666
-0.215,0.195,919.4444444444445
-0.215,0.19,922.2222222222222
-0.195,0.185,925.0
-0.19,0.18,927.7777777777778
-0.195,0.19,930.5555555555555
-0.195,0.2,933.3333333333334
-0.215,0.205,936.1111111111111
-0.2,0.2,938.8888888888889
-0.195,0.2,941.6666666666666
-0.185,0.195,944.4444444444445
-0.175,0.175,947.2222222222222
-0.185,0.165,950.0
-0.19,0.165,952.7777777777778
-0.21,0.165,955.5555555555555
-0.21,0.18,958.3333333333334
-0.235,0.185,961.1111111111111
-0.24,0.205,963.8888888888889
-0.22,0.205,966.6666666666666
-0.205,0.21,969.4444444444445
-0.18,0.185,972.2222222222222
-0.155,0.175,975.0
-0.145,0.16,977.7777777777778
-0.155,0.165,980.5555555555555
-0.19,0.18,983.3333333333334
-0.23,0.195,986.1111111111111
-0.265,0.21,988.8888888888889
-0.275,0.2,991.6666666666666
-0.24,0.19,994.4444444444445
-0.22,0.195,997.2222222222222
-0.21,0.195,1000.0
-0.19,0.19,1002.7777777777778
-0.18,0.205,1005.5555555555555
-0.205,0.21,1008.3333333333334
-0.2,0.19,1011.1111111111111
-0.21,0.185,1013.8888888888889
-0.185,0.175,1016.6666666666666
-0.19,0.16,1019.4444444444445
-0.175,0.155,1022.2222222222222
-0.175,0.165,1025.0
-0.195,0.165,1027.7777777777778
-0.19,0.18,1030.5555555555557
-0.18,0.18,1033.3333333333333
-0.145,0.185,1036.111111111111
-0.125,0.175,1038.888888888889
-0.125,0.175,1041.6666666666667
-0.16,0.19,1044.4444444444443
-0.2,0.205,1047.2222222222222
-0.25,0.215,1050.0
-0.305,0.22,1052.7777777777778
-0.325,0.215,1055.5555555555557
-0.33,0.215,1058.3333333333333
-0.265,0.19,1061.111111111111
-0.235,0.18,1063.888888888889
-0.19,0.17,1066.6666666666667
-0.17,0.185,1069.4444444444443
-0.16,0.205,1072.2222222222222
-0.17,0.195,1075.0
-0.185,0.19,1077.7777777777778
-0.195,0.195,1080.5555555555557
-0.2,0.18,1083.3333333333333
-0.205,0.175,1086.111111111111
-0.2,0.165,1088.888888888889
-0.2,0.15,1091.6666666666667
-0.18,0.155,1094.4444444444443
-0.175,0.165,1097.2222222222222
-0.16,0.16,1100.0
-0.15,0.18,1102.7777777777778
-0.16,0.2,1105.5555555555557
-0.2,0.21,1108.3333333333333
-0.23,0.22,1111.111111111111
-0.23,0.195,1113.888888888889
-0.195,0.19,1116.6666666666667
-0.175,0.18,1119.4444444444443
-0.165,0.16,1122.2222222222222
-0.18,0.185,1125.0
-0.205,0.21,1127.7777777777778
-0.225,0.23,1130.5555555555557
-0.235,0.245,1133.3333333333333
-0.22,0.255,1136.111111111111
-0.195,0.235,1138.888888888889
-0.145,0.22,1141.6666666666667
-0.085,0.19,1144.4444444444443
-0.045,0.17,1147.2222222222222
-0.04,0.175,1150.0
-0.095,0.2,1152.7777777777778
-0.145,0.225,1155.5555555555557
-0.19,0.235,1158.3333333333333
-0.205,0.22,1161.111111111111
-0.19,0.205,1163.888888888889
-0.165,0.21,1166.6666666666667
-0.135,0.2,1169.4444444444443
-0.1,0.2,1172.2222222222222
-0.095,0.175,1175.0
-0.095,0.175,1177.7777777777778
-0.095,0.15,1180.5555555555557
-0.125,0.145,1183.3333333333333
-0.145,0.14,1186.111111111111
-0.165,0.15,1188.888888888889
-0.185,0.165,1191.6666666666667
-0.19,0.16,1194.4444444444443
-0.175,0.16,1197.2222222222222
-0.165,0.17,1200.0
-0.15,0.17,1202.7777777777778
-0.15,0.16,1205.5555555555557
-0.15,0.165,1208.3333333333333
-0.155,0.16,1211.111111111111
-0.155,0.145,1213.888888888889
-0.15,0.135,1216.6666666666667
-0.145,0.135,1219.4444444444443
-0.14,0.14,1222.2222222222222
-0.135,0.15,1225.0
-0.145,0.17,1227.7777777777778
-0.145,0.185,1230.5555555555557
-0.145,0.195,1233.3333333333333
-0.145,0.21,1236.111111111111
-0.145,0.185,1238.888888888889
-0.155,0.19,1241.6666666666667
-0.185,0.2,1244.4444444444443
-0.21,0.195,1247.2222222222222
-0.245,0.19,1250.0
-0.27,0.205,1252.7777777777778
-0.285,0.195,1255.5555555555557
-0.275,0.2,1258.3333333333333
-0.265,0.19,1261.111111111111
-0.245,0.19,1263.888888888889
-0.22,0.19,1266.6666666666667
-0.205,0.2,1269.4444444444443
-0.195,0.205,1272.2222222222222
-0.225,0.225,1275.0
-0.245,0.235,1277.7777777777778
-0.24,0.23,1280.5555555555557
-0.24,0.215,1283.3333333333333
-0.245,0.195,1286.111111111111
-0.235,0.17,1288.888888888889
-0.205,0.155,1291.6666666666667
-0.185,0.175,1294.4444444444443
-0.19,0.18,1297.2222222222222
-0.195,0.19,1300.0
-0.205,0.215,1302.7777777777778
-0.215,0.215,1305.5555555555557
-0.225,0.215,1308.3333333333333
-0.225,0.2,1311.111111111111
-0.22,0.19,1313.888888888889
-0.21,0.18,1316.6666666666667
-0.195,0.18,1319.4444444444443
-0.185,0.175,1322.2222222222222
-0.175,0.18,1325.0
-0.175,0.19,1327.7777777777778
-0.19,0.205,1330.5555555555557
-0.19,0.215,1333.3333333333333
-0.19,0.245,1336.111111111111
-0.16,0.255,1338.888888888889
-0.13,0.26,1341.6666666666667
-0.09,0.255,1344.4444444444443
-0.045,0.215,1347.2222222222222
-0.02,0.175,1350.0
0.01,0.12,1352.7777777777778
0.05,0.04,1355.5555555555557
0.115,-0.075,1358.3333333333333
0.21,-0.2,1361.111111111111
0.295,-0.32,1363.888888888889
0.34,-0.405,1366.6666666666667
0.31,-0.455,1369.4444444444443
0.19,-0.46,1372.2222222222222
-0.01,-0.42,1375.0
-0.22,-0.345,1377.7777777777778
-0.39,-0.21,1380.5555555555557
-0.48,-0.025,1383.3333333333333
-0.52,0.16,1386.111111111111
-0.505,0.32,1388.888888888889
-0.48,0.425,1391.6666666666667
-0.44,0.485,1394.4444444444443
-0.42,0.515,1397.2222222222222
-0.4,0.525,1400.0
-0.405,0.545,1402.7777777777778
-0.425,0.56,1405.5555555555557
-0.45,0.56,1408.3333333333333
-0.48,0.585,1411.111111111111
-0.5,0.605,1413.888888888889
-0.5,0.63,1416.6666666666667
-0.485,0.64,1419.4444444444443
-0.455,0.66,1422.2222222222222
-0.405,0.685,1425.0
-0.35,0.68,1427.7777777777778
-0.335,0.705,1430.5555555555557
-0.305,0.72,1433.3333333333333
-0.325,0.74,1436.111111111111
-0.355,0.75,1438.888888888889
-0.395,0.75,1441.6666666666667
-0.405,0.73,1444.4444444444443
-0.41,0.68,1447.2222222222222
-0.4,0.61,1450.0
-0.375,0.545,1452.7777777777778
-0.355,0.47,1455.5555555555557
-0.355,0.4,1458.3333333333333
-0.32,0.33,1461.111111111111
-0.295,0.29,1463.888888888889
-0.26,0.24,1466.6666666666667
-0.22,0.21,1469.4444444444443
-0.18,0.195,1472.2222222222222
-0.18,0.17,1475.0
-0.175,0.175,1477.7777777777778
-0.185,0.165,1480.5555555555557
-0.195,0.15,1483.3333333333333
-0.22,0.145,1486.111111111111
-0.23,0.155,1488.888888888889
-0.225,0.14,1491.6666666666667
-0.22,0.14,1494.4444444444443
-0.21,0.155,1497.2222222222222
-0.21,0.15,1500.0
-0.205,0.15,1502.7777777777778
-0.195,0.15,1505.5555555555557
-0.19,0.145,1508.3333333333333
-0.195,0.15,1511.111111111111
-0.18,0.14,1513.888888888889
-0.195,0.13,1516.6666666666667
-0.205,0.13,1519.4444444444443
-0.225,0.12,1522.2222222222222
-0.22,0.12,1525.0
-0.195,0.12,1527.7777777777778
-0.185,0.11,1530.5555555555557
-0.165,0.11,1533.3333333333333
-0.17,0.12,1536.111111111111
-0.16,0.12,1538.888888888889
-0.18,0.125,1541.6666666666667
-0.19,0.125,1544.4444444444443
-0.195,0.115,1547.2222222222222
-0.18,0.08,1550.0
-0.15,0.055,1552.7777777777778
-0.115,0.035,1555.5555555555557
-0.1,0.04,1558.3333333333333
-0.11,0.085,1561.111111111111
-0.155,0.11,1563.888888888889
-0.2,0.125,1566.6666666666667
-0.215,0.145,1569.4444444444443
-0.205,0.145,1572.2222222222222
-0.19,0.125,1575.0
-0.17,0.095,1577.7777777777778
-0.14,0.085,1580.5555555555557
-0.125,0.07,1583.3333333333333
-0.135,0.055,1586.111111111111
-0.14,0.06,1588.888888888889
-0.145,0.055,1591.6666666666667
-0.145,0.055,1594.4444444444443
-0.13,0.055,1597.2222222222222
-0.12,0.06,1600.0
-0.125,0.05,1602.7777777777778
-0.125,0.04,1605.5555555555557
-0.11,0.025,1608.3333333333333
-0.105,0.01,1611.111111111111
-0.095,-0.005,1613.888888888889
-0.095,-0.015,1616.6666666666667
-0.09,-0.04,1619.4444444444443
-0.08,-0.04,1622.2222222222222
-0.085,-0.04,1625.0
-0.08,-0.03,1627.7777777777778
-0.095,-0.035,1630.5555555555557
-0.075,-0.035,1633.3333333333333
-0.05,-0.055,1636.111111111111
-0.03,-0.05,1638.888888888889
-0.01,-0.075,1641.6666666666667
-0.005,-0.085,1644.4444444444443
0.0,-0.09,1647.2222222222222
-0.01,-0.095,1650.0
-0.02,-0.085,1652.7777777777778
-0.035,-0.105,1655.5555555555557
-0.03,-0.095,1658.3333333333333
-0.03,-0.105,1661.111111111111
0.005,-0.125,1663.888888888889
0.03,-0.12,1666.6666666666667
0.05,-0.12,1669.4444444444443
0.065,-0.125,1672.2222222222222
0.06,-0.125,1675.0
0.05,-0.11,1677.7777777777778
0.02,-0.1,1680.5555555555557
0.005,-0.09,1683.3333333333333
-0.01,-0.1,1686.111111111111
-0.015,-0.09,1688.888888888889
-0.02,-0.09,1691.6666666666667
0.0,-0.085,1694.4444444444443
0.015,-0.05,1697.2222222222222
0.035,-0.045,1700.0
0.055,-0.04,1702.7777777777778
0.065,-0.035,1705.5555555555557
0.06,-0.025,1708.3333333333333
0.04,0.0,1711.111111111111
0.01,0.005,1713.888888888889
-0.03,0.035,1716.6666666666667
-0.04,0.03,1719.4444444444443
-0.04,0.035,1722.2222222222222
-0.035,0.05,1725.0
-0.025,0.055,1727.7777777777778
-0.02,0.085,1730.5555555555557
-0.025,0.105,1733.3333333333333
-0.055,0.125,1736.111111111111
-0.065,0.15,1738.888888888889
-0.095,0.145,1741.6666666666667
-0.105,0.16,1744.4444444444443
-0.115,0.155,1747.2222222222222
-0.1,0.155,1750.0
-0.105,0.14,1752.7777777777778
-0.115,0.14,1755.5555555555557
-0.135,0.15,1758.3333333333333
-0.145,0.15,1761.111111111111
-0.16,0.165,1763.888888888889
-0.165,0.18,1766.6666666666667
-0.18,0.18,1769.4444444444443
-0.165,0.19,1772.2222222222222
-0.15,0.19,1775.0
-0.155,0.17,1777.7777777777778
-0.15,0.155,1780.5555555555557
-0.155,0.145,1783.3333333333333
-0.175,0.14,1786.111111111111
-0.205,0.135,1788.888888888889
-0.215,0.135,1791.6666666666667
-0.23,0.16,1794.4444444444443
-0.225,0.155,1797.2222222222222
-0.21,0.135,1800.0
-0.19,0.135,1802.7777777777778
-0.175,0.135,1805.5555555555557
-0.17,0.11,1808.3333333333333
-0.165,0.105,1811.111111111111
-0.17,0.11,1813.888888888889
-0.18,0.115,1816.6666666666667
-0.18,0.105,1819.4444444444443
-0.19,0.11,1822.2222222222222
-0.205,0.105,1825.0
-0.185,0.11,1827.7777777777778
-0.17,0.115,1830.5555555555557
-0.155,0.145,1833.3333333333333
-0.155,0.145,1836.111111111111
-0.135,0.16,1838.888888888889
-0.135,0.15,1841.6666666666667
-0.125,0.15,1844.4444444444443
-0.105,0.13,1847.2222222222222
-0.105,0.115,1850.0
-0.11,0.105,1852.7777777777778
-0.115,0.1,1855.5555555555557
-0.125,0.1,1858.3333333333333
-0.14,0.11,1861.111111111111
-0.145,0.12,1863.888888888889
-0.145,0.135,1866.6666666666667
-0.145,0.135,1869.4444444444443
-0.13,0.125,1872.2222222222222
-0.12,0.13,1875.0
-0.12,0.13,1877.7777777777778
-0.12,0.115,1880.5555555555557
-0.12,0.12,1883.3333333333333
-0.13,0.11,1886.111111111111
-0.16,0.12,1888.888888888889
-0.175,0.14,1891.6666666666667
-0.17,0.15,1894.4444444444443
-0.155,0.175,1897.2222222222222
-0.135,0.17,1900.0
-0.09,0.165,1902.7777777777778
-0.06,0.165,1905.5555555555557
-0.06,0.175,1908.3333333333333
-0.1,0.18,1911.111111111111
-0.12,0.18,1913.888888888889
-0.13,0.175,1916.6666666666667
-0.15,0.175,1919.4444444444443
-0.15,0.165,1922.2222222222222
-0.15,0.17,1925.0
-0.13,0.165,1927.7777777777778
-0.125,0.17,1930.5555555555557
-0.12,0.175,1933.3333333333333
-0.115,0.185,1936.111111111111
-0.12,0.195,1938.888888888889
-0.13,0.195,1941.6666666666667
-0.14,0.205,1944.4444444444443
-0.155,0.19,1947.2222222222222
-0.17,0.19,1950.0
-0.155,0.18,1952.7777777777778
-0.155,0.18,1955.5555555555557
-0.145,0.175,1958.3333333333333
-0.13,0.185,1961.111111111111
-0.125,0.185,1963.888888888889
-0.12,0.185,1966.6666666666667
-0.13,0.185,1969.4444444444443
-0.115,0.19,1972.2222222222222
-0.11,0.185,1975.0
-0.11,0.2,1977.7777777777778
-0.1,0.175,1980.5555555555557
-0.1,0.185,1983.3333333333333
-0.11,0.18,1986.111111111111
-0.145,0.17,1988.888888888889
-0.17,0.175,1991.6666666666667
-0.175,0.175,1994.4444444444443
-0.165,0.19,1997.2222222222222
-0.125,0.195,2000.0
-0.115,0.185,2002.7777777777778
-0.115,0.19,2005.5555555555557
-0.135,0.195,2008.3333333333333
-0.15,0.185,2011.111111111111
-0.15,0.185,2013.888888888889
-0.13,0.165,2016.6666666666667
-0.115,0.16,2019.4444444444443
-0.105,0.16,2022.2222222222222
-0.1,0.19,2025.0
-0.085,0.225,2027.7777777777778
-0.075,0.24,2030.5555555555557
-0.045,0.23,2033.3333333333333
0.01,0.185,2036.111111111111
0.11,0.1,2038.888888888889
0.235,-0.02,2041.6666666666667
0.365,-0.15,2044.4444444444443
0.47,-0.255,2047.2222222222222
0.495,-0.335,2050.0
0.44,-0.375,2052.777777777778
0.26,-0.37,2055.5555555555557
0.02,-0.32,2058.3333333333335
-0.195,-0.205,2061.1111111111113
-0.355,-0.07,2063.8888888888887
-0.435,0.115,2066.6666666666665
-0.44,0.265,2069.4444444444443
-0.415,0.4,2072.222222222222
-0.39,0.47,2075.0
-0.34,0.505,2077.777777777778
-0.305,0.485,2080.5555555555557
-0.305,0.47,2083.3333333333335
-0.32,0.455,2086.1111111111113
-0.355,0.455,2088.8888888888887
-0.395,0.48,2091.6666666666665
-0.4,0.5,2094.4444444444443
-0.38,0.515,2097.222222222222
-0.35,0.525,2100.0
-0.3,0.54,2102.777777777778
-0.255,0.56,2105.5555555555557
-0.255,0.595,2108.3333333333335
-0.28,0.62,2111.1111111111113
-0.325,0.635,2113.8888888888887
-0.385,0.655,2116.6666666666665
-0.41,0.655,2119.4444444444443
-0.415,0.63,2122.222222222222
-0.395,0.61,2125.0
-0.35,0.555,2127.777777777778
-0.3,0.5,2130.5555555555557
-0.285,0.445,2133.3333333333335
-0.265,0.4,2136.1111111111113
-0.26,0.34,2138.8888888888887
-0.255,0.29,2141.6666666666665
-0.24,0.24,2144.4444444444443
-0.215,0.17,2147.222222222222
-0.18,0.13,2150.0
-0.15,0.09,2152.777777777778
-0.15,0.085,2155.5555555555557
-0.155,0.075,2158.3333333333335
-0.145,0.095,2161.1111111111113
-0.165,0.12,2163.8888888888887
-0.15,0.1,2166.6666666666665
-0.135,0.115,2169.4444444444443
-0.125,0.105,2172.222222222222
-0.105,0.095,2175.0
-0.095,0.085,2177.777777777778
-0.1,0.07,2180.5555555555557
-0.095,0.07,2183.3333333333335
-0.105,0.055,2186.1111111111113
-0.125,0.07,2188.8888888888887
-0.145,0.085,2191.6666666666665
-0.165,0.1,2194.4444444444443
-0.155,0.095,2197.222222222222
-0.155,0.1,2200.0
-0.14,0.085,2202.777777777778
-0.12,0.07,2205.5555555555557
-0.125,0.075,2208.3333333333335
-0.11,0.09,2211.1111111111113
-0.135,0.08,2213.8888888888887
-0.145,0.065,2216.6666666666665
-0.15,0.075,2219.4444444444443
-0.14,0.05,2222.222222222222
-0.125,0.045,2225.0
-0.12,0.065,2227.777777777778
-0.13,0.07,2230.5555555555557
-0.135,0.085,2233.3333333333335
-0.14,0.09,2236.1111111111113
-0.125,0.085,2238.8888888888887
-0.125,0.08,2241.6666666666665
-0.1,0.06,2244.4444444444443
-0.085,0.055,2247.222222222222
-0.085,0.04,2250.0
-0.11,0.03,2252.777777777778
-0.105,0.035,2255.5555555555557
-0.115,0.015,2258.3333333333335
-0.11,0.02,2261.1111111111113
-0.085,0.03,2263.8888888888887
-0.055,0.02,2266.6666666666665
-0.045,0.03,2269.4444444444443
-0.045,0.02,2272.222222222222
-0.03,0.005,2275.0
-0.02,-0.01,2277.777777777778
-0.02,-0.015,2280.5555555555557
-0.025,-0.02,2283.3333333333335
-0.01,-0.04,2286.1111111111113
-0.01,-0.04,2288.8888888888887
-0.01,-0.055,2291.6666666666665
0.005,-0.065,2294.4444444444443
0.01,-0.06,2297.222222222222
0.03,-0.07,2300.0
0.055,-0.06,2302.777777777778
0.08,-0.075,2305.5555555555557
0.1,-0.09,2308.3333333333335
0.105,-0.11,2311.1111111111113
0.12,-0.12,2313.8888888888887
0.125,-0.13,2316.6666666666665
0.1,-0.13,2319.4444444444443
0.075,-0.125,2322.222222222222
0.055,-0.11,2325.0
0.06,-0.105,2327.777777777778
0.07,-0.105,2330.5555555555557
0.095,-0.12,2333.3333333333335
0.13,-0.125,2336.1111111111113
0.135,-0.125,2338.8888888888887
0.13,-0.12,2341.6666666666665
0.125,-0.12,2344.4444444444443
0.12,-0.115,2347.222222222222
0.13,-0.11,2350.0
0.125,-0.115,2352.777777777778
0.125,-0.115,2355.5555555555557
0.12,-0.095,2358.3333333333335
0.1,-0.065,2361.1111111111113
0.085,-0.05,2363.8888888888887
0.06,-0.01,2366.6666666666665
0.045,0.005,2369.4444444444443
0.025,0.035,2372.222222222222
0.035,0.05,2375.0
0.03,0.065,2377.777777777778
0.03,0.055,2380.5555555555557
0.015,0.055,2383.3333333333335
-0.005,0.06,2386.1111111111113
-0.025,0.06,2388.8888888888887
-0.03,0.075,2391.6666666666665
-0.03,0.09,2394.4444444444443
-0.06,0.13,2397.222222222222
-0.1,0.17,2400.0
-0.125,0.18,2402.777777777778
-0.12,0.185,2405.5555555555557
-0.105,0.18,2408.3333333333335
-0.09,0.16,2411.1111111111113
-0.09,0.16,2413.8888888888887
-0.1,0.15,2416.6666666666665
-0.13,0.15,2419.4444444444443
-0.145,0.18,2422.222222222222
-0.155,0.17,2425.0
-0.155,0.175,2427.777777777778
-0.16,0.18,2430.5555555555557
-0.145,0.175,2433.3333333333335
-0.135,0.18,2436.1111111111113
-0.135,0.185,2438.8888888888887
-0.13,0.185,2441.6666666666665
-0.135,0.18,2444.4444444444443
-0.145,0.185,2447.222222222222
-0.155,0.175,2450.0
-0.17,0.165,2452.777777777778
-0.185,0.16,2455.5555555555557
-0.195,0.17,2458.3333333333335
-0.185,0.165,2461.1111111111113
-0.185,0.17,2463.8888888888887
-0.17,0.17,2466.6666666666665
-0.165,0.185,2469.4444444444443
-0.155,0.195,2472.222222222222
-0.145,0.18,2475.0
-0.125,0.185,2477.777777777778
-0.13,0.165,2480.5555555555557
-0.145,0.16,2483.3333333333335
-0.16,0.15,2486.1111111111113
-0.165,0.165,2488.8888888888887
-0.17,0.165,2491.6666666666665
-0.16,0.175,2494.4444444444443
-0.16,0.18,2497.222222222222
-0.15,0.185,2500.0
-0.135,0.175,2502.777777777778
-0.115,0.17,2505.5555555555557
-0.13,0.16,2508.3333333333335
-0.135,0.17,2511.1111111111113
-0.18,0.175,2513.8888888888887
-0.19,0.175,2516.6666666666665
-0.2,0.175,2519.4444444444443
-0.205,0.175,2522.222222222222
-0.195,0.165,2525.0
-0.195,0.155,2527.777777777778
-0.17,0.15,2530.5555555555557
-0.17,0.12,2533.3333333333335
-0.165,0.115,2536.1111111111113
-0.135,0.095,2538.8888888888887
-0.135,0.095,2541.6666666666665
-0.12,0.085,2544.4444444444443
-0.115,0.1,2547.222222222222
-0.11,0.085,2550.0
-0.12,0.08,2552.777777777778
-0.145,0.08,2555.5555555555557
-0.165,0.095,2558.3333333333335
-0.195,0.11,2561.1111111111113
-0.21,0.135,2563.8888888888887
-0.23,0.155,2566.6666666666665
-0.215,0.17,2569.4444444444443
-0.21,0.18,2572.222222222222
-0.18,0.17,2575.0
-0.16,0.165,2577.777777777778
-0.13,0.135,2580.5555555555557
-0.1,0.115,2583.3333333333335
-0.09,0.11,2586.1111111111113
-0.11,0.105,2588.8888888888887
-0.11,0.115,2591.6666666666665
-0.125,0.125,2594.4444444444443
-0.13,0.12,2597.222222222222
-0.12,0.125,2600.0
-0.115,0.125,2602.777777777778
-0.115,0.12,2605.5555555555557
-0.115,0.13,2608.3333333333335
-0.135,0.13,2611.1111111111113
-0.15,0.14,2613.8888888888887
-0.17,0.13,2616.6666666666665
-0.205,0.14,2619.4444444444443
-0.21,0.13,2622.222222222222
-0.215,0.125,2625.0
-0.225,0.13,2627.777777777778
-0.225,0.15,2630.5555555555557
-0.225,0.155,2633.3333333333335
-0.21,0.17,2636.1111111111113
-0.195,0.165,2638.8888888888887
-0.18,0.17,2641.6666666666665
-0.155,0.165,2644.4444444444443
-0.16,0.165,2647.222222222222
-0.155,0.18,2650.0
-0.16,0.175,2652.777777777778
-0.18,0.165,2655.5555555555557
-0.18,0.18,2658.3333333333335
-0.165,0.18,2661.1111111111113
-0.155,0.185,2663.8888888888887
-0.145,0.18,2666.6666666666665
-0.135,0.185,2669.4444444444443
-0.12,0.2,2672.222222222222
-0.12,0.195,2675.0
-0.125,0.185,2677.777777777778
-0.13,0.18,2680.5555555555557
-0.14,0.17,2683.3333333333335
-0.13,0.155,2686.1111111111113
-0.125,0.15,2688.8888888888887
-0.12,0.145,2691.6666666666665
-0.125,0.155,2694.4444444444443
-0.14,0.17,2697.222222222222
-0.15,0.205,2700.0
-0.16,0.205,2702.777777777778
-0.135,0.2,2705.5555555555557
-0.125,0.185,2708.3333333333335
-0.115,0.175,2711.1111111111113
-0.145,0.18,2713.8888888888887
-0.18,0.19,2716.6666666666665
-0.185,0.19,2719.4444444444443
-0.185,0.175,2722.222222222222
-0.17,0.18,2725.0
-0.155,0.175,2727.777777777778
-0.155,0.19,2730.5555555555557
-0.14,0.2,2733.3333333333335
-0.125,0.205,2736.1111111111113
-0.135,0.195,2738.8888888888887
-0.13,0.19,2741.6666666666665
-0.135,0.19,2744.4444444444443
-0.15,0.2,2747.222222222222
-0.15,0.195,2750.0
-0.145,0.205,2752.777777777778
-0.125,0.22,2755.5555555555557
-0.095,0.22,2758.3333333333335
-0.05,0.23,2761.1111111111113
-0.015,0.24,2763.8888888888887
0.03,0.23,2766.6666666666665
0.115,0.205,2769.4444444444443
0.195,0.13,2772.222222222222
0.395,-0.08,2775.0
0.485,-0.18,2777.777777777778
0.55,-0.27,2780.5555555555557
0.54,-0.34,2783.3333333333335
0.44,-0.37,2786.1111111111113
0.235,-0.36,2788.8888888888887
-0.03,-0.315,2791.6666666666665
-0.29,-0.19,2794.4444444444443
-0.465,-0.045,2797.222222222222
-0.555,0.14,2800.0
-0.58,0.28,2802.777777777778
-0.545,0.405,2805.5555555555557
-0.495,0.48,2808.3333333333335
-0.44,0.51,2811.1111111111113
-0.39,0.495,2813.8888888888887
-0.35,0.49,2816.6666666666665
-0.33,0.46,2819.4444444444443
-0.33,0.47,2822.222222222222
-0.36,0.485,2825.0
-0.41,0.53,2827.777777777778
-0.455,0.575,2830.5555555555557
-0.47,0.615,2833.3333333333335
-0.465,0.645,2836.1111111111113
-0.43,0.64,2838.8888888888887
-0.39,0.65,2841.6666666666665
-0.345,0.66,2844.4444444444443
-0.32,0.665,2847.222222222222
-0.33,0.655,2850.0
-0.34,0.665,2852.777777777778
-0.355,0.67,2855.5555555555557
-0.37,0.65,2858.3333333333335
-0.365,0.63,2861.1111111111113
-0.335,0.595,2863.8888888888887
-0.32,0.55,2866.6666666666665
-0.285,0.49,2869.4444444444443
-0.26,0.44,2872.222222222222
-0.26,0.385,2875.0
-0.265,0.34,2877.777777777778
-0.27,0.295,2880.5555555555557
-0.28,0.26,2883.3333333333335
-0.28,0.215,2886.1111111111113
-0.265,0.18,2888.8888888888887
-0.23,0.155,2891.6666666666665
-0.2,0.14,2894.4444444444443
-0.17,0.12,2897.222222222222
-0.14,0.13,2900.0
-0.125,0.135,2902.777777777778
-0.115,0.125,2905.5555555555557
-0.095,0.105,2908.3333333333335
-0.07,0.085,2911.1111111111113
-0.05,0.06,2913.8888888888887
-0.07,0.055,2916.6666666666665
-0.105,0.08,2919.4444444444443
-0.165,0.11,2922.222222222222
-0.24,0.155,2925.0
-0.29,0.175,2927.777777777778
-0.29,0.175,2930.5555555555557
-0.26,0.165,2933.3333333333335
-0.21,0.145,2936.1111111111113
-0.16,0.12,2938.8888888888887
-0.13,0.105,2941.6666666666665
-0.12,0.085,2944.4444444444443
-0.125,0.09,2947.222222222222
-0.115,0.085,2950.0
-0.125,0.08,2952.777777777778
-0.125,0.09,2955.5555555555557
-0.12,0.065,2958.3333333333335
-0.11,0.07,2961.1111111111113
-0.12,0.07,2963.8888888888887
-0.13,0.1,2966.6666666666665
-0.135,0.11,2969.4444444444443
-0.14,0.105,2972.222222222222
-0.165,0.085,2975.0
-0.145,0.08,2977.777777777778
-0.145,0.055,2980.5555555555557
-0.115,0.04,2983.3333333333335
-0.115,0.04,2986.1111111111113
-0.11,0.035,2988.8888888888887
-0.105,0.05,2991.6666666666665
-0.105,0.05,2994.4444444444443
-0.1,0.065,2997.222222222222
-0.095,0.07,3000.0
-0.11,0.065,3002.777777777778
-0.125,0.06,3005.5555555555557
-0.135,0.05,3008.3333333333335
-0.125,0.035,3011.1111111111113
-0.11,0.01,3013.8888888888887
-0.095,0.02,3016.6666666666665
-0.09,-0.005,3019.4444444444443
-0.065,-0.01,3022.222222222222
-0.05,-0.02,3025.0
-0.04,-0.035,3027.777777777778
-0.025,-0.035,3030.5555555555557
-0.01,-0.04,3033.3333333333335
0.025,-0.035,3036.1111111111113
0.03,-0.06,3038.8888888888887
0.05,-0.065,3041.6666666666665
0.07,-0.075,3044.4444444444443
0.065,-0.08,3047.222222222222
0.05,-0.08,3050.0
0.055,-0.095,3052.777777777778
0.055,-0.1,3055.5555555555557
0.05,-0.1,3058.3333333333335
0.045,-0.075,3061.1111111111113
0.05,-0.08,3063.8888888888887
0.06,-0.075,3066.6666666666665
0.075,-0.07,3069.4444444444443
0.085,-0.08,3072.222222222222
0.085,-0.095,3075.0
0.11,-0.115,3077.777777777778
0.085,-0.1,3080.5555555555557
0.08,-0.105,3083.3333333333335
0.07,-0.105,3086.1111111111113
0.07,-0.095,3088.8888888888887
0.085,-0.09,3091.6666666666665
0.085,-0.065,3094.4444444444443
0.085,-0.035,3097.222222222222
0.07,-0.015,3100.0
0.07,-0.005,3102.777777777778
0.045,0.0,3105.5555555555557
0.02,0.02,3108.3333333333335
0.01,0.015,3111.1111111111113
0.0,0.01,3113.8888888888887
-0.005,0.03,3116.6666666666665
-0.005,0.045,3119.4444444444443
-0.045,0.055,3122.222222222222
-0.08,0.075,3125.0
-0.1,0.1,3127.777777777778
-0.11,0.12,3130.5555555555557
-0.115,0.135,3133.3333333333335
-0.08,0.14,3136.1111111111113
-0.065,0.13,3138.8888888888887
-0.05,0.13,3141.6666666666665
-0.04,0.135,3144.4444444444443
-0.06,0.14,3147.222222222222
-0.09,0.155,3150.0
-0.15,0.175,3152.777777777778
-0.195,0.195,3155.5555555555557
-0.215,0.21,3158.3333333333335
-0.225,0.205,3161.1111111111113
-0.215,0.205,3163.8888888888887
-0.19,0.195,3166.6666666666665
-0.15,0.17,3169.4444444444443
-0.13,0.16,3172.222222222222
-0.12,0.155,3175.0
-0.125,0.155,3177.777777777778
-0.14,0.16,3180.5555555555557
-0.15,0.145,3183.3333333333335
-0.17,0.165,3186.1111111111113
-0.185,0.175,3188.8888888888887
-0.19,0.16,3191.6666666666665
-0.18,0.18,3194.4444444444443
-0.19,0.185,3197.222222222222
-0.195,0.2,3200.0
-0.195,0.215,3202.777777777778
-0.21,0.215,3205.5555555555557
-0.205,0.2,3208.3333333333335
-0.19,0.195,3211.1111111111113
-0.17,0.16,3213.8888888888887
-0.16,0.155,3216.6666666666665
-0.155,0.145,3219.4444444444443
-0.15,0.14,3222.222222222222
-0.17,0.155,3225.0
-0.195,0.17,3227.777777777778
-0.2,0.2,3230.5555555555557
-0.22,0.21,3233.3333333333335
-0.205,0.215,3236.1111111111113
-0.19,0.205,3238.8888888888887
-0.16,0.175,3241.6666666666665
-0.125,0.155,3244.4444444444443
-0.1,0.145,3247.222222222222
-0.085,0.14,3250.0
-0.095,0.15,3252.777777777778
-0.125,0.165,3255.5555555555557
-0.155,0.185,3258.3333333333335
-0.165,0.185,3261.1111111111113
-0.165,0.18,3263.8888888888887
-0.175,0.205,3266.6666666666665
-0.15,0.185,3269.4444444444443
-0.14,0.175,3272.222222222222
-0.13,0.165,3275.0
-0.105,0.15,3277.777777777778
-0.12,0.15,3280.5555555555557
-0.12,0.155,3283.3333333333335
-0.145,0.16,3286.1111111111113
-0.16,0.165,3288.8888888888887
-0.185,0.18,3291.6666666666665
-0.2,0.18,3294.4444444444443
-0.185,0.195,3297.222222222222
-0.19,0.2,3300.0
-0.19,0.2,3302.777777777778
-0.18,0.19,3305.5555555555557
-0.16,0.18,3308.3333333333335
-0.135,0.155,3311.1111111111113
-0.14,0.155,3313.8888888888887
-0.13,0.145,3316.6666666666665
-0.145,0.155,3319.4444444444443
-0.17,0.165,3322.222222222222
-0.21,0.17,3325.0
-0.22,0.18,3327.777777777778
-0.19,0.195,3330.5555555555557
-0.175,0.185,3333.3333333333335
-0.155,0.175,3336.1111111111113
-0.145,0.165,3338.8888888888887
-0.155,0.18,3341.6666666666665
-0.165,0.17,3344.4444444444443
-0.16,0.175,3347.222222222222
-0.17,0.16,3350.0
-0.175,0.165,3352.777777777778
-0.165,0.145,3355.5555555555557
-0.15,0.145,3358.3333333333335
-0.145,0.155,3361.1111111111113
-0.155,0.16,3363.8888888888887
-0.17,0.175,3366.6666666666665
-0.2,0.2,3369.4444444444443
-0.22,0.2,3372.222222222222
-0.25,0.205,3375.0
-0.25,0.205,3377.777777777778
-0.26,0.18,3380.5555555555557
-0.25,0.175,3383.3333333333335
-0.23,0.165,3386.1111111111113
-0.205,0.15,3388.8888888888887
-0.18,0.15,3391.6666666666665
-0.155,0.15,3394.4444444444443
-0.125,0.13,3397.222222222222
-0.1,0.135,3400.0
-0.095,0.14,3402.777777777778
-0.11,0.155,3405.5555555555557
-0.165,0.175,3408.3333333333335
-0.215,0.185,3411.1111111111113
-0.25,0.195,3413.8888888888887
-0.27,0.195,3416.6666666666665
-0.275,0.18,3419.4444444444443
-0.25,0.19,3422.222222222222
-0.235,0.17,3425.0
-0.205,0.17,3427.777777777778
-0.19,0.16,3430.5555555555557
-0.185,0.16,3433.3333333333335
-0.185,0.175,3436.1111111111113
-0.185,0.17,3438.8888888888887
-0.195,0.17,3441.6666666666665
-0.205,0.165,3444.4444444444443
-0.2,0.15,3447.222222222222
-0.185,0.135,3450.0
-0.18,0.125,3452.777777777778
-0.155,0.115,3455.5555555555557
-0.105,0.095,3458.3333333333335
-0.045,0.075,3461.1111111111113
-0.005,0.09,3463.8888888888887
-0.045,0.125,3466.6666666666665
-0.15,0.185,3469.4444444444443
-0.265,0.24,3472.222222222222
-0.375,0.275,3475.0
-0.41,0.25,3477.777777777778
-0.375,0.21,3480.5555555555557
-0.32,0.185,3483.3333333333335
-0.25,0.15,3486.1111111111113
-0.205,0.15,3488.8888888888887
-0.17,0.145,3491.6666666666665
-0.17,0.15,3494.4444444444443
-0.165,0.155,3497.222222222222
-0.17,0.17,3500.0
-0.16,0.165,3502.777777777778
-0.165,0.16,3505.5555555555557
-0.14,0.14,3508.3333333333335
-0.12,0.12,3511.1111111111113
-0.09,0.105,3513.8888888888887
-0.095,0.085,3516.6666666666665
-0.095,0.095,3519.4444444444443
-0.125,0.115,3522.222222222222
-0.17,0.15,3525.0
-0.235,0.185,3527.777777777778
-0.31,0.225,3530.5555555555557
-0.34,0.25,3533.3333333333335
-0.34,0.25,3536.1111111111113
-0.305,0.22,3538.8888888888887
-0.255,0.205,3541.6666666666665
-0.205,0.175,3544.4444444444443
-0.165,0.155,3547.222222222222
-0.145,0.14,3550.0
-0.14,0.145,3552.777777777778
-0.15,0.14,3555.5555555555557
-0.165,0.14,3558.3333333333335
-0.165,0.16,3561.1111111111113
-0.16,0.155,3563.8888888888887
-0.165,0.175,3566.6666666666665
-0.165,0.185,3569.4444444444443
-0.17,0.185,3572.222222222222
-0.195,0.185,3575.0
-0.21,0.18,3577.777777777778
-0.22,0.165,3580.5555555555557
-0.22,0.155,3583.3333333333335
-0.21,0.155,3586.1111111111113
-0.2,0.14,3588.8888888888887
-0.195,0.145,3591.6666666666665
-0.18,0.155,3594.4444444444443
-0.175,0.155,3597.222222222222
-0.17,0.165,3600.0
-0.16,0.165,3602.777777777778
-0.16,0.17,3605.5555555555557
-0.17,0.17,3608.3333333333335
-0.175,0.165,3611.1111111111113
-0.19,0.165,3613.8888888888887
-0.2,0.15,3616.6666666666665
-0.21,0.145,3619.4444444444443
-0.215,0.14,3622.222222222222
-0.215,0.145,3625.0
-0.205,0.16,3627.777777777778
-0.2,0.18,3630.5555555555557
-0.205,0.195,3633.3333333333335
-0.205,0.205,3636.1111111111113
-0.21,0.22,3638.8888888888887
-0.215,0.205,3641.6666666666665
-0.21,0.2,3644.4444444444443
-0.2,0.2,3647.222222222222
-0.19,0.18,3650.0
-0.18,0.165,3652.777777777778
-0.16,0.145,3655.5555555555557
-0.15,0.15,3658.3333333333335
-0.135,0.145,3661.1111111111113
-0.14,0.165,3663.8888888888887
-0.165,0.18,3666.6666666666665
-0.2,0.2,3669.4444444444443
-0.25,0.21,3672.222222222222
-0.265,0.215,3675.0
-0.28,0.21,3677.777777777778
-0.265,0.195,3680.5555555555557
-0.245,0.165,3683.3333333333335
-0.23,0.165,3686.1111111111113
-0.2,0.15,3688.8888888888887
-0.195,0.15,3691.6666666666665
-0.195,0.16,3694.4444444444443
-0.195,0.17,3697.222222222222
-0.195,0.175,3700.0
-0.185,0.185,3702.777777777778
-0.175,0.185,3705.5555555555557
-0.17,0.185,3708.3333333333335
-0.155,0.175,3711.1111111111113
-0.155,0.155,3713.8888888888887
-0.155,0.165,3716.6666666666665
-0.185,0.16,3719.4444444444443
-0.2,0.16,3722.222222222222
-0.2,0.16,3725.0
-0.195,0.17,3727.777777777778
-0.17,0.175,3730.5555555555557
-0.145,0.185,3733.3333333333335
-0.115,0.155,3736.1111111111113
-0.12,0.155,3738.8888888888887
-0.13,0.165,3741.6666666666665
-0.145,0.155,3744.4444444444443
-0.16,0.16,3747.222222222222
-0.18,0.175,3750.0
-0.225,0.185,3752.777777777778
-0.27,0.2,3755.5555555555557
-0.295,0.22,3758.3333333333335
-0.29,0.225,3761.1111111111113
-0.285,0.22,3763.8888888888887
-0.23,0.22,3766.6666666666665
-0.195,0.21,3769.4444444444443
-0.175,0.2,3772.222222222222
-0.17,0.21,3775.0
-0.175,0.185,3777.777777777778
-0.2,0.195,3780.5555555555557
-0.215,0.185,3783.3333333333335
-0.245,0.19,3786.1111111111113
-0.24,0.175,3788.8888888888887
-0.21,0.175,3791.6666666666665
-0.19,0.175,3794.4444444444443
-0.155,0.17,3797.222222222222
-0.13,0.155,3800.0
-0.12,0.175,3802.777777777778
-0.135,0.17,3805.5555555555557
-0.16,0.175,3808.3333333333335
-0.195,0.19,3811.1111111111113
-0.215,0.18,3813.8888888888887
-0.24,0.16,3816.6666666666665
-0.24,0.14,3819.4444444444443
-0.225,0.15,3822.222222222222
-0.205,0.14,3825.0
-0.19,0.145,3827.777777777778
-0.2,0.18,3830.5555555555557
-0.21,0.175,3833.3333333333335
-0.2,0.18,3836.1111111111113
-0.21,0.175,3838.8888888888887
-0.22,0.17,3841.6666666666665
-0.23,0.16,3844.4444444444443
-0.235,0.155,3847.222222222222
-0.235,0.16,3850.0
-0.245,0.145,3852.777777777778
-0.21,0.13,3855.5555555555557
-0.19,0.12,3858.3333333333335
-0.165,0.125,3861.1111111111113
-0.15,0.125,3863.8888888888887
-0.15,0.145,3866.6666666666665
-0.16,0.15,3869.4444444444443
-0.17,0.145,3872.222222222222
-0.175,0.16,3875.0
-0.19,0.16,3877.777777777778
-0.215,0.17,3880.5555555555557
-0.245,0.16,3883.3333333333335
-0.255,0.15,3886.1111111111113
-0.26,0.14,3888.8888888888887
-0.255,0.14,3891.6666666666665
-0.24,0.14,3894.4444444444443
-0.215,0.15,3897.222222222222
-0.195,0.14,3900.0
-0.185,0.135,3902.777777777778
-0.165,0.145,3905.5555555555557
-0.175,0.13,3908.3333333333335
-0.205,0.155,3911.1111111111113
-0.26,0.16,3913.8888888888887
-0.285,0.155,3916.6666666666665
-0.3,0.165,3919.4444444444443
-0.31,0.15,3922.222222222222
-0.305,0.15,3925.0
-0.265,0.135,3927.777777777778
-0.235,0.13,3930.5555555555557
-0.195,0.13,3933.3333333333335
-0.18,0.12,3936.1111111111113
-0.18,0.125,3938.8888888888887
-0.21,0.125,3941.6666666666665
-0.24,0.12,3944.4444444444443
-0.265,0.115,3947.222222222222
-0.28,0.11,3950.0
-0.265,0.1,3952.777777777778
-0.255,0.09,3955.5555555555557
-0.225,0.095,3958.3333333333335
-0.215,0.105,3961.1111111111113
-0.195,0.105,3963.8888888888887
-0.19,0.115,3966.6666666666665
-0.175,0.11,3969.4444444444443
-0.195,0.12,3972.222222222222
-0.21,0.13,3975.0
-0.215,0.12,3977.777777777778
-0.235,0.12,3980.5555555555557
-0.23,0.11,3983.3333333333335
-0.235,0.105,3986.1111111111113
-0.24,0.105,3988.8888888888887
-0.25,0.115,3991.6666666666665
-0.26,0.115,3994.4444444444443
-0.255,0.135,3997.222222222222
-0.255,0.135,4000.0
-0.245,0.145,4002.777777777778
-0.245,0.13,4005.5555555555557
-0.25,0.13,4008.3333333333335
-0.24,0.105,4011.1111111111113
-0.225,0.1,4013.8888888888887
-0.215,0.085,4016.6666666666665
-0.215,0.09,4019.4444444444443
-0.22,0.095,4022.222222222222
-0.225,0.11,4025.0
-0.235,0.12,4027.777777777778
-0.24,0.12,4030.5555555555557
-0.235,0.12,4033.3333333333335
-0.22,0.115,4036.1111111111113
-0.21,0.115,4038.8888888888887
-0.22,0.11,4041.6666666666665
-0.21,0.095,4044.4444444444443
-0.225,0.09,4047.222222222222
-0.225,0.1,4050.0
-0.255,0.1,4052.777777777778
-0.26,0.105,4055.5555555555557
-0.25,0.11,4058.3333333333335
-0.24,0.1,4061.1111111111113
-0.2,0.1,4063.8888888888887
-0.175,0.105,4066.6666666666665
-0.16,0.115,4069.4444444444443
-0.185,0.12,4072.222222222222
-0.22,0.13,4075.0
-0.235,0.125,4077.777777777778
-0.255,0.135,4080.5555555555557
-0.285,0.125,4083.3333333333335
-0.305,0.13,4086.1111111111113
-0.295,0.13,4088.8888888888887
-0.27,0.11,4091.6666666666665
-0.25,0.11,4094.4444444444443
-0.22,0.12,4097.222222222223
-0.21,0.12,4100.0
-0.2,0.13,4102.777777777777
-0.22,0.13,4105.555555555556
-0.225,0.13,4108.333333333333
-0.23,0.125,4111.111111111111
-0.22,0.11,4113.888888888889
-0.22,0.1,4116.666666666667
-0.23,0.1,4119.444444444444
-0.245,0.12,4122.222222222223
-0.24,0.105,4125.0
-0.23,0.11,4127.777777777777
-0.225,0.12,4130.555555555556
-0.21,0.135,4133.333333333333
-0.215,0.135,4136.111111111111
-0.24,0.15,4138.888888888889
-0.255,0.155,4141.666666666667
-0.26,0.14,4144.444444444444
-0.26,0.125,4147.222222222223
-0.25,0.115,4150.0
-0.245,0.115,4152.777777777777
-0.25,0.13,4155.555555555556
-0.265,0.15,4158.333333333333
-0.285,0.15,4161.111111111111
-0.27,0.145,4163.888888888889
-0.25,0.15,4166.666666666667
-0.22,0.14,4169.444444444444
-0.195,0.135,4172.222222222223
-0.185,0.12,4175.0
-0.18,0.105,4177.777777777777
-0.205,0.115,4180.555555555556
-0.21,0.115,4183.333333333333
-0.225,0.115,4186.111111111111
-0.24,0.125,4188.888888888889
-0.25,0.13,4191.666666666667
-0.26,0.13,4194.444444444444
-0.25,0.125,4197.222222222223
-0.23,0.14,4200.0
-0.205,0.14,4202.777777777777
-0.19,0.135,4205.555555555556
-0.2,0.15,4208.333333333333
-0.2,0.15,4211.111111111111
-0.21,0.15,4213.888888888889
-0.24,0.135,4216.666666666667
-0.255,0.135,4219.444444444444
-0.26,0.13,4222.222222222223
-0.245,0.13,4225.0
-0.225,0.135,4227.777777777777
-0.22,0.135,4230.555555555556
-0.21,0.15,4233.333333333333
-0.205,0.15,4236.111111111111
-0.205,0.15,4238.888888888889
-0.21,0.125,4241.666666666667
-0.215,0.13,4244.444444444444
-0.245,0.135,4247.222222222223
-0.265,0.16,4250.0
-0.28,0.14,4252.777777777777
-0.265,0.135,4255.555555555556
-0.245,0.14,4258.333333333333
-0.225,0.125,4261.111111111111
-0.205,0.135,4263.888888888889
-0.215,0.15,4266.666666666667
-0.23,0.17,4269.444444444444
-0.24,0.17,4272.222222222223
-0.235,0.165,4275.0
-0.2,0.14,4277.777777777777
-0.185,0.115,4280.555555555556
-0.17,0.115,4283.333333333333
-0.175,0.11,4286.111111111111
-0.205,0.115,4288.888888888889
-0.235,0.12,4291.666666666667
-0.27,0.14,4294.444444444444
-0.27,0.16,4297.222222222223
-0.26,0.17,4300.0
-0.255,0.17,4302.777777777777
-0.245,0.175,4305.555555555556
-0.225,0.155,4308.333333333333
-0.2,0.145,4311.111111111111
-0.19,0.14,4313.888888888889
-0.18,0.105,4316.666666666667
-0.19,0.105,4319.444444444444
-0.2,0.11,4322.222222222223
-0.205,0.12,4325.0
-0.205,0.145,4327.777777777777
-0.205,0.14,4330.555555555556
-0.195,0.145,4333.333333333333
-0.19,0.14,4336.111111111111
-0.19,0.13,4338.888888888889
-0.205,0.13,4341.666666666667
-0.21,0.14,4344.444444444444
-0.225,0.135,4347.222222222223
-0.24,0.145,4350.0
-0.245,0.135,4352.777777777777
-0.245,0.14,4355.555555555556
-0.225,0.14,4358.333333333333
-0.22,0.13,4361.111111111111
-0.19,0.145,4363.888888888889
-0.175,0.15,4366.666666666667
-0.17,0.16,4369.444444444444
-0.17,0.165,4372.222222222223
-0.19,0.165,4375.0
-0.205,0.15,4377.777777777777
-0.235,0.145,4380.555555555556
-0.235,0.16,4383.333333333333
-0.235,0.155,4386.111111111111
-0.215,0.16,4388.888888888889
-0.195,0.165,4391.666666666667
-0.18,0.165,4394.444444444444
-0.155,0.175,4397.222222222223
-0.135,0.175,4400.0
-0.135,0.17,4402.777777777777
-0.13,0.185,4405.555555555556
-0.14,0.195,4408.333333333333
-0.165,0.19,4411.111111111111
-0.17,0.175,4413.888888888889
-0.17,0.145,4416.666666666667
-0.165,0.125,4419.444444444444
-0.145,0.11,4422.222222222223
-0.135,0.09,4425.0
-0.105,0.09,4427.777777777777
-0.1,0.085,4430.555555555556
-0.1,0.105,4433.333333333333
-0.13,0.105,4436.111111111111
-0.16,0.12,4438.888888888889
-0.2,0.125,4441.666666666667
-0.225,0.12,4444.444444444444
-0.245,0.12,4447.222222222223
-0.25,0.11,4450.0
-0.24,0.11,4452.777777777777
-0.22,0.115,4455.555555555556
-0.185,0.12,4458.333333333333
-0.175,0.11,4461.111111111111
-0.145,0.105,4463.888888888889
-0.12,0.095,4466.666666666667
-0.105,0.11,4469.444444444444
-0.11,0.105,4472.222222222223
-0.135,0.125,4475.0
-0.175,0.15,4477.777777777777
-0.23,0.17,4480.555555555556
-0.28,0.18,4483.333333333333
-0.325,0.18,4486.111111111111
-0.345,0.17,4488.888888888889
-0.345,0.175,4491.666666666667
-0.325,0.165,4494.444444444444
-0.3,0.15,4497.222222222223
-0.27,0.16,4500.0
-0.24,0.155,4502.777777777777
-0.225,0.145,4505.555555555556
-0.205,0.135,4508.333333333333
-0.205,0.13,4511.111111111111
-0.2,0.13,4513.888888888889
-0.205,0.125,4516.666666666667
-0.22,0.13,4519.444444444444
-0.24,0.13,4522.222222222223
-0.265,0.155,4525.0
-0.285,0.175,4527.777777777777
-0.285,0.185,4530.555555555556
-0.285,0.19,4533.333333333333
-0.28,0.19,4536.111111111111
-0.25,0.17,4538.888888888889
-0.235,0.165,4541.666666666667
-0.235,0.155,4544.444444444444
-0.22,0.13,4547.222222222223
-0.205,0.12,4550.0
-0.16,0.085,4552.777777777777
-0.14,0.095,4555.555555555556
-0.13,0.11,4558.333333333333
-0.17,0.135,4561.111111111111
-0.225,0.175,4563.888888888889
-0.28,0.21,4566.666666666667
-0.32,0.22,4569.444444444444
-0.32,0.21,4572.222222222223
-0.32,0.205,4575.0
-0.275,0.18,4577.777777777777
-0.24,0.175,4580.555555555556
-0.2,0.185,4583.333333333333
-0.16,0.185,4586.111111111111
-0.145,0.195,4588.888888888889
-0.095,0.185,4591.666666666667
-0.02,0.155,4594.444444444444
0.08,0.095,4597.222222222223
0.21,0.03,4600.0
0.34,-0.05,4602.777777777777
0.44,-0.13,4605.555555555556
0.525,-0.22,4608.333333333333
0.555,-0.27,4611.111111111111
0.505,-0.33,4613.888888888889
0.355,-0.355,4616.666666666667
0.095,-0.345,4619.444444444444
-0.19,-0.275,4622.222222222223
-0.42,-0.175,4625.0
-0.575,-0.03,4627.777777777777
-0.625,0.115,4630.555555555556
-0.62,0.245,4633.333333333333
-0.585,0.36,4636.111111111111
-0.54,0.42,4638.888888888889
-0.505,0.45,4641.666666666667
-0.485,0.455,4644.444444444444
-0.475,0.465,4647.222222222223
-0.505,0.48,4650.0
-0.52,0.48,4652.777777777777
-0.545,0.485,4655.555555555556
-0.54,0.51,4658.333333333333
-0.525,0.54,4661.111111111111
-0.5,0.575,4663.888888888889
-0.46,0.59,4666.666666666667
-0.42,0.635,4669.444444444444
-0.395,0.64,4672.222222222223
-0.385,0.655,4675.0
-0.365,0.66,4677.777777777777
-0.375,0.65,4680.555555555556
-0.395,0.645,4683.333333333333
-0.44,0.64,4686.111111111111
-0.48,0.63,4688.888888888889
-0.505,0.6,4691.666666666667
-0.51,0.575,4694.444444444444
-0.485,0.53,4697.222222222223
-0.445,0.475,4700.0
-0.395,0.4,4702.777777777777
-0.34,0.33,4705.555555555556
-0.3,0.26,4708.333333333333
-0.25,0.19,4711.111111111111
-0.215,0.145,4713.888888888889
-0.195,0.105,4716.666666666667
-0.205,0.105,4719.444444444444
-0.215,0.115,4722.222222222223
-0.25,0.125,4725.0
-0.28,0.15,4727.777777777777
-0.295,0.16,4730.555555555556
-0.29,0.16,4733.333333333333
-0.265,0.15,4736.111111111111
-0.23,0.13,4738.888888888889
-0.195,0.105,4741.666666666667
-0.185,0.105,4744.444444444444
-0.185,0.095,4747.222222222223
-0.21,0.095,4750.0
-0.235,0.1,4752.777777777777
-0.26,0.11,4755.555555555556
-0.28,0.12,4758.333333333333
-0.3,0.15,4761.111111111111
-0.32,0.155,4763.888888888889
-0.315,0.165,4766.666666666667
-0.285,0.17,4769.444444444444
-0.26,0.14,4772.222222222223
-0.24,0.12,4775.0
-0.225,0.09,4777.777777777777
-0.205,0.08,4780.555555555556
-0.19,0.065,4783.333333333333
-0.185,0.065,4786.111111111111
-0.195,0.07,4788.888888888889
-0.215,0.095,4791.666666666667
-0.245,0.115,4794.444444444444
-0.245,0.125,4797.222222222223
-0.255,0.125,4800.0
-0.235,0.12,4802.777777777777
-0.195,0.115,4805.555555555556
-0.175,0.095,4808.333333333333
-0.15,0.08,4811.111111111111
-0.125,0.07,4813.888888888889
-0.135,0.045,4816.666666666667
-0.13,0.045,4819.444444444444
-0.145,0.06,4822.222222222223
-0.175,0.07,4825.0
-0.19,0.085,4827.777777777777
-0.185,0.08,4830.555555555556
-0.185,0.1,4833.333333333333
-0.175,0.095,4836.111111111111
-0.16,0.08,4838.888888888889
-0.19,0.07,4841.666666666667
-0.195,0.055,4844.444444444444
-0.18,0.04,4847.222222222223
-0.165,0.01,4850.0
-0.13,0.005,4852.777777777777
-0.105,-0.005,4855.555555555556
-0.095,0.0,4858.333333333333
-0.1,0.01,4861.111111111111
-0.1,0.0,4863.888888888889
-0.105,0.005,4866.666666666667
-0.09,0.005,4869.444444444444
-0.1,0.005,4872.222222222223
-0.105,0.005,4875.0
-0.105,-0.01,4877.777777777777
-0.1,-0.025,4880.555555555556
-0.075,-0.04,4883.333333333333
-0.05,-0.06,4886.111111111111
-0.035,-0.065,4888.888888888889
-0.015,-0.07,4891.666666666667
0.005,-0.075,4894.444444444444
0.025,-0.095,4897.222222222223
0.02,-0.08,4900.0
0.03,-0.08,4902.777777777777
0.03,-0.08,4905.555555555556
0.01,-0.075,4908.333333333333
-0.005,-0.07,4911.111111111111
-0.02,-0.08,4913.888888888889
-0.025,-0.085,4916.666666666667
-0.03,-0.07,4919.444444444444
-0.02,-0.085,4922.222222222223
0.0,-0.085,4925.0
0.035,-0.095,4927.777777777777
0.07,-0.1,4930.555555555556
0.085,-0.075,4933.333333333333
0.075,-0.065,4936.111111111111
0.04,-0.035,4938.888888888889
-0.02,-0.01,4941.666666666667
-0.065,-0.005,4944.444444444444
-0.085,0.015,4947.222222222223
-0.085,0.005,4950.0
-0.085,0.005,4952.777777777777
-0.07,0.005,4955.555555555556
-0.04,0.01,4958.333333333333
-0.03,0.045,4961.111111111111
-0.03,0.055,4963.888888888889
-0.04,0.065,4966.666666666667
-0.045,0.07,4969.444444444444
-0.03,0.075,4972.222222222223
-0.03,0.075,4975.0
-0.045,0.08,4977.777777777777
-0.06,0.1,4980.555555555556
-0.09,0.1,4983.333333333333
-0.145,0.125,4986.111111111111
-0.165,0.145,4988.888888888889
-0.19,0.15,4991.666666666667
-0.185,0.16,4994.444444444444
-0.18,0.165,4997.222222222223
-0.175,0.18,5000.0
-0.18,0.18,5002.777777777777
-0.185,0.175,5005.555555555556
-0.19,0.16,5008.333333333333
-0.18,0.15,5011.111111111111
-0.165,0.135,5013.888888888889
-0.16,0.135,5016.666666666667
-0.18,0.14,5019.444444444444
-0.21,0.155,5022.222222222223
-0.255,0.165,5025.0
-0.26,0.17,5027.777777777777
-0.265,0.16,5030.555555555556
-0.255,0.14,5033.333333333333
-0.24,0.135,5036.111111111111
-0.245,0.125,5038.888888888889
-0.27,0.13,5041.666666666667
-0.275,0.125,5044.444444444444
-0.275,0.115,5047.222222222223
-0.25,0.125,5050.0
-0.245,0.12,5052.777777777777
-0.25,0.125,5055.555555555556
-0.245,0.14,5058.333333333333
-0.245,0.15,5061.111111111111
-0.23,0.145,5063.888888888889
-0.22,0.145,5066.666666666667
-0.195,0.14,5069.444444444444
-0.17,0.135,5072.222222222223
-0.16,0.16,5075.0
-0.15,0.15,5077.777777777777
-0.165,0.145,5080.555555555556
-0.175,0.13,5083.333333333333
-0.175,0.125,5086.111111111111
-0.175,0.135,5088.888888888889
-0.2,0.135,5091.666666666667
-0.215,0.145,5094.444444444444
-0.215,0.14,5097.222222222223
-0.205,0.16,5100.0
-0.2,0.16,5102.777777777777
-0.2,0.15,5105.555555555556
-0.185,0.14,5108.333333333333
-0.175,0.125,5111.111111111111
-0.175,0.125,5113.888888888889
-0.16,0.11,5116.666666666667
-0.16,0.115,5119.444444444444
-0.155,0.125,5122.222222222223
-0.185,0.16,5125.0
-0.215,0.175,5127.777777777777
-0.225,0.18,5130.555555555556
-0.215,0.18,5133.333333333333
-0.18,0.18,5136.111111111111
-0.155,0.165,5138.888888888889
-0.14,0.165,5141.666666666667
-0.135,0.175,5144.444444444444
-0.135,0.165,5147.222222222223
-0.145,0.17,5150.0
-0.16,0.17,5152.777777777777
-0.18,0.18,5155.555555555556
-0.175,0.18,5158.333333333333
-0.18,0.195,5161.111111111111
-0.17,0.185,5163.888888888889
-0.17,0.195,5166.666666666667
-0.165,0.195,5169.444444444444
-0.145,0.205,5172.222222222223
-0.145,0.19,5175.0
-0.17,0.195,5177.777777777777
-0.21,0.205,5180.555555555556
-0.22,0.175,5183.333333333333
-0.215,0.175,5186.111111111111
-0.205,0.185,5188.888888888889
-0.19,0.175,5191.666666666667
-0.175,0.19,5194.444444444444
-0.185,0.21,5197.222222222223
-0.195,0.215,5200.0
-0.21,0.225,5202.777777777777
-0.215,0.215,5205.555555555556
-0.2,0.2,5208.333333333333
-0.185,0.2,5211.111111111111
-0.17,0.18,5213.888888888889
-0.165,0.16,5216.666666666667
-0.17,0.185,5219.444444444444
-0.19,0.19,5222.222222222223
-0.215,0.195,5225.0
-0.235,0.21,5227.777777777777
-0.23,0.205,5230.555555555556
-0.21,0.205,5233.333333333333
-0.185,0.21,5236.111111111111
-0.165,0.2,5238.888888888889
-0.175,0.195,5241.666666666667
-0.18,0.19,5244.444444444444
-0.185,0.175,5247.222222222223
-0.2,0.165,5250.0
-0.2,0.18,5252.777777777777
-0.2,0.195,5255.555555555556
-0.19,0.215,5258.333333333333
-0.185,0.24,5261.111111111111
-0.18,0.25,5263.888888888889
-0.16,0.275,5266.666666666667
-0.115,0.255,5269.444444444444
-0.04,0.215,5272.222222222223
0.06,0.135,5275.0
0.18,0.03,5277.777777777777
0.315,-0.08,5280.555555555556
0.44,-0.18,5283.333333333333
0.53,-0.275,5286.111111111111
0.56,-0.34,5288.888888888889
0.515,-0.37,5291.666666666667
0.33,-0.355,5294.444444444444
0.065,-0.295,5297.222222222223
-0.205,-0.17,5300.0
-0.405,-0.01,5302.777777777777
-0.525,0.145,5305.555555555556
-0.57,0.315,5308.333333333333
-0.555,0.44,5311.111111111111
-0.535,0.505,5313.888888888889
-0.505,0.53,5316.666666666667
-0.48,0.535,5319.444444444444
-0.45,0.54,5322.222222222223
-0.445,0.53,5325.0
-0.435,0.535,5327.777777777777
-0.455,0.555,5330.555555555556
-0.49,0.6,5333.333333333333
-0.495,0.64,5336.111111111111
-0.49,0.655,5338.888888888889
-0.455,0.685,5341.666666666667
-0.42,0.685,5344.444444444444
-0.39,0.71,5347.222222222223
-0.375,0.71,5350.0
-0.375,0.715,5352.777777777777
-0.405,0.71,5355.555555555556
-0.42,0.695,5358.333333333333
-0.42,0.665,5361.111111111111
-0.405,0.63,5363.888888888889
-0.405,0.57,5366.666666666667
-0.39,0.52,5369.444444444444
-0.38,0.435,5372.222222222223
-0.35,0.355,5375.0
-0.325,0.295,5377.777777777777
-0.28,0.21,5380.555555555556
-0.23,0.155,5383.333333333333
-0.18,0.11,5386.111111111111
-0.135,0.09,5388.888888888889
-0.145,0.095,5391.666666666667
-0.165,0.11,5394.444444444444
-0.185,0.135,5397.222222222223
-0.2,0.145,5400.0
-0.21,0.135,5402.777777777777
-0.195,0.14,5405.555555555556
-0.205,0.13,5408.333333333333
-0.205,0.115,5411.111111111111
-0.21,0.105,5413.888888888889
-0.22,0.12,5416.666666666667
-0.245,0.11,5419.444444444444
-0.235,0.115,5422.222222222223
-0.215,0.105,5425.0
-0.19,0.095,5427.777777777777
-0.18,0.105,5430.555555555556
-0.175,0.105,5433.333333333333
-0.16,0.1,5436.111111111111
-0.175,0.125,5438.888888888889
-0.19,0.125,5441.666666666667
-0.2,0.12,5444.444444444444
-0.205,0.105,5447.222222222223
-0.205,0.1,5450.0
-0.205,0.085,5452.777777777777
-0.2,0.075,5455.555555555556
-0.185,0.07,5458.333333333333
-0.16,0.075,5461.111111111111
-0.135,0.09,5463.888888888889
-0.12,0.09,5466.666666666667
-0.11,0.09,5469.444444444444
-0.14,0.095,5472.222222222223
-0.14,0.09,5475.0
-0.155,0.09,5477.777777777777
-0.16,0.08,5480.555555555556
-0.175,0.07,5483.333333333333
-0.175,0.065,5486.111111111111
-0.185,0.075,5488.888888888889
-0.2,0.065,5491.666666666667
-0.185,0.07,5494.444444444444
-0.15,0.055,5497.222222222223
-0.125,0.045,5500.0
-0.09,0.035,5502.777777777777
-0.085,0.02,5505.555555555556
-0.08,0.005,5508.333333333333
-0.095,0.01,5511.111111111111
-0.12,0.0,5513.888888888889
-0.125,0.0,5516.666666666667
-0.12,-0.025,5519.444444444444
-0.1,-0.03,5522.222222222223
-0.085,-0.04,5525.0
-0.05,-0.035,5527.777777777777
-0.015,-0.065,5530.555555555556
0.02,-0.085,5533.333333333333
0.05,-0.07,5536.111111111111
0.065,-0.085,5538.888888888889
0.045,-0.085,5541.666666666667
0.015,-0.085,5544.444444444444
-0.02,-0.1,5547.222222222223
-0.05,-0.1,5550.0
-0.045,-0.1,5552.777777777777
-0.04,-0.12,5555.555555555556
0.0,-0.12,5558.333333333333
0.015,-0.115,5561.111111111111
0.045,-0.105,5563.888888888889
0.045,-0.11,5566.666666666667
0.055,-0.095,5569.444444444444
0.055,-0.1,5572.222222222223
0.06,-0.115,5575.0
0.055,-0.105,5577.777777777777
0.045,-0.115,5580.555555555556
0.04,-0.11,5583.333333333333
0.045,-0.1,5586.111111111111
0.05,-0.085,5588.888888888889
0.045,-0.075,5591.666666666667
0.02,-0.04,5594.444444444444
-0.005,-0.03,5597.222222222223
-0.02,0.005,5600.0
-0.035,0.02,5602.777777777777
-0.045,0.03,5605.555555555556
-0.07,0.06,5608.333333333333
-0.065,0.06,5611.111111111111
-0.085,0.075,5613.888888888889
-0.105,0.095,5616.666666666667
-0.135,0.1,5619.444444444444
-0.15,0.12,5622.222222222223
-0.15,0.125,5625.0
-0.145,0.145,5627.777777777777
-0.135,0.15,5630.555555555556
-0.135,0.155,5633.333333333333
-0.135,0.165,5636.111111111111
-0.13,0.16,5638.888888888889
-0.145,0.16,5641.666666666667
-0.175,0.17,5644.444444444444
-0.215,0.165,5647.222222222223
-0.255,0.175,5650.0
-0.27,0.175,5652.777777777777
-0.3,0.165,5655.555555555556
-0.295,0.165,5658.333333333333
-0.28,0.175,5661.111111111111
-0.255,0.17,5663.888888888889
-0.24,0.19,5666.666666666667
-0.21,0.19,5669.444444444444
-0.185,0.18,5672.222222222223
-0.175,0.155,5675.0
-0.14,0.13,5677.777777777777
-0.12,0.105,5680.555555555556
-0.085,0.09,5683.333333333333
-0.105,0.1,5686.111111111111
-0.15,0.16,5688.888888888889
-0.26,0.215,5691.666666666667
-0.365,0.255,5694.444444444444
-0.43,0.275,5697.222222222223
-0.42,0.265,5700.0
-0.375,0.235,5702.777777777777
-0.305,0.2,5705.555555555556
-0.23,0.175,5708.333333333333
-0.19,0.155,5711.111111111111
-0.175,0.15,5713.888888888889
-0.18,0.145,5716.666666666667
-0.2,0.16,5719.444444444444
-0.235,0.18,5722.222222222223
-0.28,0.195,5725.0
-0.275,0.2,5727.777777777777
-0.28,0.19,5730.555555555556
-0.26,0.175,5733.333333333333
-0.24,0.17,5736.111111111111
-0.235,0.16,5738.888888888889
-0.24,0.15,5741.666666666667
-0.25,0.155,5744.444444444444
-0.265,0.125,5747.222222222223
-0.28,0.105,5750.0
-0.28,0.08,5752.777777777777
-0.265,0.09,5755.555555555556
-0.245,0.095,5758.333333333333
-0.24,0.12,5761.111111111111
-0.26,0.14,5763.888888888889
-0.27,0.165,5766.666666666667
-0.275,0.16,5769.444444444444
-0.265,0.135,5772.222222222223
-0.225,0.11,5775.0
-0.195,0.115,5777.777777777777
-0.175,0.095,5780.555555555556
-0.195,0.115,5783.333333333333
-0.225,0.12,5786.111111111111
-0.265,0.16,5788.888888888889
-0.285,0.17,5791.666666666667
-0.285,0.17,5794.444444444444
-0.275,0.17,5797.222222222223
-0.235,0.18,5800.0
-0.22,0.175,5802.777777777777
-0.21,0.155,5805.555555555556
-0.215,0.16,5808.333333333333
-0.21,0.14,5811.111111111111
-0.195,0.125,5813.888888888889
-0.19,0.11,5816.666666666667
-0.185,0.09,5819.444444444444
-0.17,0.09,5822.222222222223
-0.175,0.08,5825.0
-0.195,0.1,5827.777777777777
-0.21,0.125,5830.555555555556
-0.22,0.14,5833.333333333333
-0.26,0.165,5836.111111111111
-0.285,0.175,5838.888888888889
-0.285,0.18,5841.666666666667
-0.27,0.165,5844.444444444444
-0.245,0.15,5847.222222222223
-0.225,0.15,5850.0
-0.225,0.16,5852.777777777777
-0.23,0.165,5855.555555555556
-0.23,0.195,5858.333333333333
-0.215,0.2,5861.111111111111
-0.22,0.195,5863.888888888889
-0.215,0.205,5866.666666666667
-0.23,0.2,5869.444444444444
-0.245,0.21,5872.222222222223
-0.255,0.195,5875.0
-0.255,0.195,5877.777777777777
-0.255,0.19,5880.555555555556
-0.24,0.175,5883.333333333333
-0.23,0.155,5886.111111111111
-0.235,0.165,5888.888888888889
-0.23,0.17,5891.666666666667
-0.22,0.19,5894.444444444444
-0.23,0.19,5897.222222222223
-0.245,0.215,5900.0
-0.26,0.21,5902.777777777777
-0.27,0.215,5905.555555555556
-0.255,0.205,5908.333333333333
-0.255,0.195,5911.111111111111
-0.235,0.175,5913.888888888889
-0.22,0.17,5916.666666666667
-0.21,0.165,5919.444444444444
-0.21,0.17,5922.222222222223
-0.2,0.18,5925.0
-0.22,0.18,5927.777777777777
-0.22,0.185,5930.555555555556
-0.225,0.2,5933.333333333333
-0.225,0.22,5936.111111111111
-0.25,0.23,5938.888888888889
-0.25,0.225,5941.666666666667
-0.265,0.2,5944.444444444444
-0.265,0.195,5947.222222222223
-0.255,0.18,5950.0
-0.225,0.16,5952.777777777777
-0.205,0.16,5955.555555555556
-0.195,0.18,5958.333333333333
-0.19,0.2,5961.111111111111
-0.19,0.23,5963.888888888889
-0.19,0.255,5966.666666666667
-0.18,0.275,5969.444444444444
-0.165,0.28,5972.222222222223
-0.12,0.29,5975.0
-0.08,0.24,5977.777777777777
-0.02,0.18,5980.555555555556
0.05,0.085,5983.333333333333
0.16,-0.035,5986.111111111111
0.25,-0.165,5988.888888888889
0.355,-0.26,5991.666666666667
0.38,-0.35,5994.444444444444
0.335,-0.39,5997.222222222223
0.195,-0.385,6000.0
-0.04,-0.33,6002.777777777777
-0.29,-0.24,6005.555555555556
-0.485,-0.085,6008.333333333333
-0.59,0.08,6011.111111111111
-0.615,0.265,6013.888888888889
-0.59,0.41,6016.666666666667
-0.54,0.51,6019.444444444444
-0.5,0.56,6022.222222222223
-0.465,0.57,6025.0
-0.435,0.545,6027.777777777777
-0.415,0.535,6030.555555555556
-0.4,0.525,6033.333333333333
-0.39,0.53,6036.111111111111
-0.395,0.535,6038.888888888889
-0.415,0.59,6041.666666666667
-0.44,0.625,6044.444444444444
-0.48,0.655,6047.222222222223
-0.5,0.675,6050.0
-0.505,0.7,6052.777777777777
-0.515,0.71,6055.555555555556
-0.515,0.73,6058.333333333333
-0.51,0.73,6061.111111111111
-0.49,0.73,6063.888888888889
-0.465,0.71,6066.666666666667
-0.415,0.675,6069.444444444444
-0.39,0.615,6072.222222222223
-0.37,0.555,6075.0
-0.35,0.495,6077.777777777777
-0.34,0.425,6080.555555555556
-0.315,0.365,6083.333333333333
-0.315,0.29,6086.111111111111
-0.31,0.235,6088.888888888889
-0.285,0.195,6091.666666666667
-0.28,0.165,6094.444444444444
-0.26,0.145,6097.222222222223
-0.265,0.135,6100.0
-0.265,0.13,6102.777777777777
-0.26,0.13,6105.555555555556
-0.25,0.13,6108.333333333333
-0.24,0.115,6111.111111111111
-0.235,0.115,6113.888888888889
-0.24,0.09,6116.666666666667
-0.225,0.08,6119.444444444444
-0.21,0.07,6122.222222222223
-0.185,0.065,6125.0
-0.16,0.07,6127.777777777777
-0.155,0.07,6130.555555555556
-0.16,0.085,6133.333333333333
-0.165,0.1,6136.111111111111
-0.185,0.125,6138.888888888889
-0.235,0.125,6141.666666666667
-0.285,0.145,6144.444444444444
-0.335,0.13,6147.222222222223
-0.33,0.13,6150.0
-0.31,0.095,6152.777777777777
-0.285,0.09,6155.555555555556
-0.24,0.085,6158.333333333333
-0.21,0.08,6161.111111111111
-0.185,0.08,6163.888888888889
-0.17,0.085,6166.666666666667
-0.175,0.09,6169.444444444444
-0.175,0.085,6172.222222222223
-0.18,0.085,6175.0
-0.185,0.07,6177.777777777777
-0.205,0.085,6180.555555555556
-0.22,0.085,6183.333333333333
-0.235,0.075,6186.111111111111
-0.25,0.085,6188.888888888889
-0.23,0.075,6191.666666666667
-0.225,0.09,6194.444444444444
-0.2,0.08,6197.222222222223
-0.185,0.07,6200.0
-0.175,0.065,6202.777777777777
-0.15,0.045,6205.555555555556
-0.115,0.02,6208.333333333333
-0.09,-0.005,6211.111111111111
-0.055,-0.02,6213.888888888889
-0.065,-0.015,6216.666666666667
-0.125,0.015,6219.444444444444
-0.185,0.03,6222.222222222223
-0.23,0.035,6225.0
-0.25,0.05,6227.777777777777
-0.235,0.05,6230.555555555556
-0.2,0.025,6233.333333333333
-0.145,-0.005,6236.111111111111
-0.105,-0.025,6238.888888888889
-0.065,-0.04,6241.666666666667
-0.045,-0.065,6244.444444444444
-0.055,-0.08,6247.222222222223
-0.06,-0.1,6250.0
-0.03,-0.135,6252.777777777777
-0.01,-0.14,6255.555555555556
0.02,-0.14,6258.333333333333
0.025,-0.135,6261.111111111111
0.035,-0.11,6263.888888888889
0.02,-0.105,6266.666666666667
-0.02,-0.085,6269.444444444444
-0.05,-0.075,6272.222222222223
-0.075,-0.07,6275.0
-0.08,-0.085,6277.777777777777
-0.07,-0.105,6280.555555555556
-0.04,-0.13,6283.333333333333
-0.02,-0.15,6286.111111111111
0.015,-0.165,6288.888888888889
0.05,-0.165,6291.666666666667
0.075,-0.15,6294.444444444444
0.075,-0.13,6297.222222222223
0.04,-0.11,6300.0
0.025,-0.08,6302.777777777777
0.01,-0.08,6305.555555555556
-0.01,-0.07,6308.333333333333
-0.015,-0.045,6311.111111111111
-0.035,-0.03,6313.888888888889
-0.065,-0.025,6316.666666666667
-0.105,-0.005,6319.444444444444
-0.135,0.03,6322.222222222223
-0.13,0.025,6325.0
-0.13,0.045,6327.777777777777
-0.125,0.055,6330.555555555556
-0.105,0.075,6333.333333333333
-0.095,0.095,6336.111111111111
-0.1,0.095,6338.888888888889
-0.12,0.11,6341.666666666667
-0.12,0.105,6344.444444444444
-0.125,0.11,6347.222222222223
-0.115,0.085,6350.0
-0.1,0.075,6352.777777777777
-0.09,0.075,6355.555555555556
-0.095,0.11,6358.333333333333
-0.135,0.145,6361.111111111111
-0.205,0.2,6363.888888888889
-0.28,0.215,6366.666666666667
-0.325,0.225,6369.444444444444
-0.33,0.21,6372.222222222223
-0.31,0.21,6375.0
-0.28,0.175,6377.777777777777
-0.25,0.16,6380.555555555556
-0.225,0.15,6383.333333333333
-0.215,0.14,6386.111111111111
-0.215,0.145,6388.888888888889
-0.2,0.15,6391.666666666667
-0.215,0.145,6394.444444444444
-0.19,0.14,6397.222222222223
-0.16,0.12,6400.0
-0.11,0.13,6402.777777777777
-0.095,0.135,6405.555555555556
-0.145,0.175,6408.333333333333
-0.215,0.205,6411.111111111111
-0.325,0.24,6413.888888888889
-0.395,0.225,6416.666666666667
-0.405,0.205,6419.444444444444
-0.375,0.185,6422.222222222223
-0.31,0.18,6425.0
-0.255,0.175,6427.777777777777
-0.21,0.165,6430.555555555556
-0.19,0.165,6433.333333333333
-0.18,0.165,6436.111111111111
-0.165,0.16,6438.888888888889
-0.19,0.16,6441.666666666667
-0.205,0.155,6444.444444444444
-0.21,0.145,6447.222222222223
-0.25,0.165,6450.0
-0.26,0.16,6452.777777777777
-0.28,0.16,6455.555555555556
-0.275,0.155,6458.333333333333
-0.265,0.17,6461.111111111111
-0.255,0.16,6463.888888888889
-0.225,0.155,6466.666666666667
-0.195,0.16,6469.444444444444
-0.19,0.17,6472.222222222223
-0.2,0.155,6475.0
-0.22,0.17,6477.777777777777
-0.215,0.155,6480.555555555556
-0.22,0.15,6483.333333333333
-0.235,0.15,6486.111111111111
-0.23,0.15,6488.888888888889
-0.21,0.155,6491.666666666667
-0.2,0.16,6494.444444444444
-0.205,0.175,6497.222222222223
-0.215,0.175,6500.0
-0.215,0.185,6502.777777777777
-0.22,0.19,6505.555555555556
-0.22,0.175,6508.333333333333
-0.21,0.165,6511.111111111111
-0.215,0.145,6513.888888888889
-0.22,0.145,6516.666666666667
-0.24,0.155,6519.444444444444
-0.25,0.16,6522.222222222223
-0.25,0.165,6525.0
-0.25,0.17,6527.777777777777
-0.245,0.18,6530.555555555556
-0.235,0.18,6533.333333333333
-0.225,0.17,6536.111111111111
-0.21,0.165,6538.888888888889
-0.195,0.16,6541.666666666667
-0.195,0.145,6544.444444444444
-0.195,0.15,6547.222222222223
-0.21,0.155,6550.0
-0.23,0.16,6552.777777777777
-0.245,0.14,6555.555555555556
-0.255,0.15,6558.333333333333
-0.255,0.165,6561.111111111111
-0.265,0.17,6563.888888888889
-0.25,0.185,6566.666666666667
-0.245,0.185,6569.444444444444
-0.25,0.175,6572.222222222223
-0.24,0.165,6575.0
-0.23,0.15,6577.777777777777
-0.215,0.145,6580.555555555556
-0.215,0.13,6583.333333333333
-0.225,0.135,6586.111111111111
-0.235,0.14,6588.888888888889
-0.24,0.145,6591.666666666667
-0.25,0.16,6594.444444444444
-0.23,0.175,6597.222222222223
-0.245,0.18,6600.0
-0.235,0.17,6602.777777777777
-0.25,0.165,6605.555555555556
-0.26,0.16,6608.333333333333
-0.265,0.155,6611.111111111111
-0.245,0.145,6613.888888888889
-0.235,0.135,6616.666666666667
-0.24,0.135,6619.444444444444
-0.25,0.145,6622.222222222223
-0.245,0.145,6625.0
-0.265,0.16,6627.777777777777
-0.275,0.165,6630.555555555556
-0.255,0.175,6633.333333333333
-0.235,0.16,6636.111111111111
-0.22,0.165,6638.888888888889
-0.225,0.16,6641.666666666667
-0.23,0.16,6644.444444444444
-0.245,0.165,6647.222222222223
-0.25,0.145,6650.0
-0.25,0.145,6652.777777777777
-0.265,0.15,6655.555555555556
-0.285,0.15,6658.333333333333
-0.3,0.17,6661.111111111111
-0.29,0.165,6663.888888888889
-0.28,0.17,6666.666666666667
-0.245,0.17,6669.444444444444
-0.24,0.17,6672.222222222223
-0.245,0.16,6675.0
-0.24,0.145,6677.777777777777
-0.245,0.145,6680.555555555556
-0.24,0.13,6683.333333333333
-0.25,0.135,6686.111111111111
-0.26,0.145,6688.888888888889
-0.26,0.145,6691.666666666667
-0.26,0.155,6694.444444444444
-0.245,0.16,6697.222222222223
-0.245,0.165,6700.0
-0.25,0.16,6702.777777777777
-0.24,0.155,6705.555555555556
-0.265,0.155,6708.333333333333
-0.26,0.15,6711.111111111111
-0.255,0.13,6713.888888888889
-0.25,0.12,6716.666666666667
-0.235,0.115,6719.444444444444
-0.225,0.13,6722.222222222223
-0.235,0.13,6725.0
-0.25,0.145,6727.777777777777
-0.27,0.16,6730.555555555556
-0.275,0.16,6733.333333333333
-0.265,0.155,6736.111111111111
-0.23,0.15,6738.888888888889
-0.215,0.135,6741.666666666667
-0.205,0.14,6744.444444444444
-0.22,0.14,6747.222222222223
-0.235,0.14,6750.0
-0.27,0.14,6752.777777777777
-0.27,0.135,6755.555555555556
-0.26,0.13,6758.333333333333
-0.255,0.135,6761.111111111111
-0.24,0.14,6763.888888888889
-0.245,0.17,6766.666666666667
-0.25,0.185,6769.444444444444
-0.26,0.165,6772.222222222223
-0.25,0.155,6775.0
-0.255,0.165,6777.777777777777
-0.25,0.165,6780.555555555556
-0.235,0.155,6783.333333333333
-0.23,0.14,6786.111111111111
-0.245,0.145,6788.888888888889
-0.24,0.16,6791.666666666667
-0.255,0.17,6794.444444444444
-0.25,0.18,6797.222222222223
-0.245,0.19,6800.0
-0.24,0.18,6802.777777777777
-0.225,0.165,6805.555555555556
-0.225,0.145,6808.333333333333
-0.2,0.145,6811.111111111111
-0.21,0.145,6813.888888888889
-0.205,0.13,6816.666666666667
-0.245,0.145,6819.444444444444
-0.27,0.16,6822.222222222223
-0.295,0.165,6825.0
-0.3,0.18,6827.777777777777
-0.29,0.155,6830.555555555556
-0.255,0.175,6833.333333333333
-0.235,0.17,6836.111111111111
-0.22,0.17,6838.888888888889
-0.225,0.165,6841.666666666667
-0.22,0.16,6844.444444444444
-0.24,0.15,6847.222222222223
-0.24,0.15,6850.0
-0.225,0.14,6852.777777777777
-0.235,0.145,6855.555555555556
-0.24,0.145,6858.333333333333
-0.255,0.16,6861.111111111111
-0.24,0.16,6863.888888888889
-0.255,0.165,6866.666666666667
-0.25,0.17,6869.444444444444
-0.245,0.165,6872.222222222223
-0.255,0.175,6875.0
-0.285,0.18,6877.777777777777
-0.3,0.17,6880.555555555556
-0.3,0.165,6883.333333333333
-0.285,0.16,6886.111111111111
-0.275,0.165,6888.888888888889
-0.255,0.145,6891.666666666667
-0.24,0.155,6894.444444444444
-0.23,0.155,6897.222222222223
-0.23,0.155,6900.0
-0.24,0.17,6902.777777777777
-0.25,0.17,6905.555555555556
-0.26,0.18,6908.333333333333
-0.25,0.175,6911.111111111111
-0.25,0.16,6913.888888888889
-0.245,0.14,6916.666666666667
-0.25,0.125,6919.444444444444
-0.25,0.13,6922.222222222223
-0.24,0.13,6925.0
-0.24,0.145,6927.777777777777
-0.235,0.15,6930.555555555556
-0.245,0.17,6933.333333333333
-0.25,0.18,6936.111111111111
-0.25,0.175,6938.888888888889
-0.255,0.17,6941.666666666667
-0.25,0.15,6944.444444444444
-0.23,0.15,6947.222222222223
-0.215,0.12,6950.0
-0.21,0.135,6952.777777777777
-0.23,0.145,6955.555555555556
-0.26,0.165,6958.333333333333
-0.275,0.165,6961.111111111111
-0.295,0.165,6963.888888888889
-0.285,0.185,6966.666666666667
-0.265,0.17,6969.444444444444
-0.255,0.165,6972.222222222223
-0.24,0.16,6975.0
-0.23,0.15,6977.777777777777
-0.24,0.16,6980.555555555556
-0.25,0.145,6983.333333333333
-0.27,0.155,6986.111111111111
-0.285,0.16,6988.888888888889
-0.285,0.145,6991.666666666667
-0.28,0.155,6994.444444444444
-0.26,0.15,6997.222222222223
-0.24,0.16,7000.0
-0.2,0.16,7002.777777777777
-0.19,0.14,7005.555555555556
-0.2,0.155,7008.333333333333
-0.22,0.155,7011.111111111111
-0.245,0.15,7013.888888888889
-0.27,0.13,7016.666666666667
-0.27,0.14,7019.444444444444
-0.265,0.15,7022.222222222223
-0.255,0.15,7025.0
-0.255,0.17,7027.777777777777
-0.285,0.18,7030.555555555556
-0.28,0.19,7033.333333333333
-0.27,0.17,7036.111111111111
-0.25,0.17,7038.888888888889
-0.225,0.15,7041.666666666667
-0.21,0.13,7044.444444444444
-0.19,0.125,7047.222222222223
-0.19,0.125,7050.0
-0.215,0.14,7052.777777777777
-0.26,0.145,7055.555555555556
-0.28,0.14,7058.333333333333
-0.29,0.15,7061.111111111111
-0.295,0.155,7063.888888888889
-0.295,0.175,7066.666666666667
-0.27,0.16,7069.444444444444
-0.255,0.165,7072.222222222223
-0.265,0.175,7075.0
-0.265,0.17,7077.777777777777
-0.27,0.16,7080.555555555556
-0.295,0.15,7083.333333333333
-0.29,0.14,7086.111111111111
-0.285,0.14,7088.888888888889
-0.275,0.125,7091.666666666667
-0.255,0.125,7094.444444444444
-0.215,0.13,7097.222222222223
-0.19,0.12,7100.0
-0.16,0.12,7102.777777777777
-0.155,0.125,7105.555555555556
-0.175,0.125,7108.333333333333
-0.185,0.13,7111.111111111111
-0.22,0.135,7113.888888888889
-0.25,0.155,7116.666666666667
-0.285,0.165,7119.444444444444
-0.305,0.17,7122.222222222223
-0.31,0.175,7125.0
-0.32,0.175,7127.777777777777
-0.305,0.17,7130.555555555556
-0.275,0.17,7133.333333333333
-0.26,0.165,7136.111111111111
-0.24,0.15,7138.888888888889
-0.24,0.145,7141.666666666667
-0.23,0.145,7144.444444444444
-0.245,0.135,7147.222222222223
-0.235,0.12,7150.0
-0.22,0.11,7152.777777777777
-0.205,0.09,7155.555555555556
-0.18,0.105,7158.333333333333
-0.18,0.11,7161.111111111111
-0.165,0.145,7163.888888888889
-0.205,0.16,7166.666666666667
-0.235,0.18,7169.444444444444
-0.26,0.18,7172.222222222223
-0.28,0.175,7175.0
-0.285,0.175,7177.777777777777
-0.295,0.15,7180.555555555556
-0.27,0.14,7183.333333333333
-0.27,0.13,7186.111111111111
-0.255,0.115,7188.888888888889
-0.24,0.105,7191.666666666667
-0.235,0.125,7194.444444444444
-0.205,0.14,7197.222222222223
-0.205,0.145,7200.0
-0.205,0.16,7202.777777777777
-0.22,0.155,7205.555555555556
-0.225,0.155,7208.333333333333
-0.24,0.15,7211.111111111111
-0.25,0.14,7213.888888888889
-0.24,0.125,7216.666666666667
-0.245,0.11,7219.444444444444
-0.23,0.13,7222.222222222223
-0.225,0.125,7225.0
-0.22,0.14,7227.777777777777
-0.23,0.145,7230.555555555556
-0.245,0.16,7233.333333333333
-0.255,0.155,7236.111111111111
-0.26,0.15,7238.888888888889
-0.245,0.16,7241.666666666667
-0.235,0.14,7244.444444444444
-0.225,0.13,7247.222222222223
-0.225,0.125,7250.0
-0.225,0.13,7252.777777777777
-0.21,0.13,7255.555555555556
-0.225,0.13,7258.333333333333
-0.235,0.135,7261.111111111111
-0.235,0.155,7263.888888888889
-0.235,0.15,7266.666666666667
-0.24,0.17,7269.444444444444
-0.25,0.165,7272.222222222223
-0.24,0.15,7275.0
-0.24,0.135,7277.777777777777
-0.22,0.13,7280.555555555556
-0.22,0.115,7283.333333333333
-0.26,0.125,7286.111111111111
-0.275,0.13,7288.888888888889
-0.295,0.14,7291.666666666667
-0.305,0.155,7294.444444444444
-0.31,0.16,7297.222222222223
-0.275,0.16,7300.0
-0.245,0.145,7302.777777777777
-0.23,0.135,7305.555555555556
-0.2,0.125,7308.333333333333
-0.185,0.115,7311.111111111111
-0.19,0.12,7313.888888888889
-0.185,0.125,7316.666666666667
-0.185,0.115,7319.444444444444
-0.21,0.12,7322.222222222223
-0.2,0.115,7325.0
-0.19,0.12,7327.777777777777
-0.195,0.135,7330.555555555556
-0.2,0.15,7333.333333333333
-0.215,0.175,7336.111111111111
-0.26,0.18,7338.888888888889
-0.285,0.195,7341.666666666667
-0.29,0.19,7344.444444444444
-0.29,0.165,7347.222222222223
-0.27,0.14,7350.0
-0.255,0.14,7352.777777777777
-0.24,0.13,7355.555555555556
-0.235,0.14,7358.333333333333
-0.235,0.155,7361.111111111111
-0.245,0.16,7363.888888888889
-0.24,0.15,7366.666666666667
-0.225,0.155,7369.444444444444
-0.21,0.15,7372.222222222223
-0.22,0.15,7375.0
-0.215,0.14,7377.777777777777
-0.215,0.125,7380.555555555556
-0.22,0.14,7383.333333333333
-0.22,0.14,7386.111111111111
-0.23,0.135,7388.888888888889
-0.235,0.135,7391.666666666667
-0.23,0.13,7394.444444444444
-0.215,0.14,7397.222222222223
-0.22,0.145,7400.0
-0.2,0.155,7402.777777777777
-0.215,0.155,7405.555555555556
-0.22,0.155,7408.333333333333
-0.225,0.155,7411.111111111111
-0.245,0.135,7413.888888888889
-0.235,0.115,7416.666666666667
-0.215,0.105,7419.444444444444
-0.19,0.1,7422.222222222223
-0.185,0.1,7425.0
-0.19,0.13,7427.777777777777
-0.22,0.155,7430.555555555556
-0.235,0.165,7433.333333333333
-0.255,0.17,7436.111111111111
-0.245,0.16,7438.888888888889
-0.235,0.155,7441.666666666667
-0.255,0.145,7444.444444444444
-0.255,0.14,7447.222222222223
-0.255,0.13,7450.0
-0.25,0.12,7452.777777777777
-0.23,0.125,7455.555555555556
-0.22,0.115,7458.333333333333
-0.215,0.14,7461.111111111111
-0.205,0.145,7463.888888888889
-0.22,0.165,7466.666666666667
-0.24,0.175,7469.444444444444
-0.25,0.175,7472.222222222223
-0.265,0.165,7475.0
-0.26,0.16,7477.777777777777
-0.225,0.13,7480.555555555556
-0.215,0.12,7483.333333333333
-0.21,0.105,7486.111111111111
-0.2,0.11,7488.888888888889
-0.21,0.13,7491.666666666667
-0.23,0.13,7494.444444444444
-0.24,0.16,7497.222222222223
-0.25,0.165,7500.0
-0.255,0.17,7502.777777777777
-0.235,0.16,7505.555555555556
-0.225,0.14,7508.333333333333
-0.205,0.12,7511.111111111111
-0.205,0.13,7513.888888888889
-0.225,0.125,7516.666666666667
-0.22,0.12,7519.444444444444
-0.225,0.125,7522.222222222223
-0.215,0.12,7525.0
-0.225,0.13,7527.777777777777
-0.22,0.125,7530.555555555556
-0.225,0.15,7533.333333333333
-0.23,0.155,7536.111111111111
-0.225,0.17,7538.888888888889
-0.245,0.16,7541.666666666667
-0.265,0.16,7544.444444444444
-0.27,0.13,7547.222222222223
-0.25,0.12,7550.0
-0.235,0.135,7552.777777777777
-0.23,0.13,7555.555555555556
-0.225,0.125,7558.333333333333
-0.225,0.14,7561.111111111111
-0.235,0.15,7563.888888888889
-0.235,0.16,7566.666666666667
-0.245,0.16,7569.444444444444
-0.245,0.155,7572.222222222223
-0.25,0.145,7575.0
-0.225,0.145,7577.777777777777
-0.215,0.12,7580.555555555556
-0.2,0.11,7583.333333333333
-0.2,0.115,7586.111111111111
-0.19,0.13,7588.888888888889
-0.22,0.12,7591.666666666667
-0.245,0.145,7594.444444444444
-0.255,0.14,7597.222222222223
-0.25,0.14,7600.0
-0.23,0.145,7602.777777777777
-0.2,0.125,7605.555555555556
-0.175,0.115,7608.333333333333
-0.16,0.11,7611.111111111111
-0.17,0.12,7613.888888888889
-0.205,0.12,7616.666666666667
-0.24,0.14,7619.444444444444
-0.265,0.145,7622.222222222223
-0.27,0.165,7625.0
-0.265,0.155,7627.777777777777
-0.24,0.155,7630.555555555556
-0.22,0.18,7633.333333333333
-0.2,0.17,7636.111111111111
-0.18,0.155,7638.888888888889
-0.16,0.16,7641.666666666667
-0.145,0.15,7644.444444444444
-0.155,0.14,7647.222222222223
-0.12,0.12,7650.0
-0.105,0.11,7652.777777777777
-0.12,0.12,7655.555555555556
-0.145,0.15,7658.333333333333
-0.185,0.155,7661.111111111111
-0.205,0.17,7663.888888888889
-0.2,0.17,7666.666666666667
-0.2,0.16,7669.444444444444
-0.18,0.15,7672.222222222223
-0.165,0.135,7675.0
-0.175,0.13,7677.777777777777
-0.17,0.115,7680.555555555556
-0.175,0.13,7683.333333333333
-0.17,0.105,7686.111111111111
-0.18,0.085,7688.888888888889
-0.195,0.1,7691.666666666667
-0.195,0.095,7694.444444444444
-0.19,0.11,7697.222222222223
-0.18,0.095,7700.0
-0.18,0.11,7702.777777777777
-0.18,0.1,7705.555555555556
-0.175,0.105,7708.333333333333
-0.19,0.095,7711.111111111111
-0.2,0.085,7713.888888888889
-0.2,0.095,7716.666666666667
-0.205,0.105,7719.444444444444
-0.21,0.105,7722.222222222223
-0.21,0.105,7725.0
-0.19,0.135,7727.777777777777
-0.2,0.14,7730.555555555556
-0.21,0.155,7733.333333333333
-0.205,0.16,7736.111111111111
-0.22,0.155,7738.888888888889
-0.24,0.155,7741.666666666667
-0.245,0.145,7744.444444444444
-0.26,0.14,7747.222222222223
-0.265,0.12,7750.0
-0.28,0.13,7752.777777777777
-0.29,0.13,7755.555555555556
-0.27,0.13,7758.333333333333
-0.25,0.145,7761.111111111111
-0.24,0.155,7763.888888888889
-0.23,0.16,7766.666666666667
-0.23,0.165,7769.444444444444
-0.235,0.165,7772.222222222223
-0.245,0.16,7775.0
-0.26,0.175,7777.777777777777
-0.26,0.165,7780.555555555556
-0.26,0.15,7783.333333333333
-0.245,0.135,7786.111111111111
-0.245,0.125,7788.888888888889
-0.215,0.135,7791.666666666667
-0.21,0.14,7794.444444444444
-0.21,0.155,7797.222222222223
-0.215,0.165,7800.0
-0.23,0.17,7802.777777777777
-0.235,0.16,7805.555555555556
-0.23,0.16,7808.333333333333
-0.22,0.145,7811.111111111111
-0.21,0.135,7813.888888888889
-0.2,0.125,7816.666666666667
-0.22,0.135,7819.444444444444
-0.235,0.15,7822.222222222223
-0.255,0.16,7825.0
-0.25,0.195,7827.777777777777
-0.24,0.21,7830.555555555556
-0.22,0.235,7833.333333333333
-0.195,0.255,7836.111111111111
-0.17,0.25,7838.888888888889
-0.16,0.24,7841.666666666667
-0.115,0.195,7844.444444444444
-0.075,0.085,7847.222222222223
-0.015,-0.015,7850.0
0.075,-0.135,7852.777777777777
0.165,-0.265,7855.555555555556
0.26,-0.385,7858.333333333333
0.29,-0.465,7861.111111111111
0.24,-0.505,7863.888888888889
0.09,-0.475,7866.666666666667
-0.115,-0.39,7869.444444444444
-0.31,-0.24,7872.222222222223
-0.455,-0.04,7875.0
-0.525,0.155,7877.777777777777
-0.545,0.31,7880.555555555556
-0.535,0.425,7883.333333333333
-0.52,0.49,7886.111111111111
-0.485,0.505,7888.888888888889
-0.46,0.505,7891.666666666667
-0.44,0.505,7894.444444444444
-0.43,0.515,7897.222222222223
-0.445,0.55,7900.0
-0.46,0.565,7902.777777777777
-0.475,0.6,7905.555555555556
-0.47,0.615,7908.333333333333
-0.455,0.64,7911.111111111111
-0.435,0.65,7913.888888888889
-0.43,0.685,7916.666666666667
-0.43,0.71,7919.444444444444
-0.45,0.715,7922.222222222223
-0.44,0.73,7925.0
-0.44,0.735,7927.777777777777
-0.435,0.73,7930.555555555556
-0.425,0.71,7933.333333333333
-0.41,0.685,7936.111111111111
-0.415,0.635,7938.888888888889
-0.425,0.575,7941.666666666667
-0.415,0.51,7944.444444444444
-0.395,0.43,7947.222222222223
-0.38,0.35,7950.0
-0.36,0.305,7952.777777777777
-0.33,0.25,7955.555555555556
-0.305,0.195,7958.333333333333
-0.28,0.155,7961.111111111111
-0.245,0.14,7963.888888888889
-0.22,0.13,7966.666666666667
-0.2,0.125,7969.444444444444
-0.205,0.13,7972.222222222223
-0.225,0.14,7975.0
-0.24,0.135,7977.777777777777
-0.255,0.115,7980.555555555556
-0.245,0.09,7983.333333333333
-0.24,0.08,7986.111111111111
-0.225,0.075,7988.888888888889
-0.215,0.09,7991.666666666667
-0.225,0.095,7994.444444444444
-0.24,0.12,7997.222222222223
-0.245,0.13,8000.0
-0.26,0.14,8002.777777777777
-0.28,0.125,8005.555555555556
-0.275,0.12,8008.333333333333
-0.275,0.12,8011.111111111111
-0.26,0.09,8013.888888888889
-0.25,0.085,8016.666666666667
-0.235,0.08,8019.444444444444
-0.225,0.07,8022.222222222223
-0.205,0.08,8025.0
-0.2,0.08,8027.777777777777
-0.195,0.095,8030.555555555556
-0.195,0.105,8033.333333333333
-0.195,0.095,8036.111111111111
-0.195,0.095,8038.888888888889
-0.205,0.1,8041.666666666667
-0.22,0.09,8044.444444444444
-0.225,0.075,8047.222222222223
-0.215,0.055,8050.0
-0.205,0.035,8052.777777777777
-0.18,0.02,8055.555555555556
-0.165,0.03,8058.333333333333
-0.175,0.05,8061.111111111111
-0.2,0.085,8063.888888888889
-0.235,0.12,8066.666666666667
-0.265,0.11,8069.444444444444
-0.25,0.08,8072.222222222223
-0.23,0.06,8075.0
-0.2,0.03,8077.777777777777
-0.175,0.03,8080.555555555556
-0.155,0.01,8083.333333333333
-0.15,-0.01,8086.111111111111
-0.155,-0.025,8088.888888888889
-0.135,-0.02,8091.666666666667
-0.12,-0.02,8094.444444444444
-0.1,-0.02,8097.222222222223
-0.1,-0.015,8100.0
-0.105,0.0,8102.777777777777
-0.125,0.0,8105.555555555556
-0.15,-0.02,8108.333333333333
-0.135,-0.025,8111.111111111111
-0.12,-0.055,8113.888888888889
-0.085,-0.07,8116.666666666667
-0.07,-0.1,8119.444444444444
-0.055,-0.105,8122.222222222223
-0.04,-0.11,8125.0
-0.05,-0.1,8127.777777777777
-0.04,-0.095,8130.555555555556
-0.045,-0.09,8133.333333333333
-0.035,-0.09,8136.111111111111
-0.025,-0.09,8138.888888888889
-0.025,-0.105,8141.666666666667
-0.03,-0.125,8144.444444444444
-0.035,-0.14,8147.222222222223
-0.045,-0.14,8150.0
-0.045,-0.125,8152.777777777777
-0.065,-0.12,8155.555555555556
-0.06,-0.1,8158.333333333333
-0.06,-0.1,8161.111111111111
-0.065,-0.105,8163.888888888889
-0.04,-0.095,8166.666666666667
-0.01,-0.095,8169.444444444444
0.015,-0.105,8172.222222222223
0.03,-0.1,8175.0
0.04,-0.09,8177.777777777777
0.01,-0.06,8180.555555555556
-0.015,-0.05,8183.333333333333
-0.05,-0.03,8186.111111111111
-0.08,-0.015,8188.888888888889
-0.085,-0.015,8191.666666666667
-0.09,-0.005,8194.444444444445
-0.07,0.0,8197.222222222223
-0.055,0.015,8200.0
-0.05,0.04,8202.777777777777
-0.05,0.06,8205.555555555555
-0.08,0.075,8208.333333333334
-0.08,0.08,8211.111111111111
-0.08,0.06,8213.888888888889
-0.055,0.065,8216.666666666666
-0.06,0.09,8219.444444444445
-0.08,0.09,8222.222222222223
-0.11,0.115,8225.0
-0.14,0.12,8227.777777777777
-0.145,0.15,8230.555555555555
-0.135,0.145,8233.333333333334
-0.125,0.155,8236.111111111111
-0.12,0.16,8238.888888888889
-0.135,0.16,8241.666666666666
-0.14,0.165,8244.444444444445
-0.185,0.165,8247.222222222223
-0.215,0.16,8250.0
-0.235,0.145,8252.777777777777
-0.245,0.14,8255.555555555555
-0.245,0.14,8258.333333333334
-0.235,0.13,8261.111111111111
-0.24,0.13,8263.888888888889
-0.25,0.13,8266.666666666666
-0.26,0.125,8269.444444444445
-0.245,0.12,8272.222222222223
-0.23,0.11,8275.0
-0.2,0.11,8277.777777777777
-0.2,0.115,8280.555555555555
-0.23,0.125,8283.333333333334
-0.265,0.12,8286.111111111111
-0.285,0.135,8288.888888888889
-0.29,0.125,8291.666666666666
-0.275,0.13,8294.444444444445
-0.255,0.13,8297.222222222223
-0.22,0.125,8300.0
-0.19,0.14,8302.777777777777
-0.17,0.13,8305.555555555555
-0.16,0.14,8308.333333333334
-0.145,0.145,8311.111111111111
-0.15,0.135,8313.888888888889
-0.16,0.135,8316.666666666666
-0.165,0.125,8319.444444444445
-0.175,0.115,8322.222222222223
-0.155,0.12,8325.0
-0.155,0.12,8327.777777777777
-0.145,0.125,8330.555555555555
-0.15,0.135,8333.333333333334
-0.145,0.135,8336.111111111111
-0.15,0.135,8338.888888888889
-0.15,0.135,8341.666666666666
-0.155,0.125,8344.444444444445
-0.17,0.115,8347.222222222223
-0.17,0.11,8350.0
-0.19,0.11,8352.777777777777
-0.21,0.125,8355.555555555555
-0.22,0.135,8358.333333333334
-0.23,0.135,8361.111111111111
-0.2,0.14,8363.888888888889
-0.185,0.16,8366.666666666666
-0.16,0.17,8369.444444444445
-0.16,0.18,8372.222222222223
-0.175,0.19,8375.0
-0.195,0.2,8377.777777777777
-0.195,0.205,8380.555555555555
-0.185,0.19,8383.333333333334
-0.19,0.185,8386.111111111111
-0.175,0.185,8388.888888888889
-0.175,0.185,8391.666666666666
-0.18,0.185,8394.444444444445
-0.185,0.185,8397.222222222223
-0.185,0.195,8400.0
-0.175,0.2,8402.777777777777
-0.18,0.2,8405.555555555555
-0.17,0.17,8408.333333333334
-0.15,0.16,8411.111111111111
-0.145,0.15,8413.888888888889
-0.145,0.155,8416.666666666666
-0.155,0.155,8419.444444444445
-0.185,0.175,8422.222222222223
-0.21,0.19,8425.0
-0.2,0.195,8427.777777777777
-0.19,0.2,8430.555555555555
-0.175,0.195,8433.333333333334
-0.155,0.195,8436.111111111111
-0.14,0.18,8438.888888888889
-0.14,0.17,8441.666666666666
-0.14,0.17,8444.444444444445
-0.16,0.17,8447.222222222223
-0.19,0.17,8450.0
-0.225,0.185,8452.777777777777
-0.245,0.205,8455.555555555555
-0.25,0.205,8458.333333333334
-0.235,0.195,8461.111111111111
-0.22,0.2,8463.888888888889
-0.205,0.2,8466.666666666666
-0.18,0.2,8469.444444444445
-0.145,0.19,8472.222222222223
-0.155,0.19,8475.0
-0.15,0.18,8477.777777777777
-0.165,0.18,8480.555555555555
-0.175,0.185,8483.333333333334
-0.19,0.215,8486.111111111111
-0.19,0.245,8488.888888888889
-0.215,0.27,8491.666666666666
-0.195,0.295,8494.444444444445
-0.17,0.3,8497.222222222223
-0.145,0.275,8500.0
-0.105,0.22,8502.777777777777
-0.04,0.1,8505.555555555555
0.015,-0.03,8508.333333333334
0.095,-0.18,8511.111111111111
0.185,-0.31,8513.888888888889
0.245,-0.415,8516.666666666666
0.28,-0.5,8519.444444444445
0.225,-0.515,8522.222222222223
0.115,-0.51,8525.0
-0.055,-0.445,8527.777777777777
-0.22,-0.335,8530.555555555555
-0.36,-0.175,8533.333333333334
-0.44,0.015,8536.111111111111
-0.465,0.22,8538.888888888889
-0.495,0.395,8541.666666666666
-0.48,0.525,8544.444444444445
-0.46,0.58,8547.222222222223
-0.42,0.59,8550.0
-0.385,0.58,8552.777777777777
-0.365,0.545,8555.555555555555
-0.36,0.56,8558.333333333334
-0.375,0.565,8561.111111111111
-0.405,0.6,8563.888888888889
-0.44,0.64,8566.666666666666
-0.45,0.68,8569.444444444445
-0.425,0.715,8572.222222222223
-0.4,0.745,8575.0
-0.365,0.755,8577.777777777777
-0.375,0.78,8580.555555555555
-0.39,0.795,8583.333333333334
-0.42,0.785,8586.111111111111
-0.435,0.775,8588.888888888889
-0.425,0.76,8591.666666666666
-0.42,0.72,8594.444444444445
-0.41,0.675,8597.222222222223
-0.37,0.6,8600.0
-0.325,0.54,8602.777777777777
-0.305,0.47,8605.555555555555
-0.29,0.395,8608.333333333334
-0.28,0.34,8611.111111111111
-0.28,0.28,8613.888888888889
-0.295,0.235,8616.666666666666
-0.305,0.19,8619.444444444445
-0.31,0.15,8622.222222222223
-0.285,0.14,8625.0
-0.25,0.13,8627.777777777777
-0.21,0.12,8630.555555555555
-0.19,0.11,8633.333333333334
-0.16,0.11,8636.111111111111
-0.16,0.105,8638.888888888889
-0.165,0.115,8641.666666666666
-0.185,0.12,8644.444444444445
-0.215,0.11,8647.222222222223
-0.225,0.105,8650.0
-0.25,0.09,8652.777777777777
-0.25,0.095,8655.555555555555
-0.24,0.09,8658.333333333334
-0.235,0.095,8661.111111111111
-0.22,0.1,8663.888888888889
-0.215,0.12,8666.666666666666
-0.2,0.105,8669.444444444445
-0.2,0.105,8672.222222222223
-0.195,0.1,8675.0
-0.185,0.095,8677.777777777777
-0.18,0.075,8680.555555555555
-0.18,0.06,8683.333333333334
-0.175,0.045,8686.111111111111
-0.19,0.04,8688.888888888889
-0.17,0.04,8691.666666666666
-0.16,0.06,8694.444444444445
-0.17,0.08,8697.222222222223
-0.19,0.095,8700.0
-0.21,0.11,8702.777777777777
-0.215,0.095,8705.555555555555
-0.235,0.09,8708.333333333334
-0.22,0.06,8711.111111111111
-0.2,0.045,8713.888888888889
-0.185,0.03,8716.666666666666
-0.175,0.025,8719.444444444445
-0.175,0.025,8722.222222222223
-0.185,0.035,8725.0
-0.19,0.035,8727.777777777777
-0.19,0.045,8730.555555555555
-0.185,0.05,8733.333333333334
-0.185,0.045,8736.111111111111
-0.16,0.01,8738.888888888889
-0.145,0.005,8741.666666666666
-0.13,-0.005,8744.444444444445
-0.135,-0.01,8747.222222222223
-0.135,-0.025,8750.0
-0.13,-0.03,8752.777777777777
-0.13,-0.05,8755.555555555555
-0.125,-0.06,8758.333333333334
-0.115,-0.07,8761.111111111111
-0.1,-0.08,8763.888888888889
-0.08,-0.075,8766.666666666666
-0.08,-0.085,8769.444444444445
-0.07,-0.1,8772.222222222223
-0.07,-0.105,8775.0
-0.055,-0.11,8777.777777777777
-0.065,-0.13,8780.555555555555
-0.06,-0.13,8783.333333333334
-0.06,-0.135,8786.111111111111
-0.06,-0.155,8788.888888888889
-0.055,-0.165,8791.666666666666
-0.03,-0.165,8794.444444444445
-0.015,-0.165,8797.222222222223
0.015,-0.17,8800.0
0.02,-0.16,8802.777777777777
0.03,-0.16,8805.555555555555
0.01,-0.155,8808.333333333334
-0.025,-0.145,8811.111111111111
-0.04,-0.14,8813.888888888889
-0.055,-0.15,8816.666666666666
-0.06,-0.125,8819.444444444445
-0.065,-0.12,8822.222222222223
-0.055,-0.1,8825.0
-0.06,-0.095,8827.777777777777
-0.035,-0.075,8830.555555555555
-0.035,-0.045,8833.333333333334
-0.03,-0.025,8836.111111111111
-0.04,-0.02,8838.888888888889
-0.04,0.0,8841.666666666666
-0.055,0.005,8844.444444444445
-0.095,0.02,8847.222222222223
-0.115,0.03,8850.0
-0.13,0.035,8852.777777777777
-0.14,0.05,8855.555555555555
-0.14,0.065,8858.333333333334
-0.13,0.095,8861.111111111111
-0.135,0.12,8863.888888888889
-0.145,0.14,8866.666666666666
-0.135,0.145,8869.444444444445
-0.14,0.155,8872.222222222223
-0.17,0.155,8875.0
-0.165,0.155,8877.777777777777
-0.175,0.16,8880.555555555555
-0.19,0.16,8883.333333333334
-0.2,0.165,8886.111111111111
-0.21,0.17,8888.888888888889
-0.22,0.17,8891.666666666666
-0.23,0.17,8894.444444444445
-0.23,0.17,8897.222222222223
-0.21,0.175,8900.0
-0.19,0.185,8902.777777777777
-0.2,0.185,8905.555555555555
-0.225,0.205,8908.333333333334
-0.25,0.21,8911.111111111111
-0.27,0.225,8913.888888888889
-0.285,0.205,8916.666666666666
-0.265,0.185,8919.444444444445
-0.25,0.16,8922.222222222223
-0.215,0.15,8925.0
-0.195,0.145,8927.777777777777
-0.18,0.15,8930.555555555555
-0.145,0.165,8933.333333333334
-0.145,0.165,8936.111111111111
-0.14,0.15,8938.888888888889
-0.14,0.17,8941.666666666666
-0.16,0.17,8944.444444444445
-0.21,0.175,8947.222222222223
-0.24,0.19,8950.0
-0.285,0.19,8952.777777777777
-0.29,0.19,8955.555555555555
-0.275,0.18,8958.333333333334
-0.255,0.185,8961.111111111111
-0.235,0.185,8963.888888888889
-0.2,0.185,8966.666666666666
-0.185,0.175,8969.444444444445
-0.155,0.17,8972.222222222223
-0.15,0.16,8975.0
-0.14,0.15,8977.777777777777
-0.145,0.135,8980.555555555555
-0.18,0.15,8983.333333333334
-0.225,0.17,8986.111111111111
-0.245,0.18,8988.888888888889
-0.275,0.185,8991.666666666666
-0.26,0.18,8994.444444444445
-0.24,0.16,8997.222222222223
-0.225,0.165,9000.0
-0.205,0.18,9002.777777777777
-0.19,0.18,9005.555555555555
-0.185,0.165,9008.333333333334
-0.205,0.16,9011.111111111111
-0.18,0.15,9013.888888888889
-0.18,0.145,9016.666666666666
-0.19,0.145,9019.444444444445
-0.195,0.145,9022.222222222223
-0.205,0.155,9025.0
-0.205,0.155,9027.777777777777
-0.21,0.16,9030.555555555555
-0.2,0.17,9033.333333333334
-0.185,0.18,9036.111111111111
-0.185,0.18,9038.888888888889
-0.215,0.18,9041.666666666666
-0.22,0.165,9044.444444444445
-0.225,0.17,9047.222222222223
-0.225,0.15,9050.0
-0.23,0.15,9052.777777777777
-0.245,0.155,9055.555555555555
-0.24,0.16,9058.333333333334
-0.235,0.165,9061.111111111111
-0.22,0.17,9063.888888888889
-0.2,0.175,9066.666666666666
-0.195,0.185,9069.444444444445
-0.215,0.19,9072.222222222223
-0.235,0.195,9075.0
-0.24,0.19,9077.777777777777
-0.25,0.17,9080.555555555555
-0.245,0.14,9083.333333333334
-0.23,0.145,9086.111111111111
-0.235,0.155,9088.888888888889
-0.225,0.155,9091.666666666666
-0.245,0.16,9094.444444444445
-0.23,0.18,9097.222222222223
-0.23,0.175,9100.0
-0.23,0.18,9102.777777777777
-0.23,0.175,9105.555555555555
-0.235,0.175,9108.333333333334
-0.235,0.175,9111.111111111111
-0.245,0.17,9113.888888888889
-0.25,0.155,9116.666666666666
-0.26,0.16,9119.444444444445
-0.255,0.155,9122.222222222223
-0.26,0.165,9125.0
-0.24,0.16,9127.777777777777
-0.225,0.16,9130.555555555555
-0.205,0.17,9133.333333333334
-0.205,0.17,9136.111111111111
-0.21,0.17,9138.888888888889
-0.23,0.175,9141.666666666666
-0.235,0.18,9144.444444444445
-0.26,0.175,9147.222222222223
-0.275,0.165,9150.0
-0.28,0.16,9152.777777777777
-0.28,0.16,9155.555555555555
-0.265,0.155,9158.333333333334
-0.235,0.16,9161.111111111111
-0.225,0.175,9163.888888888889
-0.205,0.17,9166.666666666666
-0.21,0.17,9169.444444444445
-0.2,0.155,9172.222222222223
-0.21,0.155,9175.0
-0.21,0.16,9177.777777777777
-0.225,0.155,9180.555555555555
-0.25,0.15,9183.333333333334
-0.26,0.15,9186.111111111111
-0.27,0.15,9188.888888888889
-0.26,0.145,9191.666666666666
-0.255,0.16,9194.444444444445
-0.24,0.165,9197.222222222223
-0.245,0.18,9200.0
-0.25,0.18,9202.777777777777
-0.25,0.175,9205.555555555555
-0.255,0.17,9208.333333333334
-0.23,0.165,9211.111111111111
-0.23,0.16,9213.888888888889
-0.225,0.15,9216.666666666666
-0.24,0.15,9219.444444444445
-0.245,0.145,9222.222222222223
-0.245,0.135,9225.0
-0.235,0.155,9227.777777777777
-0.22,0.16,9230.555555555555
-0.225,0.185,9233.333333333334
-0.245,0.18,9236.111111111111
-0.255,0.185,9238.888888888889
-0.255,0.18,9241.666666666666
-0.26,0.17,9244.444444444445
-0.255,0.155,9247.222222222223
-0.255,0.14,9250.0
-0.265,0.135,9252.777777777777
-0.265,0.145,9255.555555555555
-0.255,0.135,9258.333333333334
-0.245,0.14,9261.111111111111
-0.22,0.14,9263.888888888889
-0.205,0.155,9266.666666666666
-0.205,0.145,9269.444444444445
-0.225,0.16,9272.222222222223
-0.25,0.17,9275.0
-0.265,0.175,9277.777777777777
-0.275,0.17,9280.555555555555
-0.28,0.15,9283.333333333334
-0.27,0.13,9286.111111111111
-0.265,0.13,9288.888888888889
-0.255,0.15,9291.666666666666
-0.25,0.15,9294.444444444445
-0.26,0.155,9297.222222222223
-0.27,0.15,9300.0
-0.255,0.16,9302.777777777777
-0.23,0.155,9305.555555555555
-0.22,0.145,9308.333333333334
-0.225,0.14,9311.111111111111
-0.225,0.135,9313.888888888889
-0.235,0.125,9316.666666666666
-0.255,0.115,9319.444444444445
-0.265,0.125,9322.222222222223
-0.255,0.14,9325.0
-0.245,0.145,9327.777777777777
-0.23,0.15,9330.555555555555
-0.23,0.145,9333.333333333334
-0.225,0.155,9336.111111111111
-0.24,0.145,9338.888888888889
-0.25,0.155,9341.666666666666
-0.265,0.17,9344.444444444445
-0.285,0.165,9347.222222222223
-0.285,0.155,9350.0
-0.295,0.15,9352.777777777777
-0.285,0.135,9355.555555555555
-0.275,0.13,9358.333333333334
-0.255,0.155,9361.111111111111
-0.24,0.15,9363.888888888889
-0.24,0.16,9366.666666666666
-0.24,0.165,9369.444444444445
-0.25,0.165,9372.222222222223
-0.26,0.15,9375.0
-0.265,0.145,9377.777777777777
-0.275,0.14,9380.555555555555
-0.26,0.13,9383.333333333334
-0.26,0.115,9386.111111111111
-0.235,0.12,9388.888888888889
-0.235,0.12,9391.666666666666
-0.25,0.14,9394.444444444445
-0.265,0.15,9397.222222222223
-0.275,0.17,9400.0
-0.285,0.17,9402.777777777777
-0.28,0.17,9405.555555555555
-0.275,0.165,9408.333333333334
-0.26,0.155,9411.111111111111
-0.255,0.12,9413.888888888889
-0.24,0.12,9416.666666666666
-0.225,0.1,9419.444444444445
-0.215,0.1,9422.222222222223
-0.225,0.125,9425.0
-0.24,0.145,9427.777777777777
-0.24,0.175,9430.555555555555
-0.26,0.185,9433.333333333334
-0.29,0.19,9436.111111111111
-0.305,0.19,9438.888888888889
-0.3,0.165,9441.666666666666
-0.295,0.155,9444.444444444445
-0.265,0.135,9447.222222222223
-0.25,0.13,9450.0
-0.255,0.125,9452.777777777777
-0.27,0.14,9455.555555555555
-0.27,0.145,9458.333333333334
-0.26,0.155,9461.111111111111
-0.26,0.15,9463.888888888889
-0.245,0.155,9466.666666666666
-0.21,0.155,9469.444444444445
-0.205,0.15,9472.222222222223
-0.22,0.16,9475.0
-0.25,0.17,9477.777777777777
-0.28,0.145,9480.555555555555
-0.285,0.15,9483.333333333334
-0.285,0.135,9486.111111111111
-0.25,0.1,9488.888888888889
-0.22,0.11,9491.666666666666
-0.215,0.115,9494.444444444445
-0.215,0.155,9497.222222222223
-0.26,0.175,9500.0
-0.295,0.18,9502.777777777777
-0.32,0.175,9505.555555555555
-0.32,0.18,9508.333333333334
-0.3,0.17,9511.111111111111
-0.265,0.16,9513.888888888889
-0.245,0.13,9516.666666666666
-0.23,0.125,9519.444444444445
-0.225,0.13,9522.222222222223
-0.225,0.13,9525.0
-0.245,0.15,9527.777777777777
-0.26,0.155,9530.555555555555
-0.275,0.16,9533.333333333334
-0.26,0.175,9536.111111111111
-0.245,0.155,9538.888888888889
-0.245,0.15,9541.666666666666
-0.225,0.135,9544.444444444445
-0.23,0.13,9547.222222222223
-0.245,0.125,9550.0
-0.245,0.12,9552.777777777777
-0.27,0.135,9555.555555555555
-0.285,0.16,9558.333333333334
-0.285,0.16,9561.111111111111
-0.285,0.155,9563.888888888889
-0.255,0.16,9566.666666666666
-0.235,0.155,9569.444444444445
-0.23,0.135,9572.222222222223
-0.22,0.135,9575.0
-0.215,0.135,9577.777777777777
-0.23,0.12,9580.555555555555
-0.235,0.12,9583.333333333334
-0.235,0.13,9586.111111111111
-0.245,0.14,9588.888888888889
-0.265,0.145,9591.666666666666
-0.28,0.16,9594.444444444445
-0.275,0.165,9597.222222222223
-0.27,0.175,9600.0
-0.27,0.165,9602.777777777777
-0.26,0.175,9605.555555555555
-0.27,0.155,9608.333333333334
-0.265,0.15,9611.111111111111
-0.255,0.135,9613.888888888889
-0.25,0.115,9616.666666666666
-0.25,0.125,9619.444444444445
-0.25,0.13,9622.222222222223
-0.25,0.135,9625.0
-0.27,0.15,9627.777777777777
-0.265,0.16,9630.555555555555
-0.26,0.17,9633.333333333334
-0.25,0.18,9636.111111111111
-0.235,0.16,9638.888888888889
-0.23,0.145,9641.666666666666
-0.22,0.15,9644.444444444445
-0.23,0.135,9647.222222222223
-0.245,0.135,9650.0
-0.28,0.135,9652.777777777777
-0.29,0.125,9655.555555555555
-0.285,0.12,9658.333333333334
-0.285,0.15,9661.111111111111
-0.285,0.16,9663.888888888889
-0.31,0.17,9666.666666666666
-0.285,0.175,9669.444444444445
-0.27,0.15,9672.222222222223
-0.26,0.145,9675.0
-0.25,0.14,9677.777777777777
-0.245,0.135,9680.555555555555
-0.265,0.135,9683.333333333334
-0.255,0.135,9686.111111111111
-0.27,0.13,9688.888888888889
-0.28,0.13,9691.666666666666
-0.285,0.14,9694.444444444445
-0.295,0.155,9697.222222222223
-0.29,0.16,9700.0
-0.285,0.16,9702.777777777777
-0.26,0.155,9705.555555555555
-0.27,0.14,9708.333333333334
-0.265,0.13,9711.111111111111
-0.265,0.13,9713.888888888889
-0.29,0.13,9716.666666666666
-0.275,0.12,9719.444444444445
-0.29,0.145,9722.222222222223
-0.295,0.15,9725.0
-0.28,0.145,9727.777777777777
-0.28,0.155,9730.555555555555
-0.27,0.15,9733.333333333334
-0.265,0.14,9736.111111111111
-0.245,0.145,9738.888888888889
-0.23,0.125,9741.666666666666
-0.225,0.14,9744.444444444445
-0.235,0.135,9747.222222222223
-0.27,0.14,9750.0
-0.3,0.135,9752.777777777777
-0.32,0.125,9755.555555555555
-0.315,0.13,9758.333333333334
-0.295,0.14,9761.111111111111
-0.285,0.13,9763.888888888889
-0.275,0.155,9766.666666666666
-0.27,0.16,9769.444444444445
-0.255,0.155,9772.222222222223
-0.25,0.165,9775.0
-0.24,0.15,9777.777777777777
-0.26,0.145,9780.555555555555
-0.275,0.135,9783.333333333334
-0.275,0.13,9786.111111111111
-0.295,0.135,9788.888888888889
-0.295,0.14,9791.666666666666
-0.29,0.14,9794.444444444445
-0.29,0.145,9797.222222222223
-0.27,0.145,9800.0
-0.255,0.14,9802.777777777777
-0.25,0.135,9805.555555555555
-0.24,0.14,9808.333333333334
-0.245,0.14,9811.111111111111
-0.25,0.14,9813.888888888889
-0.255,0.14,9816.666666666666
-0.275,0.14,9819.444444444445
-0.28,0.145,9822.222222222223
-0.295,0.155,9825.0
-0.29,0.15,9827.777777777777
-0.295,0.16,9830.555555555555
-0.29,0.165,9833.333333333334
-0.285,0.17,9836.111111111111
-0.28,0.16,9838.888888888889
-0.265,0.16,9841.666666666666
-0.265,0.15,9844.444444444445
-0.265,0.14,9847.222222222223
-0.27,0.13,9850.0
-0.28,0.14,9852.777777777777
-0.295,0.14,9855.555555555555
-0.295,0.145,9858.333333333334
-0.3,0.15,9861.111111111111
-0.295,0.15,9863.888888888889
-0.285,0.16,9866.666666666666
-0.27,0.155,9869.444444444445
-0.255,0.135,9872.222222222223
-0.235,0.12,9875.0
-0.22,0.115,9877.777777777777
-0.205,0.095,9880.555555555555
-0.215,0.105,9883.333333333334
-0.23,0.11,9886.111111111111
-0.265,0.13,9888.888888888889
-0.3,0.145,9891.666666666666
-0.31,0.15,9894.444444444445
-0.315,0.155,9897.222222222223
-0.305,0.15,9900.0
-0.28,0.155,9902.777777777777
-0.265,0.155,9905.555555555555
-0.275,0.15,9908.333333333334
-0.27,0.15,9911.111111111111
-0.3,0.14,9913.888888888889
-0.315,0.14,9916.666666666666
-0.325,0.14,9919.444444444445
-0.315,0.135,9922.222222222223
-0.28,0.125,9925.0
-0.26,0.125,9927.777777777777
-0.23,0.125,9930.555555555555
-0.215,0.14,9933.333333333334
-0.205,0.145,9936.111111111111
-0.23,0.15,9938.888888888889
-0.255,0.16,9941.666666666666
-0.275,0.155,9944.444444444445
-0.295,0.15,9947.222222222223
-0.29,0.135,9950.0
-0.26,0.12,9952.777777777777
-0.245,0.13,9955.555555555555
-0.22,0.14,9958.333333333334
-0.205,0.16,9961.111111111111
-0.225,0.18,9963.888888888889
-0.23,0.195,9966.666666666666
-0.24,0.195,9969.444444444445
-0.22,0.185,9972.222222222223
-0.2,0.17,9975.0
-0.16,0.155,9977.777777777777
-0.155,0.145,9980.555555555555
-0.15,0.145,9983.333333333334
-0.17,0.13,9986.111111111111
-0.2,0.16,9988.888888888889
-0.23,0.16,9991.666666666666
-0.27,0.18,9994.444444444445
-0.27,0.195,9997.222222222223
-0.27,0.185,10000.0
-0.25,0.17,10002.777777777777
-0.22,0.14,10005.555555555555
-0.2,0.135,10008.333333333334
-0.195,0.115,10011.111111111111
-0.19,0.105,10013.888888888889
-0.18,0.1,10016.666666666666
-0.185,0.115,10019.444444444445
-0.195,0.105,10022.222222222223
-0.225,0.11,10025.0
-0.24,0.125,10027.777777777777
-0.24,0.13,10030.555555555555
-0.23,0.12,10033.333333333334
-0.225,0.125,10036.111111111111
-0.22,0.115,10038.888888888889
-0.235,0.12,10041.666666666666
-0.245,0.115,10044.444444444445
-0.25,0.11,10047.222222222223
-0.25,0.11,10050.0
-0.245,0.125,10052.777777777777
-0.255,0.14,10055.555555555555
-0.265,0.14,10058.333333333334
-0.28,0.155,10061.111111111111
-0.3,0.17,10063.888888888889
-0.295,0.175,10066.666666666666
-0.29,0.175,10069.444444444445
-0.28,0.165,10072.222222222223
-0.29,0.165,10075.0
-0.27,0.165,10077.777777777777
-0.28,0.145,10080.555555555555
-0.275,0.14,10083.333333333334
-0.3,0.15,10086.111111111111
-0.325,0.16,10088.888888888889
-0.325,0.16,10091.666666666666
-0.33,0.17,10094.444444444445
-0.31,0.18,10097.222222222223
-0.285,0.165,10100.0
-0.26,0.16,10102.777777777777
-0.24,0.17,10105.555555555555
-0.245,0.17,10108.333333333334
-0.25,0.165,10111.111111111111
-0.285,0.165,10113.888888888889
-0.29,0.18,10116.666666666666
-0.305,0.17,10119.444444444445
-0.31,0.155,10122.222222222223
-0.305,0.15,10125.0
-0.28,0.15,10127.777777777777
-0.255,0.145,10130.555555555555
-0.25,0.155,10133.333333333334
-0.235,0.155,10136.111111111111
-0.235,0.175,10138.888888888889
-0.26,0.18,10141.666666666666
-0.27,0.195,10144.444444444445
-0.295,0.175,10147.222222222223
-0.3,0.175,10150.0
-0.3,0.16,10152.777777777777
-0.27,0.17,10155.555555555555
-0.27,0.18,10158.333333333334
-0.255,0.21,10161.111111111111
-0.24,0.24,10163.888888888889
-0.23,0.265,10166.666666666666
-0.195,0.275,10169.444444444445
-0.16,0.24,10172.222222222223
-0.125,0.175,10175.0
-0.05,0.075,10177.777777777777
0.01,-0.06,10180.555555555555
0.08,-0.19,10183.333333333334
0.125,-0.295,10186.111111111111
0.15,-0.395,10188.888888888889
0.135,-0.45,10191.666666666666
0.07,-0.48,10194.444444444445
-0.025,-0.495,10197.222222222223
-0.16,-0.46,10200.0
-0.305,-0.375,10202.777777777777
-0.445,-0.22,10205.555555555555
-0.525,-0.03,10208.333333333334
-0.56,0.18,10211.111111111111
-0.565,0.355,10213.888888888889
-0.565,0.49,10216.666666666666
-0.555,0.56,10219.444444444445
-0.57,0.585,10222.222222222223
-0.555,0.595,10225.0
-0.54,0.575,10227.777777777777
-0.51,0.58,10230.555555555555
-0.51,0.58,10233.333333333334
-0.49,0.595,10236.111111111111
-0.495,0.615,10238.888888888889
-0.52,0.65,10241.666666666666
-0.515,0.67,10244.444444444445
-0.49,0.69,10247.222222222223
-0.455,0.705,10250.0
-0.42,0.695,10252.777777777777
-0.425,0.73,10255.555555555555
-0.415,0.75,10258.333333333334
-0.42,0.76,10261.111111111111
-0.435,0.785,10263.888888888889
-0.47,0.785,10266.666666666666
-0.465,0.77,10269.444444444445
-0.465,0.705,10272.222222222223
-0.445,0.64,10275.0
-0.42,0.56,10277.777777777777
-0.395,0.48,10280.555555555555
-0.39,0.4,10283.333333333334
-0.365,0.315,10286.111111111111
-0.34,0.265,10288.888888888889
-0.31,0.22,10291.666666666666
-0.29,0.195,10294.444444444445
-0.275,0.15,10297.222222222223
-0.275,0.145,10300.0
-0.27,0.145,10302.777777777777
-0.26,0.135,10305.555555555555
-0.245,0.145,10308.333333333334
-0.235,0.13,10311.111111111111
-0.215,0.11,10313.888888888889
-0.215,0.1,10316.666666666666
-0.22,0.09,10319.444444444445
-0.225,0.095,10322.222222222223
-0.23,0.095,10325.0
-0.25,0.105,10327.777777777777
-0.27,0.115,10330.555555555555
-0.285,0.13,10333.333333333334
-0.29,0.135,10336.111111111111
-0.275,0.105,10338.888888888889
-0.27,0.11,10341.666666666666
-0.265,0.1,10344.444444444445
-0.28,0.085,10347.222222222223
-0.285,0.095,10350.0
-0.29,0.095,10352.777777777777
-0.295,0.095,10355.555555555555
-0.275,0.105,10358.333333333334
-0.275,0.115,10361.111111111111
-0.26,0.105,10363.888888888889
-0.245,0.12,10366.666666666666
-0.23,0.125,10369.444444444445
-0.23,0.115,10372.222222222223
-0.21,0.105,10375.0
-0.195,0.09,10377.777777777777
-0.2,0.085,10380.555555555555
-0.205,0.09,10383.333333333334
-0.215,0.08,10386.111111111111
-0.225,0.09,10388.888888888889
-0.235,0.105,10391.666666666666
-0.255,0.115,10394.444444444445
-0.275,0.125,10397.222222222223
-0.265,0.115,10400.0
-0.245,0.12,10402.777777777777
-0.225,0.1,10405.555555555555
-0.21,0.085,10408.333333333334
-0.19,0.085,10411.111111111111
-0.195,0.065,10413.888888888889
-0.195,0.04,10416.666666666666
-0.185,0.015,10419.444444444445
-0.175,0.0,10422.222222222223
-0.145,0.0,10425.0
-0.115,0.005,10427.777777777777
-0.11,0.03,10430.555555555555
-0.14,0.06,10433.333333333334
-0.16,0.075,10436.111111111111
-0.195,0.065,10438.888888888889
-0.205,0.03,10441.666666666666
-0.18,0.0,10444.444444444445
-0.16,-0.015,10447.222222222223
-0.13,-0.04,10450.0
-0.12,-0.035,10452.777777777777
-0.145,-0.04,10455.555555555555
-0.17,-0.035,10458.333333333334
-0.18,-0.04,10461.111111111111
-0.16,-0.045,10463.888888888889
-0.135,-0.04,10466.666666666666
-0.115,-0.05,10469.444444444445
-0.095,-0.05,10472.222222222223
-0.075,-0.07,10475.0
-0.07,-0.08,10477.777777777777
-0.04,-0.105,10480.555555555555
-0.03,-0.13,10483.333333333334
-0.025,-0.145,10486.111111111111
-0.035,-0.14,10488.888888888889
-0.04,-0.13,10491.666666666666
-0.06,-0.11,10494.444444444445
-0.08,-0.09,10497.222222222223
-0.09,-0.085,10500.0
-0.055,-0.065,10502.777777777777
-0.04,-0.105,10505.555555555555
-0.02,-0.13,10508.333333333334
0.005,-0.12,10511.111111111111
0.01,-0.11,10513.888888888889
-0.005,-0.09,10516.666666666666
-0.065,-0.05,10519.444444444445
-0.12,-0.01,10522.222222222223
-0.16,0.0,10525.0
-0.16,-0.01,10527.777777777777
-0.135,0.0,10530.555555555555
-0.1,-0.005,10533.333333333334
-0.075,0.005,10536.111111111111
-0.055,0.01,10538.888888888889
-0.06,0.02,10541.666666666666
-0.07,0.035,10544.444444444445
-0.11,0.06,10547.222222222223
-0.155,0.075,10550.0
-0.18,0.08,10552.777777777777
-0.195,0.07,10555.555555555555
-0.205,0.08,10558.333333333334
-0.205,0.09,10561.111111111111
-0.2,0.1,10563.888888888889
-0.205,0.11,10566.666666666666
-0.215,0.115,10569.444444444445
-0.195,0.115,10572.222222222223
-0.205,0.115,10575.0
-0.205,0.1,10577.777777777777
-0.21,0.095,10580.555555555555
-0.22,0.09,10583.333333333334
-0.245,0.095,10586.111111111111
-0.255,0.09,10588.888888888889
-0.27,0.095,10591.666666666666
-0.275,0.095,10594.444444444445
-0.27,0.11,10597.222222222223
-0.28,0.12,10600.0
-0.275,0.14,10602.777777777777
-0.28,0.12,10605.555555555555
-0.29,0.11,10608.333333333334
-0.315,0.09,10611.111111111111
-0.32,0.065,10613.888888888889
-0.34,0.06,10616.666666666666
-0.33,0.065,10619.444444444445
-0.325,0.06,10622.222222222223
-0.325,0.085,10625.0
-0.325,0.105,10627.777777777777
-0.32,0.1,10630.555555555555
-0.31,0.125,10633.333333333334
-0.3,0.12,10636.111111111111
-0.29,0.125,10638.888888888889
-0.29,0.12,10641.666666666666
-0.295,0.115,10644.444444444445
-0.295,0.1,10647.222222222223
-0.285,0.1,10650.0
-0.28,0.09,10652.777777777777
-0.275,0.095,10655.555555555555
-0.26,0.095,10658.333333333334
-0.245,0.095,10661.111111111111
-0.24,0.115,10663.888888888889
-0.245,0.125,10666.666666666666
-0.245,0.13,10669.444444444445
-0.24,0.105,10672.222222222223
-0.255,0.1,10675.0
-0.235,0.09,10677.777777777777
-0.25,0.085,10680.555555555555
-0.26,0.095,10683.333333333334
-0.27,0.085,10686.111111111111
-0.295,0.08,10688.888888888889
-0.285,0.085,10691.666666666666
-0.27,0.09,10694.444444444445
-0.25,0.095,10697.222222222223
-0.235,0.105,10700.0
-0.235,0.1,10702.777777777777
-0.22,0.105,10705.555555555555
-0.215,0.11,10708.333333333334
-0.215,0.125,10711.111111111111
-0.24,0.14,10713.888888888889
-0.275,0.14,10716.666666666666
-0.285,0.155,10719.444444444445
-0.285,0.155,10722.222222222223
-0.275,0.145,10725.0
-0.265,0.16,10727.777777777777
-0.25,0.145,10730.555555555555
-0.225,0.15,10733.333333333334
-0.215,0.145,10736.111111111111
-0.195,0.155,10738.888888888889
-0.2,0.16,10741.666666666666
-0.22,0.145,10744.444444444445
-0.23,0.165,10747.222222222223
-0.25,0.165,10750.0
-0.27,0.155,10752.777777777777
-0.295,0.155,10755.555555555555
-0.31,0.16,10758.333333333334
-0.305,0.16,10761.111111111111
-0.275,0.17,10763.888888888889
-0.26,0.165,10766.666666666666
-0.23,0.165,10769.444444444445
-0.215,0.17,10772.222222222223
-0.2,0.145,10775.0
-0.2,0.155,10777.777777777777
-0.2,0.155,10780.555555555555
-0.235,0.155,10783.333333333334
-0.275,0.165,10786.111111111111
-0.3,0.16,10788.888888888889
-0.31,0.165,10791.666666666666
-0.295,0.165,10794.444444444445
-0.27,0.16,10797.222222222223
-0.27,0.17,10800.0
-0.265,0.17,10802.777777777777
-0.28,0.19,10805.555555555555
-0.285,0.185,10808.333333333334
-0.29,0.18,10811.111111111111
-0.3,0.165,10813.888888888889
-0.295,0.15,10816.666666666666
-0.285,0.15,10819.444444444445
-0.275,0.145,10822.222222222223
-0.265,0.145,10825.0
-0.235,0.15,10827.777777777777
-0.225,0.175,10830.555555555555
-0.215,0.195,10833.333333333334
-0.22,0.21,10836.111111111111
-0.225,0.22,10838.888888888889
-0.22,0.235,10841.666666666666
-0.225,0.21,10844.444444444445
-0.175,0.14,10847.222222222223
-0.105,0.045,10850.0
-0.015,-0.07,10852.777777777777
0.09,-0.185,10855.555555555555
0.195,-0.275,10858.333333333334
0.255,-0.36,10861.111111111111
0.27,-0.41,10863.888888888889
0.18,-0.4,10866.666666666666
0.015,-0.345,10869.444444444445
-0.18,-0.23,10872.222222222223
-0.385,-0.08,10875.0
-0.515,0.095,10877.777777777777
-0.585,0.265,10880.555555555555
-0.6,0.39,10883.333333333334
-0.565,0.465,10886.111111111111
-0.54,0.485,10888.888888888889
-0.5,0.485,10891.666666666666
-0.44,0.465,10894.444444444445
-0.425,0.445,10897.222222222223
-0.425,0.47,10900.0
-0.465,0.49,10902.777777777777
-0.505,0.53,10905.555555555555
-0.55,0.56,10908.333333333334
-0.54,0.58,10911.111111111111
-0.515,0.59,10913.888888888889
-0.47,0.605,10916.666666666666
-0.425,0.61,10919.444444444445
-0.415,0.63,10922.222222222223
-0.41,0.625,10925.0
-0.435,0.635,10927.777777777777
-0.46,0.63,10930.555555555555
-0.465,0.605,10933.333333333334
-0.47,0.58,10936.111111111111
-0.435,0.535,10938.888888888889
-0.42,0.47,10941.666666666666
-0.415,0.41,10944.444444444445
-0.395,0.335,10947.222222222223
-0.39,0.28,10950.0
-0.395,0.22,10952.777777777777
-0.38,0.185,10955.555555555555
-0.37,0.16,10958.333333333334
-0.365,0.13,10961.111111111111
-0.345,0.125,10963.888888888889
-0.33,0.12,10966.666666666666
-0.28,0.105,10969.444444444445
-0.255,0.095,10972.222222222223
-0.225,0.085,10975.0
-0.205,0.065,10977.777777777777
-0.19,0.04,10980.555555555555
-0.175,0.035,10983.333333333334
-0.2,0.06,10986.111111111111
-0.25,0.085,10988.888888888889
-0.29,0.115,10991.666666666666
-0.345,0.135,10994.444444444445
-0.385,0.145,10997.222222222223
-0.385,0.13,11000.0
-0.36,0.115,11002.777777777777
-0.32,0.1,11005.555555555555
-0.305,0.09,11008.333333333334
-0.28,0.065,11011.111111111111
-0.27,0.06,11013.888888888889
-0.275,0.06,11016.666666666666
-0.26,0.04,11019.444444444445
-0.225,0.03,11022.222222222223
-0.185,0.01,11025.0
-0.155,0.005,11027.777777777777
-0.14,0.045,11030.555555555555
-0.17,0.085,11033.333333333334
-0.24,0.115,11036.111111111111
-0.3,0.13,11038.888888888889
-0.35,0.125,11041.666666666666
-0.36,0.085,11044.444444444445
-0.34,0.065,11047.222222222223
-0.325,0.045,11050.0
-0.285,0.035,11052.777777777777
-0.285,0.04,11055.555555555555
-0.25,0.04,11058.333333333334
-0.25,0.035,11061.111111111111
-0.24,0.035,11063.888888888889
-0.235,0.04,11066.666666666666
-0.215,0.035,11069.444444444445
-0.2,0.015,11072.222222222223
-0.205,0.02,11075.0
-0.195,0.0,11077.777777777777
-0.195,-0.03,11080.555555555555
-0.18,-0.04,11083.333333333334
-0.17,-0.075,11086.111111111111
-0.135,-0.09,11088.888888888889
-0.11,-0.08,11091.666666666666
-0.12,-0.055,11094.444444444445
-0.17,-0.02,11097.222222222223
-0.22,0.015,11100.0
-0.25,0.015,11102.777777777777
-0.26,-0.005,11105.555555555555
-0.235,-0.055,11108.333333333334
-0.19,-0.085,11111.111111111111
-0.155,-0.095,11113.888888888889
-0.13,-0.13,11116.666666666666
-0.12,-0.135,11119.444444444445
-0.115,-0.125,11122.222222222223
-0.12,-0.14,11125.0
-0.11,-0.135,11127.777777777777
-0.085,-0.14,11130.555555555555
-0.065,-0.135,11133.333333333334
-0.05,-0.14,11136.111111111111
-0.03,-0.145,11138.888888888889
-0.025,-0.14,11141.666666666666
-0.04,-0.15,11144.444444444445
-0.015,-0.145,11147.222222222223
-0.025,-0.15,11150.0
-0.05,-0.14,11152.777777777777
-0.08,-0.11,11155.555555555555
-0.105,-0.095,11158.333333333334
-0.13,-0.08,11161.111111111111
-0.145,-0.07,11163.888888888889
-0.14,-0.05,11166.666666666666
-0.125,-0.035,11169.444444444445
-0.11,-0.035,11172.222222222223
-0.1,-0.03,11175.0
-0.085,-0.015,11177.777777777777
-0.09,-0.015,11180.555555555555
-0.115,0.0,11183.333333333334
-0.13,0.005,11186.111111111111
-0.135,0.005,11188.888888888889
-0.125,0.03,11191.666666666666
-0.125,0.05,11194.444444444445
-0.135,0.07,11197.222222222223
-0.18,0.105,11200.0
-0.19,0.135,11202.777777777777
-0.225,0.14,11205.555555555555
-0.245,0.14,11208.333333333334
-0.245,0.14,11211.111111111111
-0.265,0.135,11213.888888888889
-0.27,0.15,11216.666666666666
-0.295,0.145,11219.444444444445
-0.31,0.155,11222.222222222223
-0.31,0.17,11225.0
-0.295,0.16,11227.777777777777
-0.275,0.15,11230.555555555555
-0.25,0.155,11233.333333333334
-0.24,0.155,11236.111111111111
-0.225,0.165,11238.888888888889
-0.235,0.165,11241.666666666666
-0.235,0.16,11244.444444444445
-0.255,0.165,11247.222222222223
-0.29,0.175,11250.0
-0.31,0.16,11252.777777777777
-0.335,0.165,11255.555555555555
-0.36,0.195,11258.333333333334
-0.36,0.205,11261.111111111111
-0.365,0.215,11263.888888888889
-0.355,0.21,11266.666666666666
-0.315,0.2,11269.444444444445
-0.29,0.195,11272.222222222223
-0.285,0.18,11275.0
-0.275,0.17,11277.777777777777
-0.285,0.16,11280.555555555555
-0.28,0.15,11283.333333333334
-0.3,0.145,11286.111111111111
-0.31,0.135,11288.888888888889
-0.3,0.145,11291.666666666666
-0.295,0.14,11294.444444444445
-0.265,0.14,11297.222222222223
-0.26,0.155,11300.0
-0.25,0.165,11302.777777777777
-0.25,0.17,11305.555555555555
-0.25,0.165,11308.333333333334
-0.265,0.165,11311.111111111111
-0.285,0.165,11313.888888888889
-0.295,0.155,11316.666666666666
-0.31,0.145,11319.444444444445
-0.315,0.15,11322.222222222223
-0.31,0.16,11325.0
-0.3,0.155,11327.777777777777
-0.275,0.15,11330.555555555555
-0.26,0.155,11333.333333333334
-0.245,0.165,11336.111111111111
-0.24,0.165,11338.888888888889
-0.25,0.175,11341.666666666666
-0.27,0.17,11344.444444444445
-0.285,0.155,11347.222222222223
-0.305,0.145,11350.0
-0.325,0.13,11352.777777777777
-0.34,0.13,11355.555555555555
-0.32,0.135,11358.333333333334
-0.325,0.145,11361.111111111111
-0.315,0.155,11363.888888888889
-0.305,0.16,11366.666666666666
-0.29,0.165,11369.444444444445
-0.27,0.155,11372.222222222223
-0.27,0.15,11375.0
-0.255,0.145,11377.777777777777
-0.255,0.135,11380.555555555555
-0.265,0.135,11383.333333333334
-0.27,0.12,11386.111111111111
-0.27,0.11,11388.888888888889
-0.265,0.12,11391.666666666666
-0.27,0.13,11394.444444444445
-0.26,0.14,11397.222222222223
-0.27,0.165,11400.0
-0.29,0.18,11402.777777777777
-0.3,0.18,11405.555555555555
-0.32,0.185,11408.333333333334
-0.31,0.165,11411.111111111111
-0.295,0.14,11413.888888888889
-0.275,0.115,11416.666666666666
-0.255,0.115,11419.444444444445
-0.265,0.115,11422.222222222223
-0.27,0.12,11425.0
-0.285,0.15,11427.777777777777
-0.305,0.155,11430.555555555555
-0.315,0.175,11433.333333333334
-0.315,0.18,11436.111111111111
-0.32,0.19,11438.888888888889
-0.32,0.17,11441.666666666666
-0.315,0.17,11444.444444444445
-0.31,0.165,11447.222222222223
-0.31,0.155,11450.0
-0.305,0.14,11452.777777777777
-0.3,0.13,11455.555555555555
-0.285,0.125,11458.333333333334
-0.27,0.12,11461.111111111111
-0.255,0.14,11463.888888888889
-0.26,0.165,11466.666666666666
-0.29,0.185,11469.444444444445
-0.315,0.19,11472.222222222223
