MLII,V1,time_ms
-0.095,0.01,0.0
-0.095,0.01,2.7777777777777777
-0.095,0.01,5.555555555555555
-0.095,0.01,8.333333333333334
-0.095,0.01,11.11111111111111
-0.095,0.01,13.88888888888889
-0.095,0.01,16.666666666666668
-0.095,0.01,19.444444444444443
-0.095,0.01,22.22222222222222
-0.09,0.02,25.0
-0.085,0.04,27.77777777777778
-0.07,0.03,30.555555555555557
-0.06,0.035,33.333333333333336
-0.04,0.02,36.111111111111114
-0.03,0.015,38.888888888888886
-0.015,0.0,41.666666666666664
0.01,0.0,44.44444444444444
0.055,0.005,47.22222222222222
0.095,0.005,50.0
0.15,0.0,52.77777777777778
0.215,0.01,55.55555555555556
0.29,0.01,58.333333333333336
0.365,0.005,61.111111111111114
0.445,-0.01,63.888888888888886
0.545,-0.005,66.66666666666667
0.64,-0.025,69.44444444444444
0.755,-0.035,72.22222222222223
0.85,-0.055,75.0
0.895,-0.1,77.77777777777777
0.875,-0.15,80.55555555555556
0.745,-0.205,83.33333333333333
0.49,-0.28,86.11111111111111
0.13,-0.34,88.88888888888889
-0.325,-0.39,91.66666666666667
-0.765,-0.4,94.44444444444444
-1.15,-0.41,97.22222222222223
-1.45,-0.4,100.0
-1.67,-0.4,102.77777777777777
-1.825,-0.435,105.55555555555556
-1.955,-0.455,108.33333333333333
-2.065,-0.47,111.11111111111111
-2.15,-0.46,113.88888888888889
-2.23,-0.415,116.66666666666667
-2.265,-0.32,119.44444444444444
-2.29,-0.21,122.22222222222223
-2.255,-0.045,125.0
-2.215,0.12,127.77777777777777
-2.14,0.3,130.55555555555554
-2.05,0.455,133.33333333333334
-1.93,0.595,136.11111111111111
-1.82,0.715,138.88888888888889
-1.715,0.805,141.66666666666666
-1.59,0.87,144.44444444444446
-1.505,0.915,147.22222222222223
-1.43,0.955,150.0
-1.36,0.995,152.77777777777777
-1.29,1.025,155.55555555555554
-1.21,1.035,158.33333333333334
-1.11,1.005,161.11111111111111
-0.995,0.955,163.88888888888889
-0.88,0.85,166.66666666666666
-0.78,0.68,169.44444444444446
-0.7,0.46,172.22222222222223
-0.63,0.225,175.0
-0.575,-0.01,177.77777777777777
-0.53,-0.205,180.55555555555554
-0.49,-0.35,183.33333333333334
-0.445,-0.425,186.11111111111111
-0.345,-0.44,188.88888888888889
-0.23,-0.42,191.66666666666666
-0.09,-0.36,194.44444444444446
0.035,-0.31,197.22222222222223
0.185,-0.26,200.0
0.27,-0.205,202.77777777777777
0.33,-0.17,205.55555555555554
0.35,-0.13,208.33333333333334
0.35,-0.115,211.11111111111111
0.325,-0.11,213.88888888888889
0.3,-0.11,216.66666666666666
0.31,-0.13,219.44444444444446
0.315,-0.115,222.22222222222223
0.33,-0.11,225.0
0.35,-0.105,227.77777777777777
0.375,-0.105,230.55555555555554
0.395,-0.09,233.33333333333334
0.39,-0.09,236.11111111111111
0.41,-0.095,238.88888888888889
0.435,-0.095,241.66666666666666
0.445,-0.11,244.44444444444446
0.45,-0.115,247.22222222222223
0.46,-0.13,250.0
0.465,-0.135,252.77777777777777
0.48,-0.14,255.55555555555554
0.48,-0.14,258.3333333333333
0.51,-0.13,261.1111111111111
0.535,-0.11,263.8888888888889
0.56,-0.1,266.6666666666667
0.575,-0.115,269.44444444444446
0.61,-0.105,272.22222222222223
0.63,-0.11,275.0
0.635,-0.13,277.77777777777777
0.64,-0.135,280.55555555555554
0.655,-0.145,283.3333333333333
0.67,-0.155,286.1111111111111
0.685,-0.15,288.8888888888889
0.705,-0.145,291.6666666666667
0.725,-0.14,294.44444444444446
0.75,-0.13,297.22222222222223
0.775,-0.13,300.0
0.805,-0.12,302.77777777777777
0.825,-0.14,305.55555555555554
0.85,-0.15,308.3333333333333
0.86,-0.17,311.1111111111111
0.865,-0.18,313.8888888888889
0.875,-0.17,316.6666666666667
0.895,-0.175,319.44444444444446
0.91,-0.185,322.22222222222223
0.925,-0.17,325.0
0.935,-0.185,327.77777777777777
0.945,-0.18,330.55555555555554
0.95,-0.195,333.3333333333333
0.95,-0.2,336.1111111111111
0.945,-0.21,338.8888888888889
0.94,-0.22,341.6666666666667
0.94,-0.225,344.44444444444446
0.925,-0.24,347.22222222222223
0.905,-0.25,350.0
0.88,-0.265,352.77777777777777
0.85,-0.26,355.55555555555554
0.82,-0.26,358.3333333333333
0.81,-0.26,361.1111111111111
0.78,-0.27,363.8888888888889
0.76,-0.26,366.6666666666667
0.735,-0.255,369.44444444444446
0.7,-0.255,372.22222222222223
0.665,-0.245,375.0
0.625,-0.245,377.77777777777777
0.585,-0.255,380.55555555555554
0.55,-0.265,383.3333333333333
0.505,-0.265,386.1111111111111
0.47,-0.255,388.8888888888889
0.43,-0.23,391.6666666666667
0.4,-0.22,394.44444444444446
0.39,-0.195,397.22222222222223
0.36,-0.17,400.0
0.34,-0.16,402.77777777777777
0.31,-0.14,405.55555555555554
0.28,-0.12,408.3333333333333
0.24,-0.12,411.1111111111111
0.21,-0.1,413.8888888888889
0.18,-0.095,416.6666666666667
0.155,-0.08,419.44444444444446
0.13,-0.07,422.22222222222223
0.105,-0.055,425.0
0.09,-0.035,427.77777777777777
0.085,-0.015,430.55555555555554
0.065,0.005,433.3333333333333
0.06,0.02,436.1111111111111
0.04,0.03,438.8888888888889
0.025,0.015,441.6666666666667
0.015,0.02,444.44444444444446
-0.005,0.01,447.22222222222223
-0.02,0.005,450.0
-0.01,0.01,452.77777777777777
-0.02,0.02,455.55555555555554
-0.02,0.02,458.3333333333333
-0.02,0.035,461.1111111111111
-0.01,0.035,463.8888888888889
0.0,0.045,466.6666666666667
0.01,0.025,469.44444444444446
0.0,0.025,472.22222222222223
-0.005,0.035,475.0
-0.005,0.03,477.77777777777777
-0.01,0.035,480.55555555555554
-0.01,0.025,483.3333333333333
-0.02,0.02,486.1111111111111
-0.01,0.025,488.8888888888889
-0.01,0.03,491.6666666666667
-0.015,0.03,494.44444444444446
-0.005,0.025,497.22222222222223
-0.005,0.03,500.0
0.005,0.05,502.77777777777777
-0.005,0.04,505.55555555555554
-0.01,0.035,508.3333333333333
-0.015,0.02,511.1111111111111
-0.025,0.025,513.8888888888889
-0.04,0.025,516.6666666666666
-0.04,0.01,519.4444444444445
-0.04,0.02,522.2222222222222
-0.05,0.02,525.0
-0.045,0.025,527.7777777777778
-0.05,0.04,530.5555555555555
-0.03,0.05,533.3333333333334
-0.03,0.055,536.1111111111111
-0.025,0.045,538.8888888888889
-0.035,0.045,541.6666666666666
-0.05,0.035,544.4444444444445
-0.055,0.02,547.2222222222222
-0.06,0.005,550.0
-0.07,-0.005,552.7777777777778
-0.07,-0.005,555.5555555555555
-0.065,0.015,558.3333333333334
-0.055,0.025,561.1111111111111
-0.045,0.04,563.8888888888889
-0.04,0.045,566.6666666666666
-0.04,0.05,569.4444444444445
-0.05,0.035,572.2222222222222
-0.055,0.03,575.0
-0.06,0.01,577.7777777777778
-0.065,0.005,580.5555555555555
-0.08,0.0,583.3333333333334
-0.08,-0.005,586.1111111111111
-0.075,0.015,588.8888888888889
-0.095,0.015,591.6666666666666
-0.085,0.015,594.4444444444445
-0.07,0.025,597.2222222222222
-0.065,0.03,600.0
-0.055,0.025,602.7777777777778
-0.06,0.005,605.5555555555555
-0.075,0.005,608.3333333333334
-0.075,0.01,611.1111111111111
-0.095,0.0,613.8888888888889
-0.085,0.015,616.6666666666666
-0.1,0.005,619.4444444444445
-0.1,0.0,622.2222222222222
-0.09,0.005,625.0
-0.09,0.005,627.7777777777778
-0.085,0.01,630.5555555555555
-0.085,0.0,633.3333333333334
-0.07,0.005,636.1111111111111
-0.1,0.015,638.8888888888889
-0.085,0.01,641.6666666666666
-0.075,-0.005,644.4444444444445
-0.085,-0.01,647.2222222222222
-0.085,0.0,650.0
-0.1,-0.02,652.7777777777778
-0.1,-0.015,655.5555555555555
-0.1,-0.01,658.3333333333334
-0.09,-0.02,661.1111111111111
-0.1,-0.01,663.8888888888889
-0.085,0.005,666.6666666666666
-0.08,0.015,669.4444444444445
-0.09,0.01,672.2222222222222
-0.095,0.02,675.0
-0.085,0.005,677.7777777777778
-0.085,-0.015,680.5555555555555
-0.085,-0.015,683.3333333333334
-0.095,-0.02,686.1111111111111
-0.095,-0.015,688.8888888888889
-0.09,-0.005,691.6666666666666
-0.09,0.0,694.4444444444445
-0.09,0.015,697.2222222222222
-0.08,0.0,700.0
-0.075,0.01,702.7777777777778
-0.08,0.01,705.5555555555555
-0.06,0.005,708.3333333333334
-0.04,0.005,711.1111111111111
-0.035,0.025,713.8888888888889
-0.03,0.055,716.6666666666666
-0.01,0.07,719.4444444444445
0.01,0.115,722.2222222222222
0.025,0.145,725.0
0.045,0.185,727.7777777777778
0.065,0.185,730.5555555555555
0.08,0.175,733.3333333333334
0.1,0.19,736.1111111111111
0.12,0.165,738.8888888888889
0.145,0.155,741.6666666666666
0.18,0.125,744.4444444444445
0.2,0.085,747.2222222222222
0.215,0.065,750.0
0.215,0.04,752.7777777777778
0.215,0.01,755.5555555555555
0.18,0.0,758.3333333333334
0.155,-0.015,761.1111111111111
0.145,0.005,763.8888888888889
0.155,0.0,766.6666666666666
0.165,0.01,769.4444444444445
0.17,0.01,772.2222222222222
0.17,-0.015,775.0
0.15,-0.05,777.7777777777778
0.125,-0.08,780.5555555555555
0.095,-0.11,783.3333333333334
0.055,-0.115,786.1111111111111
0.03,-0.115,788.8888888888889
0.0,-0.08,791.6666666666666
-0.025,-0.045,794.4444444444445
-0.035,-0.03,797.2222222222222
-0.045,-0.02,800.0
-0.045,-0.005,802.7777777777778
-0.065,-0.02,805.5555555555555
-0.085,-0.015,808.3333333333334
-0.115,-0.04,811.1111111111111
-0.14,-0.04,813.8888888888889
-0.145,-0.05,816.6666666666666
-0.145,-0.045,819.4444444444445
-0.155,-0.04,822.2222222222222
-0.135,-0.035,825.0
-0.135,-0.04,827.7777777777778
-0.135,-0.045,830.5555555555555
-0.13,-0.045,833.3333333333334
-0.105,-0.045,836.1111111111111
-0.105,-0.055,838.8888888888889
-0.095,-0.045,841.6666666666666
-0.105,-0.04,844.4444444444445
-0.11,-0.02,847.2222222222222
-0.115,0.0,850.0
-0.1,0.02,852.7777777777778
-0.05,0.08,855.5555555555555
0.03,0.105,858.3333333333334
0.17,0.13,861.1111111111111
0.36,0.075,863.8888888888889
0.545,0.005,866.6666666666666
0.755,-0.125,869.4444444444445
0.955,-0.325,872.2222222222222
1.135,-0.56,875.0
1.3,-0.855,877.7777777777778
1.46,-1.215,880.5555555555555
1.58,-1.57,883.3333333333334
1.655,-1.89,886.1111111111111
1.68,-2.12,888.8888888888889
1.65,-2.22,891.6666666666666
1.57,-2.205,894.4444444444445
1.42,-2.11,897.2222222222222
1.195,-1.96,900.0
0.91,-1.765,902.7777777777778
0.61,-1.55,905.5555555555555
0.34,-1.305,908.3333333333334
0.13,-1.06,911.1111111111111
-0.015,-0.855,913.8888888888889
-0.09,-0.68,916.6666666666666
-0.135,-0.575,919.4444444444445
-0.15,-0.475,922.2222222222222
-0.17,-0.41,925.0
-0.18,-0.325,927.7777777777778
-0.2,-0.265,930.5555555555555
-0.235,-0.185,933.3333333333334
-0.28,-0.12,936.1111111111111
-0.3,-0.085,938.8888888888889
-0.31,-0.04,941.6666666666666
-0.32,-0.025,944.4444444444445
-0.33,-0.005,947.2222222222222
-0.33,0.005,950.0
-0.34,0.0,952.7777777777778
-0.345,0.005,955.5555555555555
-0.35,0.03,958.3333333333334
-0.345,0.04,961.1111111111111
-0.345,0.055,963.8888888888889
-0.35,0.06,966.6666666666666
-0.355,0.085,969.4444444444445
-0.35,0.07,972.2222222222222
-0.355,0.085,975.0
-0.355,0.075,977.7777777777778
-0.355,0.09,980.5555555555555
-0.365,0.085,983.3333333333334
-0.38,0.095,986.1111111111111
-0.38,0.1,988.8888888888889
-0.385,0.095,991.6666666666666
-0.38,0.11,994.4444444444445
-0.37,0.115,997.2222222222222
-0.37,0.14,1000.0
-0.36,0.165,1002.7777777777778
-0.37,0.175,1005.5555555555555
-0.375,0.19,1008.3333333333334
-0.385,0.175,1011.1111111111111
-0.385,0.175,1013.8888888888889
-0.385,0.175,1016.6666666666666
-0.405,0.165,1019.4444444444445
-0.4,0.17,1022.2222222222222
-0.405,0.19,1025.0
-0.41,0.215,1027.7777777777778
-0.41,0.23,1030.5555555555557
-0.42,0.245,1033.3333333333333
-0.425,0.275,1036.111111111111
-0.42,0.26,1038.888888888889
-0.425,0.24,1041.6666666666667
-0.445,0.25,1044.4444444444443
-0.455,0.255,1047.2222222222222
-0.475,0.25,1050.0
-0.49,0.27,1052.7777777777778
-0.495,0.265,1055.5555555555557
-0.51,0.295,1058.3333333333333
-0.525,0.325,1061.111111111111
-0.525,0.325,1063.888888888889
-0.535,0.33,1066.6666666666667
-0.555,0.345,1069.4444444444443
-0.56,0.34,1072.2222222222222
-0.575,0.345,1075.0
-0.6,0.345,1077.7777777777778
-0.63,0.35,1080.5555555555557
-0.655,0.36,1083.3333333333333
-0.665,0.36,1086.111111111111
-0.665,0.375,1088.888888888889
-0.68,0.39,1091.6666666666667
-0.695,0.405,1094.4444444444443
-0.695,0.405,1097.2222222222222
-0.7,0.41,1100.0
-0.7,0.415,1102.7777777777778
-0.7,0.42,1105.5555555555557
-0.705,0.42,1108.3333333333333
-0.72,0.42,1111.111111111111
-0.72,0.42,1113.888888888889
-0.715,0.425,1116.6666666666667
-0.715,0.415,1119.4444444444443
-0.705,0.415,1122.2222222222222
-0.685,0.405,1125.0
-0.67,0.405,1127.7777777777778
-0.65,0.4,1130.5555555555557
-0.635,0.405,1133.3333333333333
-0.605,0.4,1136.111111111111
-0.59,0.385,1138.888888888889
-0.555,0.365,1141.6666666666667
-0.545,0.345,1144.4444444444443
-0.52,0.32,1147.2222222222222
-0.5,0.29,1150.0
-0.475,0.255,1152.7777777777778
-0.435,0.235,1155.5555555555557
-0.41,0.23,1158.3333333333333
-0.37,0.225,1161.111111111111
-0.345,0.21,1163.888888888889
-0.325,0.205,1166.6666666666667
-0.295,0.195,1169.4444444444443
-0.275,0.155,1172.2222222222222
-0.255,0.15,1175.0
-0.245,0.12,1177.7777777777778
-0.23,0.09,1180.5555555555557
-0.22,0.07,1183.3333333333333
-0.22,0.06,1186.111111111111
-0.2,0.05,1188.888888888889
-0.19,0.06,1191.6666666666667
-0.185,0.065,1194.4444444444443
-0.18,0.07,1197.2222222222222
-0.17,0.065,1200.0
-0.17,0.055,1202.7777777777778
-0.165,0.045,1205.5555555555557
-0.15,0.035,1208.3333333333333
-0.16,0.03,1211.111111111111
-0.165,0.02,1213.888888888889
-0.18,0.025,1216.6666666666667
-0.175,0.02,1219.4444444444443
-0.17,0.025,1222.2222222222222
-0.175,0.035,1225.0
-0.16,0.04,1227.7777777777778
-0.155,0.035,1230.5555555555557
-0.165,0.035,1233.3333333333333
-0.15,0.035,1236.111111111111
-0.15,0.035,1238.888888888889
-0.165,0.04,1241.6666666666667
-0.165,0.025,1244.4444444444443
-0.185,0.035,1247.2222222222222
-0.175,0.03,1250.0
-0.19,0.035,1252.7777777777778
-0.195,0.035,1255.5555555555557
-0.19,0.035,1258.3333333333333
-0.195,0.04,1261.111111111111
-0.17,0.04,1263.888888888889
-0.16,0.035,1266.6666666666667
-0.16,0.045,1269.4444444444443
-0.165,0.055,1272.2222222222222
-0.165,0.05,1275.0
-0.16,0.055,1277.7777777777778
-0.185,0.045,1280.5555555555557
-0.19,0.05,1283.3333333333333
-0.195,0.05,1286.111111111111
-0.185,0.035,1288.888888888889
-0.19,0.035,1291.6666666666667
-0.15,0.045,1294.4444444444443
-0.135,0.055,1297.2222222222222
-0.105,0.07,1300.0
-0.075,0.08,1302.7777777777778
-0.05,0.085,1305.5555555555557
-0.025,0.1,1308.3333333333333
-0.005,0.125,1311.111111111111
0.0,0.145,1313.888888888889
0.025,0.175,1316.6666666666667
0.035,0.195,1319.4444444444443
0.065,0.235,1322.2222222222222
0.085,0.275,1325.0
0.125,0.305,1327.7777777777778
0.175,0.32,1330.5555555555557
0.225,0.355,1333.3333333333333
0.3,0.37,1336.111111111111
0.38,0.375,1338.888888888889
0.495,0.38,1341.6666666666667
0.6,0.335,1344.4444444444443
0.715,0.28,1347.2222222222222
0.8,0.22,1350.0
0.87,0.155,1352.7777777777778
0.93,0.105,1355.5555555555557
0.98,0.065,1358.3333333333333
1.02,0.025,1361.111111111111
1.105,0.0,1363.888888888889
1.195,-0.025,1366.6666666666667
1.285,-0.075,1369.4444444444443
1.39,-0.135,1372.2222222222222
1.465,-0.22,1375.0
1.515,-0.335,1377.7777777777778
1.55,-0.46,1380.5555555555557
1.545,-0.605,1383.3333333333333
1.5,-0.73,1386.111111111111
1.385,-0.855,1388.888888888889
1.195,-0.95,1391.6666666666667
0.885,-1.03,1394.4444444444443
0.495,-1.105,1397.2222222222222
0.04,-1.195,1400.0
-0.46,-1.31,1402.7777777777778
-0.905,-1.42,1405.5555555555557
-1.265,-1.565,1408.3333333333333
-1.545,-1.66,1411.111111111111
-1.68,-1.705,1413.888888888889
-1.7,-1.71,1416.6666666666667
-1.655,-1.65,1419.4444444444443
-1.565,-1.575,1422.2222222222222
-1.44,-1.475,1425.0
-1.3,-1.34,1427.7777777777778
-1.2,-1.235,1430.5555555555557
-1.1,-1.08,1433.3333333333333
-1.01,-0.925,1436.111111111111
-0.92,-0.765,1438.888888888889
-0.805,-0.595,1441.6666666666667
-0.7,-0.445,1444.4444444444443
-0.585,-0.33,1447.2222222222222
-0.5,-0.25,1450.0
-0.455,-0.175,1452.7777777777778
-0.43,-0.13,1455.5555555555557
-0.42,-0.1,1458.3333333333333
-0.42,-0.065,1461.111111111111
-0.425,-0.04,1463.888888888889
-0.43,-0.02,1466.6666666666667
-0.42,-0.005,1469.4444444444443
-0.41,0.01,1472.2222222222222
-0.41,0.005,1475.0
-0.405,0.015,1477.7777777777778
-0.405,0.015,1480.5555555555557
-0.415,0.0,1483.3333333333333
-0.41,0.01,1486.111111111111
-0.42,0.015,1488.888888888889
-0.43,0.045,1491.6666666666667
-0.43,0.055,1494.4444444444443
-0.415,0.06,1497.2222222222222
-0.415,0.075,1500.0
-0.39,0.075,1502.7777777777778
-0.4,0.07,1505.5555555555557
-0.4,0.08,1508.3333333333333
-0.405,0.085,1511.111111111111
-0.42,0.085,1513.888888888889
-0.415,0.095,1516.6666666666667
-0.415,0.08,1519.4444444444443
-0.425,0.1,1522.2222222222222
-0.425,0.11,1525.0
-0.425,0.12,1527.7777777777778
-0.43,0.12,1530.5555555555557
-0.43,0.125,1533.3333333333333
-0.42,0.135,1536.111111111111
-0.415,0.145,1538.888888888889
-0.415,0.15,1541.6666666666667
-0.42,0.17,1544.4444444444443
-0.42,0.175,1547.2222222222222
-0.43,0.16,1550.0
-0.435,0.17,1552.7777777777778
-0.435,0.175,1555.5555555555557
-0.43,0.195,1558.3333333333333
-0.43,0.22,1561.111111111111
-0.415,0.245,1563.888888888889
-0.41,0.265,1566.6666666666667
-0.405,0.275,1569.4444444444443
-0.405,0.285,1572.2222222222222
-0.375,0.295,1575.0
-0.37,0.3,1577.7777777777778
-0.375,0.31,1580.5555555555557
-0.36,0.325,1583.3333333333333
-0.35,0.33,1586.111111111111
-0.33,0.34,1588.888888888889
-0.325,0.37,1591.6666666666667
-0.305,0.385,1594.4444444444443
-0.285,0.41,1597.2222222222222
-0.27,0.425,1600.0
-0.245,0.44,1602.7777777777778
-0.235,0.435,1605.5555555555557
-0.225,0.44,1608.3333333333333
-0.205,0.43,1611.111111111111
-0.2,0.42,1613.888888888889
-0.2,0.425,1616.6666666666667
-0.19,0.435,1619.4444444444443
-0.185,0.435,1622.2222222222222
-0.175,0.445,1625.0
-0.17,0.435,1627.7777777777778
-0.17,0.445,1630.5555555555557
-0.16,0.445,1633.3333333333333
-0.145,0.43,1636.111111111111
-0.155,0.425,1638.888888888889
-0.15,0.415,1641.6666666666667
-0.16,0.395,1644.4444444444443
-0.175,0.38,1647.2222222222222
-0.19,0.35,1650.0
-0.2,0.345,1652.7777777777778
-0.23,0.325,1655.5555555555557
-0.245,0.315,1658.3333333333333
-0.24,0.295,1661.111111111111
-0.245,0.285,1663.888888888889
-0.25,0.26,1666.6666666666667
-0.275,0.255,1669.4444444444443
-0.285,0.24,1672.2222222222222
-0.305,0.22,1675.0
-0.315,0.205,1677.7777777777778
-0.335,0.175,1680.5555555555557
-0.35,0.145,1683.3333333333333
-0.35,0.14,1686.111111111111
-0.365,0.12,1688.888888888889
-0.36,0.11,1691.6666666666667
-0.37,0.11,1694.4444444444443
-0.365,0.12,1697.2222222222222
-0.365,0.13,1700.0
-0.365,0.13,1702.7777777777778
-0.355,0.115,1705.5555555555557
-0.375,0.11,1708.3333333333333
-0.38,0.09,1711.111111111111
-0.38,0.085,1713.888888888889
-0.38,0.08,1716.6666666666667
-0.39,0.075,1719.4444444444443
-0.395,0.075,1722.2222222222222
-0.41,0.08,1725.0
-0.4,0.09,1727.7777777777778
-0.4,0.1,1730.5555555555557
-0.395,0.09,1733.3333333333333
-0.39,0.11,1736.111111111111
-0.38,0.105,1738.888888888889
-0.38,0.105,1741.6666666666667
-0.375,0.085,1744.4444444444443
-0.395,0.075,1747.2222222222222
-0.4,0.065,1750.0
-0.415,0.065,1752.7777777777778
-0.42,0.065,1755.5555555555557
-0.415,0.08,1758.3333333333333
-0.4,0.095,1761.111111111111
-0.4,0.11,1763.888888888889
-0.385,0.115,1766.6666666666667
-0.375,0.105,1769.4444444444443
-0.37,0.105,1772.2222222222222
-0.38,0.105,1775.0
-0.38,0.085,1777.7777777777778
-0.385,0.085,1780.5555555555557
-0.395,0.09,1783.3333333333333
-0.41,0.085,1786.111111111111
-0.415,0.09,1788.888888888889
-0.4,0.085,1791.6666666666667
-0.4,0.085,1794.4444444444443
-0.39,0.095,1797.2222222222222
-0.395,0.1,1800.0
-0.375,0.1,1802.7777777777778
-0.385,0.095,1805.5555555555557
-0.385,0.09,1808.3333333333333
-0.39,0.085,1811.111111111111
-0.395,0.09,1813.888888888889
-0.405,0.07,1816.6666666666667
-0.41,0.055,1819.4444444444443
-0.41,0.06,1822.2222222222222
-0.42,0.065,1825.0
-0.43,0.085,1827.7777777777778
-0.425,0.08,1830.5555555555557
-0.415,0.085,1833.3333333333333
-0.405,0.095,1836.111111111111
-0.4,0.095,1838.888888888889
-0.405,0.095,1841.6666666666667
-0.41,0.065,1844.4444444444443
-0.415,0.06,1847.2222222222222
-0.425,0.055,1850.0
-0.415,0.06,1852.7777777777778
-0.435,0.055,1855.5555555555557
-0.425,0.05,1858.3333333333333
-0.425,0.06,1861.111111111111
-0.415,0.085,1863.888888888889
-0.415,0.085,1866.6666666666667
-0.41,0.08,1869.4444444444443
-0.41,0.095,1872.2222222222222
-0.42,0.07,1875.0
-0.41,0.065,1877.7777777777778
-0.42,0.055,1880.5555555555557
-0.43,0.04,1883.3333333333333
-0.435,0.055,1886.111111111111
-0.42,0.055,1888.888888888889
-0.405,0.07,1891.6666666666667
-0.39,0.095,1894.4444444444443
-0.37,0.115,1897.2222222222222
-0.355,0.145,1900.0
-0.33,0.17,1902.7777777777778
-0.32,0.195,1905.5555555555557
-0.31,0.225,1908.3333333333333
-0.3,0.24,1911.111111111111
-0.28,0.24,1913.888888888889
-0.28,0.235,1916.6666666666667
-0.275,0.235,1919.4444444444443
-0.265,0.24,1922.2222222222222
-0.235,0.22,1925.0
-0.195,0.205,1927.7777777777778
-0.175,0.2,1930.5555555555557
-0.145,0.185,1933.3333333333333
-0.115,0.155,1936.111111111111
-0.11,0.125,1938.888888888889
-0.135,0.105,1941.6666666666667
-0.155,0.075,1944.4444444444443
-0.185,0.065,1947.2222222222222
-0.205,0.07,1950.0
-0.205,0.06,1952.7777777777778
-0.22,0.045,1955.5555555555557
-0.2,0.045,1958.3333333333333
-0.195,0.03,1961.111111111111
-0.195,0.005,1963.888888888889
-0.2,-0.005,1966.6666666666667
-0.225,-0.015,1969.4444444444443
-0.27,-0.035,1972.2222222222222
-0.3,-0.035,1975.0
-0.335,-0.04,1977.7777777777778
-0.375,-0.015,1980.5555555555557
-0.4,-0.01,1983.3333333333333
-0.415,0.0,1986.111111111111
-0.435,0.01,1988.888888888889
-0.445,0.005,1991.6666666666667
-0.45,0.015,1994.4444444444443
-0.465,0.025,1997.2222222222222
-0.475,0.035,2000.0
-0.465,0.045,2002.7777777777778
-0.49,0.04,2005.5555555555557
-0.495,0.04,2008.3333333333333
-0.495,0.025,2011.111111111111
-0.51,0.005,2013.888888888889
-0.5,0.005,2016.6666666666667
-0.51,0.0,2019.4444444444443
-0.515,0.0,2022.2222222222222
-0.505,0.0,2025.0
-0.5,0.015,2027.7777777777778
-0.495,0.015,2030.5555555555557
-0.485,0.035,2033.3333333333333
-0.48,0.02,2036.111111111111
-0.49,0.045,2038.888888888889
-0.47,0.07,2041.6666666666667
-0.46,0.09,2044.4444444444443
-0.43,0.13,2047.2222222222222
-0.36,0.16,2050.0
-0.245,0.195,2052.777777777778
-0.09,0.17,2055.5555555555557
0.11,0.08,2058.3333333333335
0.315,-0.03,2061.1111111111113
0.515,-0.195,2063.8888888888887
0.695,-0.395,2066.6666666666665
0.865,-0.65,2069.4444444444443
1.035,-0.98,2072.222222222222
1.165,-1.35,2075.0
1.285,-1.715,2077.777777777778
1.34,-2.015,2080.5555555555557
1.345,-2.21,2083.3333333333335
1.29,-2.265,2086.1111111111113
1.165,-2.22,2088.8888888888887
1.0,-2.11,2091.6666666666665
0.76,-1.94,2094.4444444444443
0.47,-1.76,2097.222222222222
0.19,-1.53,2100.0
-0.055,-1.27,2102.777777777778
-0.235,-1.02,2105.5555555555557
-0.36,-0.77,2108.3333333333335
-0.44,-0.615,2111.1111111111113
-0.48,-0.475,2113.8888888888887
-0.51,-0.405,2116.6666666666665
-0.53,-0.345,2119.4444444444443
-0.55,-0.275,2122.222222222222
-0.58,-0.21,2125.0
-0.62,-0.12,2127.777777777778
-0.63,-0.05,2130.5555555555557
-0.65,0.025,2133.3333333333335
-0.66,0.065,2136.1111111111113
-0.66,0.075,2138.8888888888887
-0.665,0.09,2141.6666666666665
-0.67,0.08,2144.4444444444443
-0.68,0.07,2147.222222222222
-0.695,0.085,2150.0
-0.69,0.09,2152.777777777778
-0.71,0.11,2155.5555555555557
-0.715,0.12,2158.3333333333335
-0.705,0.14,2161.1111111111113
-0.705,0.155,2163.8888888888887
-0.7,0.18,2166.6666666666665
-0.705,0.175,2169.4444444444443
-0.7,0.18,2172.222222222222
-0.705,0.175,2175.0
-0.7,0.18,2177.777777777778
-0.72,0.19,2180.5555555555557
-0.735,0.175,2183.3333333333335
-0.735,0.2,2186.1111111111113
-0.745,0.2,2188.8888888888887
-0.74,0.225,2191.6666666666665
-0.725,0.235,2194.4444444444443
-0.725,0.24,2197.222222222222
-0.715,0.245,2200.0
-0.725,0.26,2202.777777777778
-0.715,0.245,2205.5555555555557
-0.72,0.265,2208.3333333333335
-0.72,0.255,2211.1111111111113
-0.74,0.26,2213.8888888888887
-0.745,0.28,2216.6666666666665
-0.745,0.275,2219.4444444444443
-0.755,0.28,2222.222222222222
-0.755,0.295,2225.0
-0.755,0.295,2227.777777777778
-0.76,0.315,2230.5555555555557
-0.755,0.33,2233.3333333333335
-0.75,0.345,2236.1111111111113
-0.76,0.345,2238.8888888888887
-0.77,0.355,2241.6666666666665
-0.79,0.365,2244.4444444444443
-0.8,0.375,2247.222222222222
-0.81,0.375,2250.0
-0.83,0.38,2252.777777777778
-0.84,0.38,2255.5555555555557
-0.845,0.39,2258.3333333333335
-0.865,0.41,2261.1111111111113
-0.87,0.41,2263.8888888888887
-0.875,0.435,2266.6666666666665
-0.87,0.445,2269.4444444444443
-0.9,0.455,2272.222222222222
-0.905,0.465,2275.0
-0.925,0.48,2277.777777777778
-0.94,0.465,2280.5555555555557
-0.95,0.465,2283.3333333333335
-0.97,0.465,2286.1111111111113
-0.985,0.47,2288.8888888888887
-1.005,0.48,2291.6666666666665
-1.0,0.495,2294.4444444444443
-1.0,0.52,2297.222222222222
-1.0,0.53,2300.0
-1.01,0.54,2302.777777777778
-1.01,0.53,2305.5555555555557
-1.005,0.525,2308.3333333333335
-1.0,0.505,2311.1111111111113
-0.995,0.505,2313.8888888888887
-0.985,0.49,2316.6666666666665
-0.985,0.49,2319.4444444444443
-0.985,0.485,2322.222222222222
-0.955,0.49,2325.0
-0.935,0.485,2327.777777777778
-0.915,0.48,2330.5555555555557
-0.875,0.475,2333.3333333333335
-0.85,0.445,2336.1111111111113
-0.825,0.43,2338.8888888888887
-0.805,0.405,2341.6666666666665
-0.78,0.37,2344.4444444444443
-0.76,0.355,2347.222222222222
-0.735,0.33,2350.0
-0.715,0.315,2352.777777777778
-0.705,0.29,2355.5555555555557
-0.685,0.29,2358.3333333333335
-0.66,0.265,2361.1111111111113
-0.625,0.245,2363.8888888888887
-0.605,0.22,2366.6666666666665
-0.575,0.215,2369.4444444444443
-0.565,0.195,2372.222222222222
-0.56,0.175,2375.0
-0.56,0.17,2377.777777777778
-0.555,0.155,2380.5555555555557
-0.555,0.125,2383.3333333333335
-0.55,0.12,2386.1111111111113
-0.545,0.12,2388.8888888888887
-0.545,0.115,2391.6666666666665
-0.535,0.125,2394.4444444444443
-0.53,0.12,2397.222222222222
-0.525,0.115,2400.0
-0.51,0.125,2402.777777777778
-0.51,0.13,2405.5555555555557
-0.515,0.12,2408.3333333333335
-0.51,0.1,2411.1111111111113
-0.51,0.095,2413.8888888888887
-0.525,0.08,2416.6666666666665
-0.53,0.09,2419.4444444444443
-0.53,0.095,2422.222222222222
-0.53,0.085,2425.0
-0.52,0.1,2427.777777777778
-0.53,0.115,2430.5555555555557
-0.52,0.13,2433.3333333333335
-0.505,0.13,2436.1111111111113
-0.5,0.13,2438.8888888888887
-0.5,0.115,2441.6666666666665
-0.52,0.115,2444.4444444444443
-0.515,0.105,2447.222222222222
-0.525,0.1,2450.0
-0.53,0.1,2452.777777777778
-0.53,0.1,2455.5555555555557
-0.53,0.115,2458.3333333333335
-0.525,0.125,2461.1111111111113
-0.52,0.12,2463.8888888888887
-0.51,0.135,2466.6666666666665
-0.505,0.14,2469.4444444444443
-0.5,0.135,2472.222222222222
-0.5,0.14,2475.0
-0.52,0.125,2477.777777777778
-0.52,0.125,2480.5555555555557
-0.535,0.12,2483.3333333333335
-0.54,0.13,2486.1111111111113
-0.52,0.135,2488.8888888888887
-0.51,0.15,2491.6666666666665
-0.5,0.155,2494.4444444444443
-0.485,0.175,2497.222222222222
-0.465,0.2,2500.0
-0.44,0.23,2502.777777777778
-0.415,0.26,2505.5555555555557
-0.4,0.295,2508.3333333333335
-0.38,0.3,2511.1111111111113
-0.38,0.295,2513.8888888888887
-0.36,0.305,2516.6666666666665
-0.36,0.3,2519.4444444444443
-0.335,0.29,2522.222222222222
-0.315,0.3,2525.0
-0.275,0.285,2527.777777777778
-0.23,0.28,2530.5555555555557
-0.185,0.265,2533.3333333333335
-0.16,0.23,2536.1111111111113
-0.17,0.185,2538.8888888888887
-0.18,0.16,2541.6666666666665
-0.205,0.12,2544.4444444444443
-0.225,0.1,2547.222222222222
-0.245,0.095,2550.0
-0.245,0.095,2552.777777777778
-0.24,0.085,2555.5555555555557
-0.235,0.07,2558.3333333333335
-0.235,0.07,2561.1111111111113
-0.25,0.05,2563.8888888888887
-0.275,0.025,2566.6666666666665
-0.295,0.01,2569.4444444444443
-0.335,0.005,2572.222222222222
-0.375,0.025,2575.0
-0.41,0.045,2577.777777777778
-0.44,0.055,2580.5555555555557
-0.465,0.065,2583.3333333333335
-0.47,0.065,2586.1111111111113
-0.5,0.07,2588.8888888888887
-0.5,0.07,2591.6666666666665
-0.525,0.075,2594.4444444444443
-0.535,0.085,2597.222222222222
-0.53,0.08,2600.0
-0.525,0.075,2602.777777777778
-0.525,0.06,2605.5555555555557
-0.53,0.06,2608.3333333333335
-0.51,0.065,2611.1111111111113
-0.525,0.045,2613.8888888888887
-0.525,0.055,2616.6666666666665
-0.535,0.03,2619.4444444444443
-0.535,0.04,2622.222222222222
-0.525,0.035,2625.0
-0.505,0.045,2627.777777777778
-0.515,0.045,2630.5555555555557
-0.505,0.065,2633.3333333333335
-0.485,0.095,2636.1111111111113
-0.48,0.135,2638.8888888888887
-0.46,0.175,2641.6666666666665
-0.415,0.22,2644.4444444444443
-0.325,0.235,2647.222222222222
-0.185,0.235,2650.0
0.0,0.175,2652.777777777778
0.195,0.06,2655.5555555555557
0.4,-0.09,2658.3333333333335
0.61,-0.255,2661.1111111111113
0.79,-0.51,2663.8888888888887
0.945,-0.795,2666.6666666666665
1.105,-1.15,2669.4444444444443
1.225,-1.54,2672.222222222222
1.315,-1.885,2675.0
1.335,-2.13,2677.777777777778
1.305,-2.28,2680.5555555555557
1.225,-2.305,2683.3333333333335
1.095,-2.22,2686.1111111111113
0.9,-2.085,2688.8888888888887
0.655,-1.91,2691.6666666666665
0.37,-1.7,2694.4444444444443
0.095,-1.46,2697.222222222222
-0.12,-1.2,2700.0
-0.275,-0.935,2702.777777777778
-0.38,-0.735,2705.5555555555557
-0.445,-0.56,2708.3333333333335
-0.475,-0.45,2711.1111111111113
-0.5,-0.365,2713.8888888888887
-0.525,-0.295,2716.6666666666665
-0.54,-0.215,2719.4444444444443
-0.57,-0.145,2722.222222222222
-0.6,-0.065,2725.0
-0.625,-0.01,2727.777777777778
-0.63,0.04,2730.5555555555557
-0.625,0.085,2733.3333333333335
-0.63,0.105,2736.1111111111113
-0.62,0.11,2738.8888888888887
-0.63,0.12,2741.6666666666665
-0.625,0.125,2744.4444444444443
-0.65,0.135,2747.222222222222
-0.645,0.135,2750.0
-0.65,0.125,2752.777777777778
-0.655,0.14,2755.5555555555557
-0.655,0.15,2758.3333333333335
-0.655,0.17,2761.1111111111113
-0.65,0.175,2763.8888888888887
-0.645,0.195,2766.6666666666665
-0.63,0.215,2769.4444444444443
-0.63,0.21,2772.222222222222
-0.65,0.23,2775.0
-0.66,0.22,2777.777777777778
-0.665,0.215,2780.5555555555557
-0.67,0.22,2783.3333333333335
-0.675,0.23,2786.1111111111113
-0.68,0.22,2788.8888888888887
-0.67,0.245,2791.6666666666665
-0.65,0.27,2794.4444444444443
-0.65,0.28,2797.222222222222
-0.635,0.285,2800.0
-0.645,0.295,2802.777777777778
-0.645,0.3,2805.5555555555557
-0.645,0.3,2808.3333333333335
-0.665,0.3,2811.1111111111113
-0.665,0.31,2813.8888888888887
-0.685,0.315,2816.6666666666665
-0.69,0.33,2819.4444444444443
-0.695,0.34,2822.222222222222
-0.685,0.365,2825.0
-0.695,0.37,2827.777777777778
-0.7,0.395,2830.5555555555557
-0.685,0.405,2833.3333333333335
-0.695,0.405,2836.1111111111113
-0.715,0.425,2838.8888888888887
-0.72,0.415,2841.6666666666665
-0.735,0.43,2844.4444444444443
-0.75,0.44,2847.222222222222
-0.765,0.45,2850.0
-0.77,0.475,2852.777777777778
-0.775,0.475,2855.5555555555557
-0.785,0.505,2858.3333333333335
-0.79,0.515,2861.1111111111113
-0.795,0.525,2863.8888888888887
-0.805,0.535,2866.6666666666665
-0.795,0.545,2869.4444444444443
-0.82,0.55,2872.222222222222
-0.81,0.56,2875.0
-0.805,0.565,2877.777777777778
-0.82,0.57,2880.5555555555557
-0.835,0.57,2883.3333333333335
-0.835,0.565,2886.1111111111113
-0.845,0.565,2888.8888888888887
-0.84,0.58,2891.6666666666665
-0.83,0.58,2894.4444444444443
-0.815,0.595,2897.222222222222
-0.8,0.595,2900.0
-0.78,0.59,2902.777777777778
-0.77,0.575,2905.5555555555557
-0.75,0.57,2908.3333333333335
-0.74,0.545,2911.1111111111113
-0.72,0.52,2913.8888888888887
-0.715,0.5,2916.6666666666665
-0.695,0.48,2919.4444444444443
-0.68,0.44,2922.222222222222
-0.645,0.435,2925.0
-0.625,0.42,2927.777777777778
-0.605,0.405,2930.5555555555557
-0.575,0.385,2933.3333333333335
-0.55,0.36,2936.1111111111113
-0.54,0.33,2938.8888888888887
-0.52,0.295,2941.6666666666665
-0.515,0.27,2944.4444444444443
-0.505,0.24,2947.222222222222
-0.49,0.215,2950.0
-0.485,0.225,2952.777777777778
-0.48,0.19,2955.5555555555557
-0.465,0.185,2958.3333333333335
-0.465,0.175,2961.1111111111113
-0.445,0.175,2963.8888888888887
-0.435,0.175,2966.6666666666665
-0.42,0.155,2969.4444444444443
-0.43,0.145,2972.222222222222
-0.42,0.13,2975.0
-0.425,0.11,2977.777777777778
-0.415,0.105,2980.5555555555557
-0.41,0.11,2983.3333333333335
-0.415,0.105,2986.1111111111113
-0.395,0.105,2988.8888888888887
-0.375,0.115,2991.6666666666665
-0.36,0.12,2994.4444444444443
-0.34,0.11,2997.222222222222
-0.295,0.12,3000.0
-0.27,0.105,3002.777777777778
-0.23,0.115,3005.5555555555557
-0.19,0.11,3008.3333333333335
-0.145,0.105,3011.1111111111113
-0.105,0.1,3013.8888888888887
-0.045,0.085,3016.6666666666665
0.02,0.08,3019.4444444444443
0.1,0.07,3022.222222222222
0.19,0.065,3025.0
0.28,0.045,3027.777777777778
0.4,0.05,3030.5555555555557
0.5,0.035,3033.3333333333335
0.555,-0.005,3036.1111111111113
0.53,-0.04,3038.8888888888887
0.42,-0.11,3041.6666666666665
0.18,-0.18,3044.4444444444443
-0.185,-0.26,3047.222222222222
-0.625,-0.32,3050.0
-1.085,-0.345,3052.777777777778
-1.48,-0.36,3055.5555555555557
-1.78,-0.345,3058.3333333333335
-2.005,-0.355,3061.1111111111113
-2.14,-0.355,3063.8888888888887
-2.23,-0.385,3066.6666666666665
-2.32,-0.41,3069.4444444444443
-2.38,-0.405,3072.222222222222
-2.435,-0.355,3075.0
-2.47,-0.265,3077.777777777778
-2.47,-0.135,3080.5555555555557
-2.455,0.035,3083.3333333333335
-2.42,0.23,3086.1111111111113
-2.335,0.42,3088.8888888888887
-2.24,0.605,3091.6666666666665
-2.13,0.75,3094.4444444444443
-2.015,0.895,3097.222222222222
-1.895,0.995,3100.0
-1.79,1.09,3102.777777777778
-1.68,1.17,3105.5555555555557
-1.6,1.205,3108.3333333333335
-1.55,1.24,3111.1111111111113
-1.49,1.24,3113.8888888888887
-1.405,1.22,3116.6666666666665
-1.29,1.14,3119.4444444444443
-1.16,0.965,3122.222222222222
-1.02,0.725,3125.0
-0.925,0.435,3127.777777777778
-0.86,0.11,3130.5555555555557
-0.82,-0.16,3133.3333333333335
-0.79,-0.355,3136.1111111111113
-0.74,-0.44,3138.8888888888887
-0.65,-0.43,3141.6666666666665
-0.52,-0.38,3144.4444444444443
-0.365,-0.3,3147.222222222222
-0.18,-0.245,3150.0
-0.025,-0.19,3152.777777777778
0.08,-0.16,3155.5555555555557
0.15,-0.135,3158.3333333333335
0.17,-0.12,3161.1111111111113
0.15,-0.095,3163.8888888888887
0.135,-0.08,3166.6666666666665
0.115,-0.07,3169.4444444444443
0.105,-0.05,3172.222222222222
0.115,-0.05,3175.0
0.135,-0.05,3177.777777777778
0.155,-0.055,3180.5555555555557
0.165,-0.05,3183.3333333333335
0.185,-0.055,3186.1111111111113
0.2,-0.04,3188.8888888888887
0.205,-0.035,3191.6666666666665
0.22,-0.02,3194.4444444444443
0.245,-0.02,3197.222222222222
0.275,-0.015,3200.0
0.29,-0.015,3202.777777777778
0.31,-0.035,3205.5555555555557
0.315,-0.04,3208.3333333333335
0.335,-0.06,3211.1111111111113
0.34,-0.06,3213.8888888888887
0.355,-0.06,3216.6666666666665
0.37,-0.06,3219.4444444444443
0.38,-0.05,3222.222222222222
0.405,-0.05,3225.0
0.435,-0.04,3227.777777777778
0.455,-0.04,3230.5555555555557
0.49,-0.035,3233.3333333333335
0.5,-0.055,3236.1111111111113
0.53,-0.05,3238.8888888888887
0.555,-0.065,3241.6666666666665
0.555,-0.075,3244.4444444444443
0.57,-0.07,3247.222222222222
0.585,-0.065,3250.0
0.61,-0.075,3252.777777777778
0.645,-0.08,3255.5555555555557
0.665,-0.085,3258.3333333333335
0.69,-0.085,3261.1111111111113
0.71,-0.09,3263.8888888888887
0.735,-0.075,3266.6666666666665
0.755,-0.085,3269.4444444444443
0.77,-0.09,3272.222222222222
0.775,-0.1,3275.0
0.775,-0.115,3277.777777777778
0.78,-0.125,3280.5555555555557
0.77,-0.135,3283.3333333333335
0.76,-0.15,3286.1111111111113
0.76,-0.155,3288.8888888888887
0.745,-0.16,3291.6666666666665
0.755,-0.155,3294.4444444444443
0.745,-0.165,3297.222222222222
0.73,-0.175,3300.0
0.71,-0.18,3302.777777777778
0.685,-0.175,3305.5555555555557
0.65,-0.19,3308.3333333333335
0.605,-0.215,3311.1111111111113
0.56,-0.22,3313.8888888888887
0.515,-0.21,3316.6666666666665
0.475,-0.21,3319.4444444444443
0.445,-0.205,3322.222222222222
0.415,-0.185,3325.0
0.375,-0.165,3327.777777777778
0.345,-0.15,3330.5555555555557
0.305,-0.145,3333.3333333333335
0.26,-0.135,3336.1111111111113
0.23,-0.11,3338.8888888888887
0.185,-0.11,3341.6666666666665
0.14,-0.09,3344.4444444444443
0.1,-0.075,3347.222222222222
0.065,-0.065,3350.0
0.03,-0.035,3352.777777777778
0.005,-0.005,3355.5555555555557
-0.02,0.015,3358.3333333333335
-0.05,0.02,3361.1111111111113
-0.06,0.04,3363.8888888888887
-0.06,0.055,3366.6666666666665
-0.08,0.07,3369.4444444444443
-0.11,0.075,3372.222222222222
-0.125,0.085,3375.0
-0.145,0.085,3377.777777777778
-0.16,0.08,3380.5555555555557
-0.18,0.08,3383.3333333333335
-0.19,0.09,3386.1111111111113
-0.185,0.085,3388.8888888888887
-0.19,0.095,3391.6666666666665
-0.2,0.11,3394.4444444444443
-0.19,0.115,3397.222222222222
-0.18,0.12,3400.0
-0.195,0.105,3402.777777777778
-0.19,0.115,3405.5555555555557
-0.205,0.1,3408.3333333333335
-0.215,0.105,3411.1111111111113
-0.215,0.09,3413.8888888888887
-0.225,0.08,3416.6666666666665
-0.24,0.085,3419.4444444444443
-0.23,0.09,3422.222222222222
-0.22,0.115,3425.0
-0.215,0.115,3427.777777777778
-0.21,0.12,3430.5555555555557
-0.2,0.12,3433.3333333333335
-0.195,0.125,3436.1111111111113
-0.195,0.115,3438.8888888888887
-0.19,0.1,3441.6666666666665
-0.21,0.09,3444.4444444444443
-0.21,0.095,3447.222222222222
-0.215,0.075,3450.0
-0.225,0.095,3452.777777777778
-0.22,0.1,3455.5555555555557
-0.22,0.11,3458.3333333333335
-0.225,0.105,3461.1111111111113
-0.225,0.115,3463.8888888888887
-0.21,0.12,3466.6666666666665
-0.21,0.1,3469.4444444444443
-0.205,0.1,3472.222222222222
-0.21,0.1,3475.0
-0.22,0.09,3477.777777777778
-0.235,0.085,3480.5555555555557
-0.235,0.095,3483.3333333333335
-0.245,0.09,3486.1111111111113
-0.25,0.095,3488.8888888888887
-0.24,0.085,3491.6666666666665
-0.24,0.095,3494.4444444444443
-0.235,0.095,3497.222222222222
-0.22,0.1,3500.0
-0.225,0.11,3502.777777777778
-0.23,0.1,3505.5555555555557
-0.24,0.095,3508.3333333333335
-0.24,0.08,3511.1111111111113
-0.255,0.075,3513.8888888888887
-0.26,0.075,3516.6666666666665
-0.26,0.065,3519.4444444444443
-0.27,0.07,3522.222222222222
-0.27,0.08,3525.0
-0.255,0.075,3527.777777777778
-0.26,0.09,3530.5555555555557
-0.245,0.095,3533.3333333333335
-0.25,0.085,3536.1111111111113
-0.235,0.095,3538.8888888888887
-0.235,0.085,3541.6666666666665
-0.24,0.07,3544.4444444444443
-0.24,0.07,3547.222222222222
-0.255,0.06,3550.0
-0.26,0.065,3552.777777777778
-0.265,0.07,3555.5555555555557
-0.245,0.065,3558.3333333333335
-0.245,0.07,3561.1111111111113
-0.235,0.065,3563.8888888888887
-0.23,0.075,3566.6666666666665
-0.23,0.06,3569.4444444444443
-0.24,0.065,3572.222222222222
-0.245,0.055,3575.0
-0.245,0.045,3577.777777777778
-0.255,0.05,3580.5555555555557
-0.255,0.05,3583.3333333333335
-0.245,0.05,3586.1111111111113
-0.24,0.055,3588.8888888888887
-0.245,0.06,3591.6666666666665
-0.25,0.06,3594.4444444444443
-0.24,0.06,3597.222222222222
-0.23,0.075,3600.0
-0.22,0.07,3602.777777777778
-0.23,0.08,3605.5555555555557
-0.22,0.075,3608.3333333333335
-0.225,0.055,3611.1111111111113
-0.235,0.04,3613.8888888888887
-0.245,0.03,3616.6666666666665
-0.23,0.04,3619.4444444444443
-0.23,0.035,3622.222222222222
-0.24,0.055,3625.0
-0.235,0.065,3627.777777777778
-0.225,0.065,3630.5555555555557
-0.2,0.065,3633.3333333333335
-0.2,0.06,3636.1111111111113
-0.2,0.065,3638.8888888888887
-0.2,0.05,3641.6666666666665
-0.21,0.035,3644.4444444444443
-0.22,0.04,3647.222222222222
-0.21,0.035,3650.0
-0.21,0.045,3652.777777777778
-0.19,0.055,3655.5555555555557
-0.175,0.075,3658.3333333333335
-0.155,0.09,3661.1111111111113
-0.12,0.125,3663.8888888888887
-0.105,0.165,3666.6666666666665
-0.08,0.19,3669.4444444444443
-0.07,0.22,3672.222222222222
-0.045,0.235,3675.0
-0.04,0.24,3677.777777777778
-0.045,0.235,3680.5555555555557
-0.05,0.23,3683.3333333333335
-0.03,0.22,3686.1111111111113
-0.005,0.215,3688.8888888888887
0.035,0.205,3691.6666666666665
0.07,0.18,3694.4444444444443
0.125,0.155,3697.222222222222
0.16,0.13,3700.0
0.165,0.11,3702.777777777778
0.15,0.1,3705.5555555555557
0.11,0.07,3708.3333333333335
0.08,0.045,3711.1111111111113
0.075,0.02,3713.8888888888887
0.065,0.03,3716.6666666666665
0.06,0.005,3719.4444444444443
0.08,0.015,3722.222222222222
0.09,-0.005,3725.0
0.085,-0.03,3727.777777777778
0.065,-0.055,3730.5555555555557
0.055,-0.055,3733.3333333333335
0.015,-0.07,3736.1111111111113
-0.025,-0.065,3738.8888888888887
-0.045,-0.065,3741.6666666666665
-0.07,-0.055,3744.4444444444443
-0.115,-0.03,3747.222222222222
-0.135,-0.035,3750.0
-0.155,-0.035,3752.777777777778
-0.17,-0.025,3755.5555555555557
-0.19,0.005,3758.3333333333335
-0.195,-0.005,3761.1111111111113
-0.19,0.015,3763.8888888888887
-0.19,0.025,3766.6666666666665
-0.205,0.01,3769.4444444444443
-0.2,0.0,3772.222222222222
-0.2,-0.005,3775.0
-0.205,-0.02,3777.777777777778
-0.205,-0.03,3780.5555555555557
-0.2,-0.04,3783.3333333333335
-0.21,-0.03,3786.1111111111113
-0.21,-0.03,3788.8888888888887
-0.205,-0.025,3791.6666666666665
-0.2,-0.015,3794.4444444444443
-0.19,-0.01,3797.222222222222
-0.185,0.015,3800.0
-0.17,0.035,3802.777777777778
-0.15,0.07,3805.5555555555557
-0.11,0.105,3808.3333333333335
-0.05,0.145,3811.1111111111113
0.055,0.15,3813.8888888888887
0.205,0.135,3816.6666666666665
0.38,0.04,3819.4444444444443
0.585,-0.095,3822.222222222222
0.79,-0.265,3825.0
0.98,-0.475,3827.777777777778
1.14,-0.735,3830.5555555555557
1.315,-1.055,3833.3333333333335
1.445,-1.41,3836.1111111111113
1.57,-1.77,3838.8888888888887
1.64,-2.065,3841.6666666666665
1.635,-2.27,3844.4444444444443
1.58,-2.345,3847.222222222222
1.48,-2.305,3850.0
1.325,-2.215,3852.777777777778
1.095,-2.06,3855.5555555555557
0.83,-1.88,3858.3333333333335
0.545,-1.655,3861.1111111111113
0.305,-1.405,3863.8888888888887
0.12,-1.135,3866.6666666666665
-0.015,-0.885,3869.4444444444443
-0.085,-0.705,3872.222222222222
-0.14,-0.565,3875.0
-0.175,-0.485,3877.777777777778
-0.19,-0.405,3880.5555555555557
-0.23,-0.345,3883.3333333333335
-0.27,-0.28,3886.1111111111113
-0.3,-0.205,3888.8888888888887
-0.325,-0.125,3891.6666666666665
-0.335,-0.06,3894.4444444444443
-0.345,-0.005,3897.222222222222
-0.345,0.03,3900.0
-0.34,0.04,3902.777777777778
-0.345,0.035,3905.5555555555557
-0.34,0.03,3908.3333333333335
-0.355,0.045,3911.1111111111113
-0.365,0.04,3913.8888888888887
-0.37,0.045,3916.6666666666665
-0.39,0.05,3919.4444444444443
-0.38,0.08,3922.222222222222
-0.37,0.085,3925.0
-0.38,0.1,3927.777777777778
-0.37,0.11,3930.5555555555557
-0.375,0.13,3933.3333333333335
-0.365,0.125,3936.1111111111113
-0.375,0.13,3938.8888888888887
-0.37,0.13,3941.6666666666665
-0.37,0.14,3944.4444444444443
-0.39,0.14,3947.222222222222
-0.39,0.13,3950.0
-0.405,0.145,3952.777777777778
-0.4,0.155,3955.5555555555557
-0.405,0.175,3958.3333333333335
-0.395,0.185,3961.1111111111113
-0.39,0.185,3963.8888888888887
-0.39,0.185,3966.6666666666665
-0.395,0.21,3969.4444444444443
-0.405,0.205,3972.222222222222
-0.4,0.22,3975.0
-0.405,0.21,3977.777777777778
-0.43,0.225,3980.5555555555557
-0.43,0.215,3983.3333333333335
-0.44,0.22,3986.1111111111113
-0.435,0.24,3988.8888888888887
-0.45,0.24,3991.6666666666665
-0.445,0.25,3994.4444444444443
-0.445,0.28,3997.222222222222
-0.445,0.285,4000.0
-0.46,0.295,4002.777777777778
-0.475,0.31,4005.5555555555557
-0.495,0.3,4008.3333333333335
-0.51,0.3,4011.1111111111113
-0.525,0.305,4013.8888888888887
-0.545,0.305,4016.6666666666665
-0.56,0.32,4019.4444444444443
-0.57,0.33,4022.222222222222
-0.59,0.345,4025.0
-0.6,0.375,4027.777777777778
-0.605,0.37,4030.5555555555557
-0.61,0.39,4033.3333333333335
-0.63,0.4,4036.1111111111113
-0.64,0.4,4038.8888888888887
-0.66,0.395,4041.6666666666665
-0.68,0.385,4044.4444444444443
-0.705,0.395,4047.222222222222
-0.715,0.38,4050.0
-0.735,0.385,4052.777777777778
-0.745,0.405,4055.5555555555557
-0.74,0.42,4058.3333333333335
-0.745,0.43,4061.1111111111113
-0.74,0.435,4063.8888888888887
-0.74,0.44,4066.6666666666665
-0.725,0.435,4069.4444444444443
-0.73,0.44,4072.222222222222
-0.725,0.425,4075.0
-0.725,0.405,4077.777777777778
-0.725,0.41,4080.5555555555557
-0.705,0.395,4083.3333333333335
-0.7,0.39,4086.1111111111113
-0.68,0.385,4088.8888888888887
-0.655,0.38,4091.6666666666665
-0.625,0.365,4094.4444444444443
-0.6,0.36,4097.222222222223
-0.565,0.36,4100.0
-0.545,0.34,4102.777777777777
-0.515,0.305,4105.555555555556
-0.485,0.295,4108.333333333333
-0.465,0.275,4111.111111111111
-0.44,0.24,4113.888888888889
-0.415,0.22,4116.666666666667
-0.39,0.195,4119.444444444444
-0.37,0.18,4122.222222222223
-0.34,0.165,4125.0
-0.3,0.145,4127.777777777777
-0.275,0.13,4130.555555555556
-0.255,0.115,4133.333333333333
-0.24,0.105,4136.111111111111
-0.225,0.085,4138.888888888889
-0.195,0.07,4141.666666666667
-0.2,0.06,4144.444444444444
-0.195,0.04,4147.222222222223
-0.19,0.025,4150.0
-0.195,0.015,4152.777777777777
-0.185,0.015,4155.555555555556
-0.175,0.025,4158.333333333333
-0.175,0.025,4161.111111111111
-0.155,0.045,4163.888888888889
-0.155,0.035,4166.666666666667
-0.145,0.025,4169.444444444444
-0.15,0.025,4172.222222222223
-0.15,0.005,4175.0
-0.155,0.0,4177.777777777777
-0.15,0.005,4180.555555555556
-0.16,-0.005,4183.333333333333
-0.15,0.005,4186.111111111111
-0.155,0.02,4188.888888888889
-0.145,0.02,4191.666666666667
-0.14,0.005,4194.444444444444
-0.135,0.03,4197.222222222223
-0.12,0.02,4200.0
-0.12,0.02,4202.777777777777
-0.13,0.015,4205.555555555556
-0.13,0.015,4208.333333333333
-0.135,0.01,4211.111111111111
-0.135,0.01,4213.888888888889
-0.145,0.01,4216.666666666667
-0.155,0.01,4219.444444444444
-0.15,0.01,4222.222222222223
-0.145,0.015,4225.0
-0.145,0.03,4227.777777777777
-0.135,0.03,4230.555555555556
-0.115,0.045,4233.333333333333
-0.12,0.04,4236.111111111111
-0.12,0.05,4238.888888888889
-0.115,0.05,4241.666666666667
-0.11,0.045,4244.444444444444
-0.11,0.045,4247.222222222223
-0.105,0.03,4250.0
-0.1,0.035,4252.777777777777
-0.08,0.02,4255.555555555556
-0.06,0.04,4258.333333333333
-0.03,0.055,4261.111111111111
0.0,0.07,4263.888888888889
0.035,0.115,4266.666666666667
0.06,0.125,4269.444444444444
0.07,0.155,4272.222222222223
0.095,0.205,4275.0
0.125,0.23,4277.777777777777
0.145,0.255,4280.555555555556
0.18,0.275,4283.333333333333
0.225,0.29,4286.111111111111
0.285,0.3,4288.888888888889
0.35,0.335,4291.666666666667
0.44,0.36,4294.444444444444
0.555,0.365,4297.222222222223
0.67,0.325,4300.0
0.79,0.285,4302.777777777777
0.875,0.21,4305.555555555556
0.965,0.135,4308.333333333333
1.015,0.06,4311.111111111111
1.06,0.005,4313.888888888889
1.105,-0.05,4316.666666666667
1.175,-0.08,4319.444444444444
1.265,-0.1,4322.222222222223
1.35,-0.15,4325.0
1.45,-0.215,4327.777777777777
1.525,-0.315,4330.555555555556
1.575,-0.43,4333.333333333333
1.595,-0.57,4336.111111111111
1.565,-0.72,4338.888888888889
1.475,-0.855,4341.666666666667
1.315,-0.98,4344.444444444444
1.075,-1.08,4347.222222222223
0.725,-1.15,4350.0
0.3,-1.23,4352.777777777777
-0.18,-1.315,4355.555555555556
-0.645,-1.415,4358.333333333333
-1.045,-1.525,4361.111111111111
-1.36,-1.66,4363.888888888889
-1.555,-1.71,4366.666666666667
-1.64,-1.725,4369.444444444444
-1.64,-1.71,4372.222222222223
-1.57,-1.66,4375.0
-1.48,-1.615,4377.777777777777
-1.355,-1.52,4380.555555555556
-1.24,-1.41,4383.333333333333
-1.15,-1.295,4386.111111111111
-1.075,-1.16,4388.888888888889
-0.99,-1.02,4391.666666666667
-0.895,-0.84,4394.444444444444
-0.77,-0.675,4397.222222222223
-0.665,-0.53,4400.0
-0.55,-0.41,4402.777777777777
-0.445,-0.29,4405.555555555556
-0.35,-0.225,4408.333333333333
-0.32,-0.17,4411.111111111111
-0.28,-0.13,4413.888888888889
-0.295,-0.115,4416.666666666667
-0.305,-0.09,4419.444444444444
-0.305,-0.075,4422.222222222223
-0.295,-0.05,4425.0
-0.285,-0.02,4427.777777777777
-0.285,-0.01,4430.555555555556
-0.275,0.005,4433.333333333333
-0.265,0.01,4436.111111111111
-0.255,0.005,4438.888888888889
-0.245,0.005,4441.666666666667
-0.26,0.015,4444.444444444444
-0.26,0.0,4447.222222222223
-0.27,-0.01,4450.0
-0.26,0.005,4452.777777777777
-0.27,0.025,4455.555555555556
-0.255,0.045,4458.333333333333
-0.245,0.06,4461.111111111111
-0.255,0.06,4463.888888888889
-0.245,0.06,4466.666666666667
-0.24,0.07,4469.444444444444
-0.23,0.075,4472.222222222223
-0.24,0.06,4475.0
-0.245,0.065,4477.777777777777
-0.25,0.06,4480.555555555556
-0.25,0.07,4483.333333333333
-0.26,0.08,4486.111111111111
-0.255,0.09,4488.888888888889
-0.255,0.1,4491.666666666667
-0.24,0.11,4494.444444444444
-0.235,0.125,4497.222222222223
-0.23,0.135,4500.0
-0.23,0.145,4502.777777777777
-0.23,0.14,4505.555555555556
-0.235,0.155,4508.333333333333
-0.245,0.15,4511.111111111111
-0.24,0.165,4513.888888888889
-0.245,0.18,4516.666666666667
-0.24,0.185,4519.444444444444
-0.23,0.2,4522.222222222223
-0.225,0.205,4525.0
-0.225,0.225,4527.777777777777
-0.195,0.245,4530.555555555556
-0.18,0.26,4533.333333333333
-0.17,0.28,4536.111111111111
-0.165,0.3,4538.888888888889
-0.145,0.3,4541.666666666667
-0.135,0.31,4544.444444444444
-0.14,0.325,4547.222222222223
-0.125,0.325,4550.0
-0.125,0.34,4552.777777777777
-0.11,0.35,4555.555555555556
-0.085,0.365,4558.333333333333
-0.065,0.39,4561.111111111111
-0.05,0.41,4563.888888888889
-0.025,0.425,4566.666666666667
-0.005,0.43,4569.444444444444
0.01,0.44,4572.222222222223
0.025,0.435,4575.0
0.035,0.435,4577.777777777777
0.02,0.425,4580.555555555556
0.02,0.415,4583.333333333333
0.025,0.42,4586.111111111111
0.04,0.425,4588.888888888889
0.045,0.44,4591.666666666667
0.045,0.44,4594.444444444444
0.07,0.42,4597.222222222223
0.065,0.415,4600.0
0.07,0.4,4602.777777777777
0.06,0.39,4605.555555555556
0.045,0.365,4608.333333333333
0.03,0.35,4611.111111111111
0.015,0.325,4613.888888888889
-0.005,0.31,4616.666666666667
-0.02,0.295,4619.444444444444
-0.02,0.295,4622.222222222223
-0.035,0.26,4625.0
-0.04,0.26,4627.777777777777
-0.05,0.225,4630.555555555556
-0.055,0.225,4633.333333333333
-0.06,0.195,4636.111111111111
-0.07,0.185,4638.888888888889
-0.08,0.15,4641.666666666667
-0.11,0.14,4644.444444444444
-0.115,0.115,4647.222222222223
-0.12,0.11,4650.0
-0.135,0.105,4652.777777777777
-0.13,0.1,4655.555555555556
-0.135,0.08,4658.333333333333
-0.125,0.09,4661.111111111111
-0.14,0.08,4663.888888888889
-0.12,0.085,4666.666666666667
-0.13,0.075,4669.444444444444
-0.13,0.08,4672.222222222223
-0.135,0.06,4675.0
-0.145,0.06,4677.777777777777
-0.16,0.04,4680.555555555556
-0.155,0.045,4683.333333333333
-0.16,0.04,4686.111111111111
-0.17,0.03,4688.888888888889
-0.16,0.045,4691.666666666667
-0.16,0.04,4694.444444444444
-0.14,0.05,4697.222222222223
-0.135,0.065,4700.0
-0.13,0.065,4702.777777777777
-0.135,0.05,4705.555555555556
-0.14,0.055,4708.333333333333
-0.135,0.04,4711.111111111111
-0.14,0.03,4713.888888888889
-0.14,0.015,4716.666666666667
-0.145,0.025,4719.444444444444
-0.145,0.03,4722.222222222223
-0.13,0.055,4725.0
-0.12,0.06,4727.777777777777
-0.115,0.075,4730.555555555556
-0.095,0.06,4733.333333333333
-0.105,0.055,4736.111111111111
-0.11,0.055,4738.888888888889
-0.12,0.035,4741.666666666667
-0.12,0.035,4744.444444444444
-0.12,0.03,4747.222222222223
-0.115,0.02,4750.0
-0.125,0.02,4752.777777777777
-0.13,0.045,4755.555555555556
-0.125,0.05,4758.333333333333
-0.11,0.045,4761.111111111111
-0.11,0.055,4763.888888888889
-0.105,0.06,4766.666666666667
-0.105,0.055,4769.444444444444
-0.105,0.05,4772.222222222223
-0.11,0.04,4775.0
-0.12,0.035,4777.777777777777
-0.12,0.03,4780.555555555556
-0.125,0.025,4783.333333333333
-0.135,0.025,4786.111111111111
-0.14,0.02,4788.888888888889
-0.125,0.02,4791.666666666667
-0.115,0.025,4794.444444444444
-0.115,0.04,4797.222222222223
-0.11,0.04,4800.0
-0.105,0.035,4802.777777777777
-0.12,0.03,4805.555555555556
-0.11,0.04,4808.333333333333
-0.12,0.03,4811.111111111111
-0.125,0.025,4813.888888888889
-0.12,0.015,4816.666666666667
-0.115,0.015,4819.444444444444
-0.115,0.01,4822.222222222223
-0.115,0.01,4825.0
-0.11,0.02,4827.777777777777
-0.11,0.035,4830.555555555556
-0.105,0.035,4833.333333333333
-0.095,0.025,4836.111111111111
-0.115,0.025,4838.888888888889
-0.11,0.02,4841.666666666667
-0.115,0.005,4844.444444444444
-0.105,-0.005,4847.222222222223
-0.125,-0.02,4850.0
-0.115,-0.015,4852.777777777777
-0.11,-0.01,4855.555555555556
-0.09,0.005,4858.333333333333
-0.08,0.025,4861.111111111111
-0.065,0.03,4863.888888888889
-0.05,0.055,4866.666666666667
-0.03,0.07,4869.444444444444
-0.015,0.095,4872.222222222223
-0.005,0.11,4875.0
0.005,0.13,4877.777777777777
0.01,0.15,4880.555555555556
0.01,0.17,4883.333333333333
0.035,0.19,4886.111111111111
0.045,0.185,4888.888888888889
0.04,0.21,4891.666666666667
0.065,0.205,4894.444444444444
0.09,0.195,4897.222222222223
0.135,0.195,4900.0
0.16,0.17,4902.777777777777
0.19,0.145,4905.555555555556
0.23,0.115,4908.333333333333
0.235,0.08,4911.111111111111
0.22,0.045,4913.888888888889
0.21,0.03,4916.666666666667
0.185,0.015,4919.444444444444
0.165,0.015,4922.222222222223
0.155,0.01,4925.0
0.16,0.005,4927.777777777777
0.165,0.005,4930.555555555556
0.18,-0.005,4933.333333333333
0.19,-0.03,4936.111111111111
0.17,-0.05,4938.888888888889
0.16,-0.08,4941.666666666667
0.13,-0.11,4944.444444444444
0.09,-0.115,4947.222222222223
0.06,-0.12,4950.0
0.025,-0.11,4952.777777777777
-0.005,-0.095,4955.555555555556
-0.04,-0.07,4958.333333333333
-0.055,-0.045,4961.111111111111
-0.06,-0.025,4963.888888888889
-0.065,-0.02,4966.666666666667
-0.095,-0.035,4969.444444444444
-0.095,-0.02,4972.222222222223
-0.105,-0.035,4975.0
-0.13,-0.03,4977.777777777777
-0.145,-0.05,4980.555555555556
-0.155,-0.045,4983.333333333333
-0.15,-0.06,4986.111111111111
-0.155,-0.06,4988.888888888889
-0.145,-0.055,4991.666666666667
-0.12,-0.055,4994.444444444444
-0.125,-0.05,4997.222222222223
-0.12,-0.045,5000.0
-0.11,-0.04,5002.777777777777
-0.105,-0.035,5005.555555555556
-0.1,-0.05,5008.333333333333
-0.1,-0.05,5011.111111111111
-0.11,-0.04,5013.888888888889
-0.09,-0.005,5016.666666666667
-0.065,0.05,5019.444444444444
-0.02,0.11,5022.222222222223
0.085,0.14,5025.0
0.24,0.13,5027.777777777777
0.43,0.055,5030.555555555556
0.625,-0.07,5033.333333333333
0.835,-0.245,5036.111111111111
1.01,-0.46,5038.888888888889
1.175,-0.735,5041.666666666667
1.33,-1.06,5044.444444444444
1.465,-1.42,5047.222222222223
1.57,-1.795,5050.0
1.625,-2.115,5052.777777777777
1.635,-2.32,5055.555555555556
1.575,-2.39,5058.333333333333
1.47,-2.35,5061.111111111111
1.32,-2.24,5063.888888888889
1.095,-2.085,5066.666666666667
0.835,-1.895,5069.444444444444
0.555,-1.655,5072.222222222223
0.335,-1.4,5075.0
0.14,-1.125,5077.777777777777
0.04,-0.885,5080.555555555556
-0.05,-0.705,5083.333333333333
-0.085,-0.575,5086.111111111111
-0.105,-0.48,5088.888888888889
-0.13,-0.39,5091.666666666667
-0.155,-0.31,5094.444444444444
-0.19,-0.22,5097.222222222223
-0.22,-0.14,5100.0
-0.245,-0.075,5102.777777777777
-0.255,-0.035,5105.555555555556
-0.27,-0.01,5108.333333333333
-0.28,-0.005,5111.111111111111
-0.285,0.0,5113.888888888889
-0.295,0.01,5116.666666666667
-0.295,0.02,5119.444444444444
-0.295,0.025,5122.222222222223
-0.295,0.05,5125.0
-0.295,0.075,5127.777777777777
-0.285,0.095,5130.555555555556
-0.29,0.1,5133.333333333333
-0.285,0.105,5136.111111111111
-0.29,0.11,5138.888888888889
-0.29,0.115,5141.666666666667
-0.3,0.105,5144.444444444444
-0.305,0.125,5147.222222222223
-0.32,0.12,5150.0
-0.315,0.125,5152.777777777777
-0.32,0.14,5155.555555555556
-0.305,0.155,5158.333333333333
-0.315,0.17,5161.111111111111
-0.305,0.18,5163.888888888889
-0.31,0.185,5166.666666666667
-0.315,0.18,5169.444444444444
-0.315,0.19,5172.222222222223
-0.31,0.195,5175.0
-0.33,0.195,5177.777777777777
-0.335,0.195,5180.555555555556
-0.34,0.205,5183.333333333333
-0.35,0.22,5186.111111111111
-0.355,0.23,5188.888888888889
-0.36,0.24,5191.666666666667
-0.365,0.25,5194.444444444444
-0.37,0.27,5197.222222222223
-0.365,0.27,5200.0
-0.355,0.29,5202.777777777777
-0.36,0.295,5205.555555555556
-0.38,0.295,5208.333333333333
-0.4,0.295,5211.111111111111
-0.41,0.3,5213.888888888889
-0.435,0.29,5216.666666666667
-0.465,0.305,5219.444444444444
-0.47,0.315,5222.222222222223
-0.475,0.33,5225.0
-0.49,0.345,5227.777777777777
-0.495,0.365,5230.555555555556
-0.5,0.39,5233.333333333333
-0.51,0.39,5236.111111111111
-0.52,0.385,5238.888888888889
-0.535,0.39,5241.666666666667
-0.55,0.395,5244.444444444444
-0.56,0.39,5247.222222222223
-0.575,0.39,5250.0
-0.59,0.405,5252.777777777777
-0.605,0.42,5255.555555555556
-0.605,0.425,5258.333333333333
-0.62,0.45,5261.111111111111
-0.625,0.44,5263.888888888889
-0.61,0.45,5266.666666666667
-0.585,0.44,5269.444444444444
-0.58,0.435,5272.222222222223
-0.58,0.425,5275.0
-0.57,0.425,5277.777777777777
-0.565,0.41,5280.555555555556
-0.56,0.405,5283.333333333333
-0.55,0.39,5286.111111111111
-0.53,0.395,5288.888888888889
-0.51,0.375,5291.666666666667
-0.49,0.37,5294.444444444444
-0.47,0.365,5297.222222222223
-0.43,0.355,5300.0
-0.395,0.32,5302.777777777777
-0.385,0.305,5305.555555555556
-0.35,0.29,5308.333333333333
-0.335,0.265,5311.111111111111
-0.315,0.245,5313.888888888889
-0.305,0.205,5316.666666666667
-0.285,0.2,5319.444444444444
-0.255,0.17,5322.222222222223
-0.23,0.15,5325.0
-0.2,0.14,5327.777777777777
-0.175,0.135,5330.555555555556
-0.15,0.125,5333.333333333333
-0.13,0.105,5336.111111111111
-0.125,0.08,5338.888888888889
-0.1,0.065,5341.666666666667
-0.11,0.055,5344.444444444444
-0.11,0.035,5347.222222222223
-0.115,0.02,5350.0
-0.125,0.025,5352.777777777777
-0.115,0.02,5355.555555555556
-0.11,0.01,5358.333333333333
-0.095,0.015,5361.111111111111
-0.1,0.03,5363.888888888889
-0.09,0.03,5366.666666666667
-0.09,0.02,5369.444444444444
-0.08,0.015,5372.222222222223
-0.08,0.015,5375.0
-0.085,-0.005,5377.777777777777
-0.085,-0.02,5380.555555555556
-0.09,-0.025,5383.333333333333
-0.1,-0.01,5386.111111111111
-0.095,-0.015,5388.888888888889
-0.09,0.005,5391.666666666667
-0.085,0.02,5394.444444444444
-0.09,0.02,5397.222222222223
-0.08,0.025,5400.0
-0.09,0.01,5402.777777777777
-0.085,0.015,5405.555555555556
-0.095,-0.005,5408.333333333333
-0.1,0.0,5411.111111111111
-0.095,0.0,5413.888888888889
-0.095,0.0,5416.666666666667
-0.1,0.0,5419.444444444444
-0.1,0.005,5422.222222222223
-0.095,0.01,5425.0
-0.095,0.01,5427.777777777777
-0.095,0.02,5430.555555555556
-0.1,0.015,5433.333333333333
-0.08,0.02,5436.111111111111
-0.085,0.03,5438.888888888889
-0.08,0.02,5441.666666666667
-0.085,0.015,5444.444444444444
-0.09,0.015,5447.222222222223
-0.095,0.02,5450.0
-0.1,0.025,5452.777777777777
-0.09,0.025,5455.555555555556
-0.075,0.035,5458.333333333333
-0.06,0.03,5461.111111111111
-0.05,0.055,5463.888888888889
-0.045,0.075,5466.666666666667
-0.015,0.085,5469.444444444444
-0.005,0.11,5472.222222222223
0.02,0.135,5475.0
0.04,0.145,5477.777777777777
0.05,0.17,5480.555555555556
0.07,0.17,5483.333333333333
0.075,0.18,5486.111111111111
0.09,0.19,5488.888888888889
0.11,0.19,5491.666666666667
0.12,0.2,5494.444444444444
0.155,0.195,5497.222222222223
0.185,0.185,5500.0
0.235,0.155,5502.777777777777
0.24,0.12,5505.555555555556
0.255,0.06,5508.333333333333
0.245,0.03,5511.111111111111
0.225,0.005,5513.888888888889
0.195,-0.025,5516.666666666667
0.185,-0.03,5519.444444444444
0.165,-0.02,5522.222222222223
0.155,-0.02,5525.0
0.19,-0.02,5527.777777777777
0.19,-0.04,5530.555555555556
0.195,-0.06,5533.333333333333
0.18,-0.09,5536.111111111111
0.155,-0.1,5538.888888888889
0.125,-0.115,5541.666666666667
0.085,-0.115,5544.444444444444
0.05,-0.11,5547.222222222223
0.015,-0.085,5550.0
0.005,-0.06,5552.777777777777
-0.025,-0.05,5555.555555555556
-0.02,-0.04,5558.333333333333
-0.035,-0.04,5561.111111111111
-0.045,-0.035,5563.888888888889
-0.06,-0.045,5566.666666666667
-0.07,-0.04,5569.444444444444
-0.08,-0.035,5572.222222222223
-0.09,-0.035,5575.0
-0.1,-0.05,5577.777777777777
-0.105,-0.05,5580.555555555556
-0.105,-0.055,5583.333333333333
-0.11,-0.055,5586.111111111111
-0.1,-0.065,5588.888888888889
-0.1,-0.065,5591.666666666667
-0.085,-0.065,5594.444444444444
-0.075,-0.055,5597.222222222223
-0.065,-0.045,5600.0
-0.065,-0.04,5602.777777777777
-0.075,-0.035,5605.555555555556
-0.075,-0.045,5608.333333333333
-0.095,-0.04,5611.111111111111
-0.085,-0.02,5613.888888888889
-0.07,0.01,5616.666666666667
-0.04,0.06,5619.444444444444
0.025,0.1,5622.222222222223
0.155,0.125,5625.0
0.295,0.12,5627.777777777777
0.49,0.05,5630.555555555556
0.695,-0.085,5633.333333333333
0.9,-0.265,5636.111111111111
1.08,-0.49,5638.888888888889
1.255,-0.795,5641.666666666667
1.41,-1.155,5644.444444444444
1.515,-1.55,5647.222222222223
1.6,-1.925,5650.0
1.635,-2.21,5652.777777777777
1.61,-2.37,5655.555555555556
1.54,-2.4,5658.333333333333
1.415,-2.33,5661.111111111111
1.225,-2.21,5663.888888888889
1.015,-2.02,5666.666666666667
0.74,-1.815,5669.444444444444
0.485,-1.555,5672.222222222223
0.28,-1.29,5675.0
0.115,-1.05,5677.777777777777
0.025,-0.81,5680.555555555556
-0.03,-0.65,5683.333333333333
-0.08,-0.545,5686.111111111111
-0.085,-0.465,5688.888888888889
-0.095,-0.4,5691.666666666667
-0.125,-0.325,5694.444444444444
-0.15,-0.245,5697.222222222223
-0.185,-0.18,5700.0
-0.205,-0.12,5702.777777777777
-0.23,-0.065,5705.555555555556
-0.225,-0.035,5708.333333333333
-0.23,-0.02,5711.111111111111
-0.23,-0.015,5713.888888888889
-0.24,-0.02,5716.666666666667
-0.255,-0.01,5719.444444444444
-0.255,0.005,5722.222222222223
-0.26,0.01,5725.0
-0.26,0.025,5727.777777777777
-0.26,0.05,5730.555555555556
-0.255,0.065,5733.333333333333
-0.255,0.075,5736.111111111111
-0.25,0.08,5738.888888888889
-0.26,0.08,5741.666666666667
-0.265,0.09,5744.444444444444
-0.265,0.085,5747.222222222223
-0.26,0.075,5750.0
-0.28,0.09,5752.777777777777
-0.28,0.11,5755.555555555556
-0.285,0.12,5758.333333333333
-0.27,0.13,5761.111111111111
-0.26,0.145,5763.888888888889
-0.265,0.16,5766.666666666667
-0.26,0.155,5769.444444444444
-0.27,0.165,5772.222222222223
-0.28,0.165,5775.0
-0.29,0.17,5777.777777777777
-0.3,0.175,5780.555555555556
-0.305,0.17,5783.333333333333
-0.31,0.185,5786.111111111111
-0.325,0.195,5788.888888888889
-0.34,0.215,5791.666666666667
-0.34,0.24,5794.444444444444
-0.32,0.25,5797.222222222223
-0.325,0.255,5800.0
-0.325,0.26,5802.777777777777
-0.345,0.265,5805.555555555556
-0.345,0.27,5808.333333333333
-0.365,0.29,5811.111111111111
-0.375,0.3,5813.888888888889
-0.4,0.3,5816.666666666667
-0.41,0.315,5819.444444444444
-0.42,0.325,5822.222222222223
-0.435,0.345,5825.0
-0.445,0.355,5827.777777777777
-0.455,0.385,5830.555555555556
-0.46,0.405,5833.333333333333
-0.47,0.415,5836.111111111111
-0.475,0.41,5838.888888888889
-0.495,0.425,5841.666666666667
-0.5,0.41,5844.444444444444
-0.52,0.41,5847.222222222223
-0.525,0.41,5850.0
-0.54,0.42,5852.777777777777
-0.54,0.425,5855.555555555556
-0.56,0.435,5858.333333333333
-0.54,0.455,5861.111111111111
-0.525,0.46,5863.888888888889
-0.525,0.465,5866.666666666667
-0.515,0.47,5869.444444444444
-0.5,0.46,5872.222222222223
-0.49,0.44,5875.0
-0.49,0.435,5877.777777777777
-0.475,0.405,5880.555555555556
-0.465,0.385,5883.333333333333
-0.45,0.355,5886.111111111111
-0.44,0.35,5888.888888888889
-0.4,0.335,5891.666666666667
-0.375,0.325,5894.444444444444
-0.35,0.295,5897.222222222223
-0.32,0.28,5900.0
-0.3,0.23,5902.777777777777
-0.285,0.215,5905.555555555556
-0.27,0.185,5908.333333333333
-0.26,0.155,5911.111111111111
-0.26,0.12,5913.888888888889
-0.245,0.095,5916.666666666667
-0.245,0.075,5919.444444444444
-0.235,0.06,5922.222222222223
-0.215,0.06,5925.0
-0.205,0.05,5927.777777777777
-0.2,0.035,5930.555555555556
-0.19,0.025,5933.333333333333
-0.19,0.015,5936.111111111111
-0.18,0.01,5938.888888888889
-0.19,0.0,5941.666666666667
-0.185,-0.01,5944.444444444444
-0.19,-0.02,5947.222222222223
-0.205,-0.025,5950.0
-0.2,-0.045,5952.777777777777
-0.195,-0.03,5955.555555555556
-0.205,-0.03,5958.333333333333
-0.16,-0.03,5961.111111111111
-0.15,-0.015,5963.888888888889
-0.125,-0.01,5966.666666666667
-0.085,0.0,5969.444444444444
-0.065,-0.015,5972.222222222223
-0.02,-0.02,5975.0
0.03,-0.03,5977.777777777777
0.08,-0.05,5980.555555555556
0.14,-0.06,5983.333333333333
0.195,-0.065,5986.111111111111
0.28,-0.065,5988.888888888889
0.36,-0.055,5991.666666666667
0.48,-0.07,5994.444444444444
0.59,-0.08,5997.222222222223
0.68,-0.115,6000.0
0.7,-0.16,6002.777777777777
0.62,-0.245,6005.555555555556
0.39,-0.325,6008.333333333333
0.0,-0.415,6011.111111111111
-0.49,-0.485,6013.888888888889
-1.015,-0.515,6016.666666666667
-1.475,-0.515,6019.444444444444
-1.835,-0.515,6022.222222222223
-2.09,-0.52,6025.0
-2.24,-0.53,6027.777777777777
-2.345,-0.535,6030.555555555556
-2.4,-0.52,6033.333333333333
-2.445,-0.455,6036.111111111111
-2.455,-0.345,6038.888888888889
-2.445,-0.205,6041.666666666667
-2.43,-0.045,6044.444444444444
-2.39,0.135,6047.222222222223
-2.33,0.32,6050.0
-2.25,0.475,6052.777777777777
-2.13,0.63,6055.555555555556
-2.015,0.77,6058.333333333333
-1.89,0.885,6061.111111111111
-1.77,0.995,6063.888888888889
-1.67,1.055,6066.666666666667
-1.6,1.1,6069.444444444444
-1.545,1.135,6072.222222222223
-1.48,1.15,6075.0
-1.4,1.115,6077.777777777777
-1.28,1.025,6080.555555555556
-1.16,0.85,6083.333333333333
-1.04,0.605,6086.111111111111
-0.955,0.32,6088.888888888889
-0.89,0.03,6091.666666666667
-0.85,-0.23,6094.444444444444
-0.82,-0.425,6097.222222222223
-0.775,-0.55,6100.0
-0.715,-0.58,6102.777777777777
-0.615,-0.55,6105.555555555556
-0.47,-0.495,6108.333333333333
-0.305,-0.44,6111.111111111111
-0.155,-0.395,6113.888888888889
-0.015,-0.345,6116.666666666667
0.065,-0.305,6119.444444444444
0.105,-0.285,6122.222222222223
0.125,-0.24,6125.0
0.115,-0.22,6127.777777777777
0.095,-0.205,6130.555555555556
0.095,-0.195,6133.333333333333
0.11,-0.185,6136.111111111111
0.12,-0.18,6138.888888888889
0.145,-0.175,6141.666666666667
0.145,-0.175,6144.444444444444
0.16,-0.18,6147.222222222223
0.17,-0.175,6150.0
0.17,-0.185,6152.777777777777
0.185,-0.19,6155.555555555556
0.21,-0.185,6158.333333333333
0.215,-0.185,6161.111111111111
0.235,-0.165,6163.888888888889
0.255,-0.175,6166.666666666667
0.285,-0.175,6169.444444444444
0.295,-0.175,6172.222222222223
0.305,-0.195,6175.0
0.31,-0.205,6177.777777777777
0.315,-0.22,6180.555555555556
0.33,-0.215,6183.333333333333
0.345,-0.22,6186.111111111111
0.36,-0.205,6188.888888888889
0.385,-0.2,6191.666666666667
0.41,-0.2,6194.444444444444
0.43,-0.185,6197.222222222223
0.47,-0.195,6200.0
0.505,-0.2,6202.777777777777
0.5,-0.195,6205.555555555556
0.52,-0.21,6208.333333333333
0.55,-0.225,6211.111111111111
0.565,-0.22,6213.888888888889
0.57,-0.225,6216.666666666667
0.575,-0.23,6219.444444444444
0.6,-0.24,6222.222222222223
0.61,-0.25,6225.0
0.615,-0.245,6227.777777777777
0.635,-0.245,6230.555555555556
0.65,-0.255,6233.333333333333
0.65,-0.26,6236.111111111111
0.655,-0.26,6238.888888888889
0.645,-0.265,6241.666666666667
0.625,-0.28,6244.444444444444
0.6,-0.3,6247.222222222223
0.575,-0.305,6250.0
0.555,-0.315,6252.777777777777
0.535,-0.325,6255.555555555556
0.52,-0.33,6258.333333333333
0.505,-0.33,6261.111111111111
0.465,-0.325,6263.888888888889
0.435,-0.315,6266.666666666667
0.405,-0.32,6269.444444444444
0.36,-0.335,6272.222222222223
0.3,-0.33,6275.0
0.24,-0.345,6277.777777777777
0.2,-0.345,6280.555555555556
0.155,-0.335,6283.333333333333
0.12,-0.31,6286.111111111111
0.07,-0.305,6288.888888888889
0.04,-0.275,6291.666666666667
0.015,-0.26,6294.444444444444
-0.02,-0.235,6297.222222222223
-0.05,-0.23,6300.0
-0.085,-0.205,6302.777777777777
-0.12,-0.195,6305.555555555556
-0.16,-0.175,6308.333333333333
-0.19,-0.16,6311.111111111111
-0.22,-0.155,6313.888888888889
-0.26,-0.13,6316.666666666667
-0.305,-0.115,6319.444444444444
-0.335,-0.09,6322.222222222223
-0.36,-0.08,6325.0
-0.37,-0.065,6327.777777777777
-0.38,-0.05,6330.555555555556
-0.39,-0.035,6333.333333333333
-0.395,-0.02,6336.111111111111
-0.41,-0.03,6338.888888888889
-0.43,-0.035,6341.666666666667
-0.45,-0.035,6344.444444444444
-0.47,-0.025,6347.222222222223
-0.49,-0.01,6350.0
-0.51,-0.015,6352.777777777777
-0.515,-0.015,6355.555555555556
-0.515,-0.01,6358.333333333333
-0.505,-0.015,6361.111111111111
-0.515,-0.02,6363.888888888889
-0.52,-0.005,6366.666666666667
-0.51,-0.01,6369.444444444444
-0.525,-0.005,6372.222222222223
-0.525,0.0,6375.0
-0.54,0.0,6377.777777777777
-0.55,0.0,6380.555555555556
-0.565,-0.01,6383.333333333333
-0.57,-0.015,6386.111111111111
-0.57,-0.02,6388.888888888889
-0.585,-0.02,6391.666666666667
-0.575,-0.015,6394.444444444444
-0.56,0.0,6397.222222222223
-0.565,0.015,6400.0
-0.56,0.01,6402.777777777777
-0.565,0.015,6405.555555555556
-0.56,0.005,6408.333333333333
-0.57,0.005,6411.111111111111
-0.565,-0.02,6413.888888888889
-0.57,-0.035,6416.666666666667
-0.58,-0.035,6419.444444444444
-0.58,-0.035,6422.222222222223
-0.6,-0.025,6425.0
-0.6,0.01,6427.777777777777
-0.625,0.015,6430.555555555556
-0.625,0.03,6433.333333333333
-0.62,0.025,6436.111111111111
-0.625,-0.005,6438.888888888889
-0.61,-0.005,6441.666666666667
-0.62,-0.025,6444.444444444444
-0.63,-0.03,6447.222222222223
-0.635,-0.035,6450.0
-0.665,-0.02,6452.777777777777
-0.675,0.005,6455.555555555556
-0.675,0.01,6458.333333333333
-0.67,0.035,6461.111111111111
-0.67,0.045,6463.888888888889
-0.67,0.035,6466.666666666667
-0.655,0.015,6469.444444444444
-0.66,0.01,6472.222222222223
-0.675,0.0,6475.0
-0.69,0.005,6477.777777777777
-0.685,-0.01,6480.555555555556
-0.695,0.0,6483.333333333333
-0.69,-0.005,6486.111111111111
-0.695,0.005,6488.888888888889
-0.695,0.0,6491.666666666667
-0.685,0.005,6494.444444444444
-0.695,-0.015,6497.222222222223
-0.685,-0.015,6500.0
-0.69,-0.015,6502.777777777777
-0.705,-0.025,6505.555555555556
-0.705,-0.025,6508.333333333333
-0.72,-0.02,6511.111111111111
-0.725,-0.01,6513.888888888889
-0.735,-0.02,6516.666666666667
-0.75,-0.015,6519.444444444444
-0.74,0.0,6522.222222222223
-0.735,-0.015,6525.0
-0.72,0.015,6527.777777777777
-0.705,0.0,6530.555555555556
-0.69,-0.01,6533.333333333333
-0.685,-0.01,6536.111111111111
-0.71,-0.01,6538.888888888889
-0.725,-0.005,6541.666666666667
-0.74,-0.01,6544.444444444444
-0.755,-0.015,6547.222222222223
-0.765,-0.045,6550.0
-0.765,-0.08,6552.777777777777
-0.765,-0.08,6555.555555555556
-0.77,-0.065,6558.333333333333
-0.765,-0.02,6561.111111111111
-0.77,0.02,6563.888888888889
-0.77,0.045,6566.666666666667
-0.78,0.03,6569.444444444444
-0.785,0.005,6572.222222222223
-0.8,-0.02,6575.0
-0.8,-0.03,6577.777777777777
-0.795,-0.04,6580.555555555556
-0.805,-0.055,6583.333333333333
-0.8,-0.05,6586.111111111111
-0.785,-0.03,6588.888888888889
-0.795,-0.015,6591.666666666667
-0.79,0.005,6594.444444444444
-0.785,0.015,6597.222222222223
-0.79,0.03,6600.0
-0.795,0.03,6602.777777777777
-0.795,0.035,6605.555555555556
-0.78,0.005,6608.333333333333
-0.78,0.0,6611.111111111111
-0.785,0.005,6613.888888888889
-0.79,0.015,6616.666666666667
-0.81,0.015,6619.444444444444
-0.825,0.015,6622.222222222223
-0.83,0.0,6625.0
-0.825,0.01,6627.777777777777
-0.8,0.025,6630.555555555556
-0.78,0.065,6633.333333333333
-0.735,0.105,6636.111111111111
-0.715,0.16,6638.888888888889
-0.715,0.205,6641.666666666667
-0.725,0.22,6644.444444444444
-0.73,0.235,6647.222222222223
-0.73,0.215,6650.0
-0.725,0.215,6652.777777777777
-0.705,0.2,6655.555555555556
-0.665,0.205,6658.333333333333
-0.645,0.21,6661.111111111111
-0.61,0.195,6663.888888888889
-0.58,0.17,6666.666666666667
-0.575,0.15,6669.444444444444
-0.555,0.13,6672.222222222223
-0.565,0.12,6675.0
-0.585,0.09,6677.777777777777
-0.585,0.07,6680.555555555556
-0.585,0.06,6683.333333333333
-0.59,0.035,6686.111111111111
-0.58,0.03,6688.888888888889
-0.59,0.015,6691.666666666667
-0.605,0.01,6694.444444444444
-0.655,0.005,6697.222222222223
-0.675,-0.005,6700.0
-0.72,-0.015,6702.777777777777
-0.76,-0.015,6705.555555555556
-0.8,-0.015,6708.333333333333
-0.84,0.015,6711.111111111111
-0.855,0.04,6713.888888888889
-0.865,0.065,6716.666666666667
-0.89,0.055,6719.444444444444
-0.9,0.04,6722.222222222223
-0.905,0.025,6725.0
-0.905,0.01,6727.777777777777
-0.905,0.02,6730.555555555556
-0.905,0.01,6733.333333333333
-0.9,0.01,6736.111111111111
-0.91,0.02,6738.888888888889
-0.92,0.005,6741.666666666667
-0.935,0.005,6744.444444444444
-0.945,0.005,6747.222222222223
-0.96,0.005,6750.0
-0.94,0.005,6752.777777777777
-0.94,0.02,6755.555555555556
-0.94,0.02,6758.333333333333
-0.93,0.02,6761.111111111111
-0.93,0.05,6763.888888888889
-0.91,0.09,6766.666666666667
-0.87,0.13,6769.444444444444
-0.84,0.16,6772.222222222223
-0.72,0.18,6775.0
-0.565,0.17,6777.777777777777
-0.36,0.11,6780.555555555556
-0.125,0.04,6783.333333333333
0.095,-0.095,6786.111111111111
0.32,-0.28,6788.888888888889
0.52,-0.495,6791.666666666667
0.705,-0.76,6794.444444444444
0.87,-1.06,6797.222222222223
1.005,-1.385,6800.0
1.08,-1.67,6802.777777777777
1.09,-1.855,6805.555555555556
1.025,-1.955,6808.333333333333
0.85,-1.96,6811.111111111111
0.595,-1.86,6813.888888888889
0.26,-1.725,6816.666666666667
-0.115,-1.505,6819.444444444444
-0.465,-1.28,6822.222222222223
-0.72,-1.045,6825.0
-0.87,-0.82,6827.777777777777
-0.92,-0.625,6830.555555555556
-0.91,-0.485,6833.333333333333
-0.89,-0.385,6836.111111111111
-0.885,-0.315,6838.888888888889
-0.89,-0.25,6841.666666666667
-0.93,-0.19,6844.444444444444
-0.975,-0.125,6847.222222222223
-1.03,-0.07,6850.0
-1.065,-0.015,6852.777777777777
-1.075,0.01,6855.555555555556
-1.08,0.05,6858.333333333333
-1.08,0.075,6861.111111111111
-1.08,0.1,6863.888888888889
-1.065,0.105,6866.666666666667
-1.055,0.125,6869.444444444444
-1.07,0.135,6872.222222222223
-1.07,0.145,6875.0
-1.09,0.15,6877.777777777777
-1.12,0.135,6880.555555555556
-1.125,0.13,6883.333333333333
-1.135,0.135,6886.111111111111
-1.125,0.155,6888.888888888889
-1.12,0.165,6891.666666666667
-1.11,0.185,6894.444444444444
-1.105,0.2,6897.222222222223
-1.11,0.215,6900.0
-1.1,0.205,6902.777777777777
-1.1,0.215,6905.555555555556
-1.105,0.21,6908.333333333333
-1.115,0.195,6911.111111111111
-1.125,0.205,6913.888888888889
-1.135,0.205,6916.666666666667
-1.145,0.22,6919.444444444444
-1.145,0.23,6922.222222222223
-1.125,0.245,6925.0
-1.13,0.24,6927.777777777777
-1.105,0.26,6930.555555555556
-1.105,0.255,6933.333333333333
-1.12,0.255,6936.111111111111
-1.125,0.255,6938.888888888889
-1.13,0.26,6941.666666666667
-1.14,0.26,6944.444444444444
-1.16,0.27,6947.222222222223
-1.16,0.285,6950.0
-1.195,0.31,6952.777777777777
-1.18,0.295,6955.555555555556
-1.19,0.31,6958.333333333333
-1.19,0.325,6961.111111111111
-1.195,0.325,6963.888888888889
-1.195,0.345,6966.666666666667
-1.195,0.355,6969.444444444444
-1.205,0.355,6972.222222222223
-1.225,0.36,6975.0
-1.245,0.355,6977.777777777777
-1.255,0.36,6980.555555555556
-1.27,0.365,6983.333333333333
-1.305,0.365,6986.111111111111
-1.3,0.38,6988.888888888889
-1.32,0.395,6991.666666666667
-1.325,0.405,6994.444444444444
-1.32,0.425,6997.222222222223
-1.325,0.435,7000.0
-1.34,0.45,7002.777777777777
-1.35,0.45,7005.555555555556
-1.38,0.45,7008.333333333333
-1.38,0.44,7011.111111111111
-1.39,0.445,7013.888888888889
-1.41,0.43,7016.666666666667
-1.42,0.44,7019.444444444444
-1.425,0.435,7022.222222222223
-1.435,0.46,7025.0
-1.435,0.47,7027.777777777777
-1.43,0.49,7030.555555555556
-1.425,0.5,7033.333333333333
-1.425,0.495,7036.111111111111
-1.425,0.5,7038.888888888889
-1.42,0.485,7041.666666666667
-1.415,0.46,7044.444444444444
-1.395,0.45,7047.222222222223
-1.385,0.44,7050.0
-1.37,0.435,7052.777777777777
-1.345,0.435,7055.555555555556
-1.34,0.44,7058.333333333333
-1.31,0.44,7061.111111111111
-1.28,0.43,7063.888888888889
-1.25,0.42,7066.666666666667
-1.22,0.395,7069.444444444444
-1.19,0.375,7072.222222222223
-1.155,0.355,7075.0
-1.13,0.325,7077.777777777777
-1.1,0.31,7080.555555555556
-1.08,0.29,7083.333333333333
-1.06,0.275,7086.111111111111
-1.03,0.255,7088.888888888889
-1.01,0.25,7091.666666666667
-0.98,0.235,7094.444444444444
-0.95,0.22,7097.222222222223
-0.94,0.205,7100.0
-0.9,0.205,7102.777777777777
-0.905,0.195,7105.555555555556
-0.88,0.175,7108.333333333333
-0.855,0.175,7111.111111111111
-0.865,0.165,7113.888888888889
-0.87,0.15,7116.666666666667
-0.88,0.14,7119.444444444444
-0.87,0.14,7122.222222222223
-0.86,0.145,7125.0
-0.865,0.15,7127.777777777777
-0.855,0.155,7130.555555555556
-0.855,0.165,7133.333333333333
-0.845,0.16,7136.111111111111
-0.86,0.155,7138.888888888889
-0.86,0.14,7141.666666666667
-0.86,0.14,7144.444444444444
-0.845,0.145,7147.222222222223
-0.855,0.125,7150.0
-0.855,0.135,7152.777777777777
-0.855,0.13,7155.555555555556
-0.855,0.14,7158.333333333333
-0.845,0.155,7161.111111111111
-0.84,0.165,7163.888888888889
-0.83,0.175,7166.666666666667
-0.815,0.165,7169.444444444444
-0.805,0.16,7172.222222222223
-0.8,0.14,7175.0
-0.8,0.14,7177.777777777777
-0.82,0.12,7180.555555555556
-0.83,0.135,7183.333333333333
-0.845,0.155,7186.111111111111
-0.84,0.165,7188.888888888889
-0.835,0.175,7191.666666666667
-0.83,0.195,7194.444444444444
-0.825,0.19,7197.222222222223
-0.815,0.18,7200.0
-0.825,0.175,7202.777777777777
-0.805,0.165,7205.555555555556
-0.795,0.17,7208.333333333333
-0.805,0.175,7211.111111111111
-0.8,0.17,7213.888888888889
-0.805,0.175,7216.666666666667
-0.8,0.175,7219.444444444444
-0.795,0.185,7222.222222222223
-0.79,0.19,7225.0
-0.78,0.185,7227.777777777777
-0.76,0.19,7230.555555555556
-0.75,0.2,7233.333333333333
-0.745,0.225,7236.111111111111
-0.73,0.23,7238.888888888889
-0.715,0.27,7241.666666666667
-0.695,0.285,7244.444444444444
-0.685,0.285,7247.222222222223
-0.675,0.3,7250.0
-0.665,0.3,7252.777777777777
-0.645,0.295,7255.555555555556
-0.65,0.3,7258.333333333333
-0.635,0.305,7261.111111111111
-0.61,0.315,7263.888888888889
-0.585,0.33,7266.666666666667
-0.545,0.325,7269.444444444444
-0.51,0.285,7272.222222222223
-0.485,0.26,7275.0
-0.47,0.23,7277.777777777777
-0.475,0.185,7280.555555555556
-0.48,0.155,7283.333333333333
-0.505,0.125,7286.111111111111
-0.52,0.13,7288.888888888889
-0.525,0.15,7291.666666666667
-0.515,0.155,7294.444444444444
-0.51,0.165,7297.222222222223
-0.5,0.155,7300.0
-0.49,0.14,7302.777777777777
-0.495,0.12,7305.555555555556
-0.505,0.095,7308.333333333333
-0.545,0.07,7311.111111111111
-0.58,0.045,7313.888888888889
-0.605,0.04,7316.666666666667
-0.64,0.05,7319.444444444444
-0.655,0.07,7322.222222222223
-0.665,0.085,7325.0
-0.685,0.125,7327.777777777777
-0.695,0.135,7330.555555555556
-0.7,0.14,7333.333333333333
-0.72,0.13,7336.111111111111
-0.73,0.13,7338.888888888889
-0.745,0.12,7341.666666666667
-0.75,0.105,7344.444444444444
-0.765,0.1,7347.222222222223
-0.77,0.1,7350.0
-0.77,0.1,7352.777777777777
-0.765,0.105,7355.555555555556
-0.765,0.11,7358.333333333333
-0.76,0.11,7361.111111111111
-0.755,0.105,7363.888888888889
-0.75,0.105,7366.666666666667
-0.74,0.1,7369.444444444444
-0.735,0.11,7372.222222222223
-0.72,0.11,7375.0
-0.72,0.11,7377.777777777777
-0.72,0.12,7380.555555555556
-0.73,0.14,7383.333333333333
-0.705,0.185,7386.111111111111
-0.645,0.215,7388.888888888889
-0.56,0.26,7391.666666666667
-0.41,0.27,7394.444444444444
-0.215,0.235,7397.222222222223
0.01,0.155,7400.0
0.265,0.035,7402.777777777777
0.48,-0.155,7405.555555555556
0.695,-0.4,7408.333333333333
0.885,-0.72,7411.111111111111
1.05,-1.065,7413.888888888889
1.18,-1.44,7416.666666666667
1.265,-1.76,7419.444444444444
1.28,-1.96,7422.222222222223
1.21,-2.055,7425.0
1.07,-2.025,7427.777777777777
0.85,-1.91,7430.555555555556
0.535,-1.73,7433.333333333333
0.175,-1.515,7436.111111111111
-0.19,-1.27,7438.888888888889
-0.44,-1.015,7441.666666666667
-0.62,-0.795,7444.444444444444
-0.71,-0.6,7447.222222222223
-0.745,-0.47,7450.0
-0.725,-0.36,7452.777777777777
-0.72,-0.28,7455.555555555556
-0.725,-0.2,7458.333333333333
-0.74,-0.12,7461.111111111111
-0.77,-0.035,7463.888888888889
-0.785,0.035,7466.666666666667
-0.815,0.09,7469.444444444444
-0.82,0.135,7472.222222222223
-0.815,0.135,7475.0
-0.82,0.14,7477.777777777777
-0.83,0.145,7480.555555555556
-0.835,0.165,7483.333333333333
-0.85,0.165,7486.111111111111
-0.845,0.165,7488.888888888889
-0.85,0.185,7491.666666666667
-0.84,0.2,7494.444444444444
-0.835,0.21,7497.222222222223
-0.82,0.215,7500.0
-0.815,0.23,7502.777777777777
-0.825,0.24,7505.555555555556
-0.835,0.23,7508.333333333333
-0.835,0.235,7511.111111111111
-0.84,0.235,7513.888888888889
-0.845,0.23,7516.666666666667
-0.855,0.235,7519.444444444444
-0.845,0.245,7522.222222222223
-0.84,0.25,7525.0
-0.855,0.27,7527.777777777777
-0.85,0.29,7530.555555555556
-0.845,0.295,7533.333333333333
-0.845,0.315,7536.111111111111
-0.835,0.295,7538.888888888889
-0.85,0.295,7541.666666666667
-0.865,0.29,7544.444444444444
-0.85,0.3,7547.222222222223
-0.86,0.315,7550.0
-0.865,0.325,7552.777777777777
-0.875,0.34,7555.555555555556
-0.865,0.345,7558.333333333333
-0.855,0.365,7561.111111111111
-0.855,0.375,7563.888888888889
-0.855,0.385,7566.666666666667
-0.875,0.39,7569.444444444444
-0.875,0.4,7572.222222222223
-0.9,0.415,7575.0
-0.905,0.415,7577.777777777777
-0.915,0.43,7580.555555555556
-0.93,0.435,7583.333333333333
-0.955,0.435,7586.111111111111
-0.945,0.435,7588.888888888889
-0.96,0.45,7591.666666666667
-0.96,0.465,7594.444444444444
-0.97,0.475,7597.222222222223
-0.965,0.495,7600.0
-0.975,0.515,7602.777777777777
-0.965,0.505,7605.555555555556
-0.98,0.515,7608.333333333333
-0.99,0.52,7611.111111111111
-1.01,0.52,7613.888888888889
-1.025,0.535,7616.666666666667
-1.025,0.525,7619.444444444444
-1.015,0.515,7622.222222222223
-1.005,0.54,7625.0
-1.0,0.55,7627.777777777777
-1.0,0.565,7630.555555555556
-0.99,0.565,7633.333333333333
-0.98,0.575,7636.111111111111
-0.97,0.56,7638.888888888889
-0.955,0.54,7641.666666666667
-0.945,0.515,7644.444444444444
-0.94,0.505,7647.222222222223
-0.915,0.49,7650.0
-0.905,0.48,7652.777777777777
-0.87,0.45,7655.555555555556
-0.845,0.455,7658.333333333333
-0.81,0.44,7661.111111111111
-0.785,0.415,7663.888888888889
-0.75,0.395,7666.666666666667
-0.72,0.37,7669.444444444444
-0.7,0.345,7672.222222222223
-0.69,0.315,7675.0
-0.68,0.3,7677.777777777777
-0.665,0.27,7680.555555555556
-0.665,0.255,7683.333333333333
-0.65,0.24,7686.111111111111
-0.64,0.23,7688.888888888889
-0.63,0.22,7691.666666666667
-0.62,0.22,7694.444444444444
-0.605,0.21,7697.222222222223
-0.6,0.2,7700.0
-0.585,0.18,7702.777777777777
-0.59,0.18,7705.555555555556
-0.595,0.16,7708.333333333333
-0.585,0.17,7711.111111111111
-0.6,0.16,7713.888888888889
-0.605,0.155,7716.666666666667
-0.6,0.155,7719.444444444444
-0.6,0.145,7722.222222222223
-0.58,0.15,7725.0
-0.575,0.13,7727.777777777777
-0.585,0.145,7730.555555555556
-0.565,0.155,7733.333333333333
-0.58,0.155,7736.111111111111
-0.575,0.165,7738.888888888889
-0.56,0.16,7741.666666666667
-0.57,0.15,7744.444444444444
-0.575,0.14,7747.222222222223
-0.58,0.13,7750.0
-0.575,0.11,7752.777777777777
-0.58,0.125,7755.555555555556
-0.575,0.135,7758.333333333333
-0.58,0.145,7761.111111111111
-0.575,0.16,7763.888888888889
-0.555,0.17,7766.666666666667
-0.55,0.165,7769.444444444444
-0.545,0.155,7772.222222222223
-0.535,0.15,7775.0
-0.545,0.135,7777.777777777777
-0.545,0.12,7780.555555555556
-0.55,0.12,7783.333333333333
-0.555,0.125,7786.111111111111
-0.555,0.13,7788.888888888889
-0.545,0.13,7791.666666666667
-0.555,0.14,7794.444444444444
-0.545,0.15,7797.222222222223
-0.535,0.16,7800.0
-0.53,0.165,7802.777777777777
-0.51,0.15,7805.555555555556
-0.515,0.15,7808.333333333333
-0.52,0.14,7811.111111111111
-0.515,0.14,7813.888888888889
-0.51,0.145,7816.666666666667
-0.51,0.155,7819.444444444444
-0.5,0.18,7822.222222222223
-0.495,0.185,7825.0
-0.465,0.205,7827.777777777777
-0.44,0.235,7830.555555555556
-0.415,0.265,7833.333333333333
-0.39,0.29,7836.111111111111
-0.38,0.31,7838.888888888889
-0.37,0.305,7841.666666666667
-0.365,0.305,7844.444444444444
-0.355,0.3,7847.222222222223
-0.34,0.29,7850.0
-0.31,0.28,7852.777777777777
-0.285,0.26,7855.555555555556
-0.24,0.23,7858.333333333333
-0.215,0.23,7861.111111111111
-0.2,0.195,7863.888888888889
-0.19,0.19,7866.666666666667
-0.2,0.15,7869.444444444444
-0.215,0.13,7872.222222222223
-0.225,0.135,7875.0
-0.235,0.11,7877.777777777777
-0.25,0.12,7880.555555555556
-0.24,0.105,7883.333333333333
-0.23,0.115,7886.111111111111
-0.22,0.09,7888.888888888889
-0.22,0.075,7891.666666666667
-0.23,0.055,7894.444444444444
-0.25,0.06,7897.222222222223
-0.285,0.055,7900.0
-0.315,0.055,7902.777777777777
-0.35,0.06,7905.555555555556
-0.38,0.08,7908.333333333333
-0.395,0.09,7911.111111111111
-0.41,0.095,7913.888888888889
-0.425,0.085,7916.666666666667
-0.43,0.08,7919.444444444444
-0.44,0.07,7922.222222222223
-0.435,0.085,7925.0
-0.445,0.095,7927.777777777777
-0.45,0.105,7930.555555555556
-0.45,0.11,7933.333333333333
-0.455,0.11,7936.111111111111
-0.455,0.1,7938.888888888889
-0.445,0.085,7941.666666666667
-0.455,0.075,7944.444444444444
-0.455,0.075,7947.222222222223
-0.465,0.065,7950.0
-0.465,0.07,7952.777777777777
-0.455,0.065,7955.555555555556
-0.445,0.07,7958.333333333333
-0.445,0.075,7961.111111111111
-0.435,0.065,7963.888888888889
-0.435,0.09,7966.666666666667
-0.42,0.095,7969.444444444444
-0.41,0.115,7972.222222222223
-0.39,0.15,7975.0
-0.35,0.2,7977.777777777777
-0.29,0.22,7980.555555555556
-0.17,0.25,7983.333333333333
-0.02,0.23,7986.111111111111
0.19,0.16,7988.888888888889
0.4,0.035,7991.666666666667
0.63,-0.085,7994.444444444444
0.82,-0.295,7997.222222222223
1.02,-0.545,8000.0
1.2,-0.84,8002.777777777777
1.355,-1.185,8005.555555555556
1.485,-1.535,8008.333333333333
1.56,-1.82,8011.111111111111
1.575,-2.02,8013.888888888889
1.515,-2.09,8016.666666666667
1.4,-2.07,8019.444444444444
1.225,-1.975,8022.222222222223
0.975,-1.83,8025.0
0.66,-1.64,8027.777777777777
0.325,-1.43,8030.555555555556
0.055,-1.19,8033.333333333333
-0.165,-0.95,8036.111111111111
-0.3,-0.745,8038.888888888889
-0.35,-0.605,8041.666666666667
-0.37,-0.475,8044.444444444444
-0.38,-0.39,8047.222222222223
-0.385,-0.31,8050.0
-0.39,-0.24,8052.777777777777
-0.425,-0.175,8055.555555555556
-0.46,-0.1,8058.333333333333
-0.52,-0.025,8061.111111111111
-0.525,0.035,8063.888888888889
-0.515,0.075,8066.666666666667
-0.515,0.1,8069.444444444444
-0.52,0.105,8072.222222222223
-0.52,0.12,8075.0
-0.515,0.11,8077.777777777777
-0.53,0.095,8080.555555555556
-0.545,0.125,8083.333333333333
-0.555,0.125,8086.111111111111
-0.555,0.135,8088.888888888889
-0.555,0.15,8091.666666666667
-0.535,0.17,8094.444444444444
-0.525,0.185,8097.222222222223
-0.51,0.195,8100.0
-0.515,0.195,8102.777777777777
-0.535,0.195,8105.555555555556
-0.525,0.195,8108.333333333333
-0.53,0.195,8111.111111111111
-0.535,0.195,8113.888888888889
-0.535,0.195,8116.666666666667
-0.54,0.205,8119.444444444444
-0.535,0.205,8122.222222222223
-0.525,0.215,8125.0
-0.52,0.235,8127.777777777777
-0.53,0.24,8130.555555555556
-0.535,0.25,8133.333333333333
-0.53,0.25,8136.111111111111
-0.535,0.25,8138.888888888889
-0.55,0.26,8141.666666666667
-0.545,0.265,8144.444444444444
-0.555,0.25,8147.222222222223
-0.565,0.255,8150.0
-0.565,0.27,8152.777777777777
-0.565,0.285,8155.555555555556
-0.565,0.29,8158.333333333333
-0.56,0.3,8161.111111111111
-0.565,0.315,8163.888888888889
-0.56,0.335,8166.666666666667
-0.57,0.33,8169.444444444444
-0.57,0.35,8172.222222222223
-0.575,0.365,8175.0
-0.59,0.36,8177.777777777777
-0.6,0.355,8180.555555555556
-0.625,0.355,8183.333333333333
-0.64,0.365,8186.111111111111
-0.645,0.375,8188.888888888889
-0.655,0.395,8191.666666666667
-0.665,0.405,8194.444444444445
-0.67,0.44,8197.222222222223
-0.67,0.455,8200.0
-0.665,0.47,8202.777777777777
-0.68,0.46,8205.555555555555
-0.69,0.465,8208.333333333334
-0.7,0.465,8211.111111111111
-0.715,0.455,8213.888888888889
-0.73,0.47,8216.666666666666
-0.745,0.465,8219.444444444445
-0.755,0.48,8222.222222222223
-0.76,0.505,8225.0
-0.76,0.51,8227.777777777777
-0.745,0.51,8230.555555555555
-0.735,0.52,8233.333333333334
-0.73,0.515,8236.111111111111
-0.72,0.505,8238.888888888889
-0.705,0.495,8241.666666666666
-0.69,0.48,8244.444444444445
-0.68,0.47,8247.222222222223
-0.68,0.45,8250.0
-0.66,0.435,8252.777777777777
-0.635,0.435,8255.555555555555
-0.605,0.415,8258.333333333334
-0.575,0.395,8261.111111111111
-0.545,0.38,8263.888888888889
-0.52,0.365,8266.666666666666
-0.495,0.345,8269.444444444445
-0.47,0.31,8272.222222222223
-0.45,0.29,8275.0
-0.425,0.255,8277.777777777777
-0.41,0.23,8280.555555555555
-0.4,0.225,8283.333333333334
-0.39,0.2,8286.111111111111
-0.365,0.175,8288.888888888889
-0.345,0.165,8291.666666666666
-0.32,0.15,8294.444444444445
-0.31,0.13,8297.222222222223
-0.285,0.135,8300.0
-0.265,0.115,8302.777777777777
-0.28,0.11,8305.555555555555
-0.27,0.1,8308.333333333334
-0.265,0.09,8311.111111111111
-0.28,0.08,8313.888888888889
-0.29,0.055,8316.666666666666
-0.275,0.045,8319.444444444445
-0.265,0.05,8322.222222222223
-0.25,0.05,8325.0
-0.23,0.065,8327.777777777777
-0.205,0.075,8330.555555555555
-0.18,0.085,8333.333333333334
-0.135,0.065,8336.111111111111
-0.1,0.065,8338.888888888889
-0.06,0.07,8341.666666666666
-0.02,0.04,8344.444444444445
0.025,0.025,8347.222222222223
0.075,0.03,8350.0
0.14,0.005,8352.777777777777
0.215,0.015,8355.555555555555
0.3,0.005,8358.333333333334
0.405,0.0,8361.111111111111
0.52,0.0,8363.888888888889
0.615,0.0,8366.666666666666
0.695,-0.02,8369.444444444445
0.705,-0.07,8372.222222222223
0.625,-0.115,8375.0
0.445,-0.185,8377.777777777777
0.145,-0.26,8380.555555555555
-0.23,-0.31,8383.333333333334
-0.63,-0.35,8386.111111111111
-0.985,-0.355,8388.888888888889
-1.3,-0.36,8391.666666666666
-1.525,-0.33,8394.444444444445
-1.675,-0.36,8397.222222222223
-1.795,-0.37,8400.0
-1.885,-0.39,8402.777777777777
-1.97,-0.395,8405.555555555555
-2.05,-0.38,8408.333333333334
-2.125,-0.31,8411.111111111111
-2.175,-0.21,8413.888888888889
-2.19,-0.075,8416.666666666666
-2.175,0.09,8419.444444444445
-2.125,0.23,8422.222222222223
-2.035,0.385,8425.0
-1.96,0.52,8427.777777777777
-1.87,0.635,8430.555555555555
-1.765,0.745,8433.333333333334
-1.65,0.835,8436.111111111111
-1.555,0.89,8438.888888888889
-1.46,0.96,8441.666666666666
-1.4,0.99,8444.444444444445
-1.34,1.01,8447.222222222223
-1.27,1.025,8450.0
-1.195,1.015,8452.777777777777
-1.085,0.94,8455.555555555555
-0.94,0.8,8458.333333333334
-0.805,0.59,8461.111111111111
-0.695,0.325,8463.888888888889
-0.605,0.055,8466.666666666666
-0.555,-0.175,8469.444444444445
-0.525,-0.34,8472.222222222223
-0.5,-0.41,8475.0
-0.445,-0.435,8477.777777777777
-0.36,-0.38,8480.555555555555
-0.25,-0.33,8483.333333333334
-0.09,-0.28,8486.111111111111
0.085,-0.215,8488.888888888889
0.21,-0.175,8491.666666666666
0.295,-0.145,8494.444444444445
0.325,-0.14,8497.222222222223
0.32,-0.125,8500.0
0.3,-0.12,8502.777777777777
0.27,-0.125,8505.555555555555
0.245,-0.115,8508.333333333334
0.25,-0.105,8511.111111111111
0.255,-0.095,8513.888888888889
0.26,-0.1,8516.666666666666
0.28,-0.1,8519.444444444445
0.29,-0.1,8522.222222222223
0.31,-0.085,8525.0
0.325,-0.09,8527.777777777777
0.34,-0.08,8530.555555555555
0.36,-0.09,8533.333333333334
0.37,-0.09,8536.111111111111
0.385,-0.08,8538.888888888889
0.395,-0.1,8541.666666666666
0.415,-0.11,8544.444444444445
0.405,-0.11,8547.222222222223
0.42,-0.11,8550.0
0.425,-0.115,8552.777777777777
0.445,-0.12,8555.555555555555
0.455,-0.11,8558.333333333334
0.495,-0.12,8561.111111111111
0.515,-0.12,8563.888888888889
0.545,-0.11,8566.666666666666
0.56,-0.1,8569.444444444445
0.58,-0.11,8572.222222222223
0.6,-0.115,8575.0
0.605,-0.12,8577.777777777777
0.635,-0.13,8580.555555555555
0.645,-0.135,8583.333333333334
0.665,-0.145,8586.111111111111
0.685,-0.155,8588.888888888889
0.705,-0.15,8591.666666666666
0.73,-0.14,8594.444444444445
0.76,-0.13,8597.222222222223
0.805,-0.135,8600.0
0.82,-0.13,8602.777777777777
0.84,-0.14,8605.555555555555
0.855,-0.15,8608.333333333334
0.855,-0.175,8611.111111111111
0.86,-0.18,8613.888888888889
0.86,-0.195,8616.666666666666
0.865,-0.2,8619.444444444445
0.865,-0.195,8622.222222222223
0.875,-0.19,8625.0
0.875,-0.185,8627.777777777777
0.87,-0.205,8630.555555555555
0.84,-0.195,8633.333333333334
0.83,-0.205,8636.111111111111
0.82,-0.215,8638.888888888889
0.795,-0.225,8641.666666666666
0.765,-0.245,8644.444444444445
0.73,-0.235,8647.222222222223
0.71,-0.26,8650.0
0.675,-0.25,8652.777777777777
0.635,-0.26,8655.555555555555
0.615,-0.25,8658.333333333334
0.585,-0.255,8661.111111111111
0.545,-0.24,8663.888888888889
0.5,-0.225,8666.666666666666
0.475,-0.22,8669.444444444445
0.43,-0.215,8672.222222222223
0.4,-0.21,8675.0
0.36,-0.2,8677.777777777777
0.31,-0.17,8680.555555555555
0.28,-0.18,8683.333333333334
0.23,-0.165,8686.111111111111
0.215,-0.155,8688.888888888889
0.18,-0.14,8691.666666666666
0.16,-0.13,8694.444444444445
0.145,-0.095,8697.222222222223
0.125,-0.075,8700.0
0.105,-0.055,8702.777777777777
0.075,-0.055,8705.555555555555
0.065,-0.04,8708.333333333334
0.06,-0.03,8711.111111111111
0.035,-0.035,8713.888888888889
0.02,-0.03,8716.666666666666
0.005,-0.04,8719.444444444445
-0.01,-0.035,8722.222222222223
-0.02,-0.015,8725.0
-0.025,-0.005,8727.777777777777
-0.025,0.0,8730.555555555555
-0.04,0.005,8733.333333333334
-0.035,-0.005,8736.111111111111
-0.03,-0.005,8738.888888888889
-0.035,-0.015,8741.666666666666
-0.035,-0.02,8744.444444444445
-0.045,-0.03,8747.222222222223
-0.045,-0.03,8750.0
-0.06,-0.015,8752.777777777777
-0.055,-0.015,8755.555555555555
-0.05,-0.015,8758.333333333334
-0.045,-0.02,8761.111111111111
-0.035,-0.01,8763.888888888889
-0.035,-0.01,8766.666666666666
-0.025,-0.005,8769.444444444445
-0.04,-0.015,8772.222222222223
-0.035,-0.03,8775.0
-0.045,-0.025,8777.777777777777
-0.045,-0.02,8780.555555555555
-0.04,-0.035,8783.333333333334
-0.055,-0.04,8786.111111111111
-0.045,-0.035,8788.888888888889
-0.055,-0.025,8791.666666666666
-0.04,-0.035,8794.444444444445
-0.05,-0.025,8797.222222222223
-0.035,-0.025,8800.0
-0.03,-0.025,8802.777777777777
-0.035,-0.02,8805.555555555555
-0.03,-0.025,8808.333333333334
-0.035,-0.03,8811.111111111111
-0.055,-0.035,8813.888888888889
-0.06,-0.05,8816.666666666666
-0.07,-0.055,8819.444444444445
-0.075,-0.065,8822.222222222223
-0.065,-0.06,8825.0
-0.085,-0.04,8827.777777777777
-0.07,-0.03,8830.555555555555
-0.06,-0.02,8833.333333333334
-0.05,-0.03,8836.111111111111
-0.055,-0.02,8838.888888888889
-0.04,-0.035,8841.666666666666
-0.06,-0.05,8844.444444444445
-0.07,-0.045,8847.222222222223
-0.085,-0.06,8850.0
-0.085,-0.06,8852.777777777777
-0.075,-0.07,8855.555555555555
-0.075,-0.065,8858.333333333334
-0.07,-0.065,8861.111111111111
-0.07,-0.06,8863.888888888889
-0.06,-0.04,8866.666666666666
-0.06,-0.05,8869.444444444445
-0.06,-0.045,8872.222222222223
-0.065,-0.055,8875.0
-0.08,-0.06,8877.777777777777
-0.1,-0.075,8880.555555555555
-0.095,-0.085,8883.333333333334
-0.1,-0.09,8886.111111111111
-0.105,-0.085,8888.888888888889
-0.09,-0.07,8891.666666666666
-0.075,-0.065,8894.444444444445
-0.075,-0.065,8897.222222222223
-0.07,-0.06,8900.0
-0.06,-0.07,8902.777777777777
-0.07,-0.07,8905.555555555555
-0.075,-0.075,8908.333333333334
-0.08,-0.08,8911.111111111111
-0.09,-0.085,8913.888888888889
-0.08,-0.08,8916.666666666666
-0.085,-0.085,8919.444444444445
-0.08,-0.085,8922.222222222223
-0.1,-0.09,8925.0
-0.085,-0.08,8927.777777777777
-0.08,-0.08,8930.555555555555
-0.07,-0.07,8933.333333333334
-0.05,-0.075,8936.111111111111
-0.055,-0.09,8938.888888888889
-0.055,-0.095,8941.666666666666
-0.065,-0.1,8944.444444444445
-0.065,-0.11,8947.222222222223
-0.08,-0.105,8950.0
-0.07,-0.115,8952.777777777777
-0.08,-0.09,8955.555555555555
-0.07,-0.1,8958.333333333334
-0.06,-0.1,8961.111111111111
-0.065,-0.085,8963.888888888889
-0.06,-0.095,8966.666666666666
-0.05,-0.09,8969.444444444445
-0.06,-0.09,8972.222222222223
-0.05,-0.095,8975.0
-0.055,-0.1,8977.777777777777
-0.06,-0.115,8980.555555555555
-0.055,-0.125,8983.333333333334
-0.06,-0.115,8986.111111111111
-0.07,-0.115,8988.888888888889
-0.055,-0.115,8991.666666666666
-0.045,-0.11,8994.444444444445
-0.05,-0.11,8997.222222222223
-0.035,-0.1,9000.0
-0.025,-0.085,9002.777777777777
-0.01,-0.09,9005.555555555555
-0.01,-0.075,9008.333333333334
0.0,-0.065,9011.111111111111
0.005,-0.055,9013.888888888889
0.025,-0.04,9016.666666666666
0.04,0.0,9019.444444444445
0.065,0.03,9022.222222222223
0.09,0.045,9025.0
0.095,0.045,9027.777777777777
0.11,0.07,9030.555555555555
0.13,0.06,9033.333333333334
0.145,0.06,9036.111111111111
0.165,0.03,9038.888888888889
0.195,0.01,9041.666666666666
0.22,-0.035,9044.444444444445
0.25,-0.065,9047.222222222223
0.265,-0.095,9050.0
0.27,-0.105,9052.777777777777
0.26,-0.12,9055.555555555555
0.24,-0.11,9058.333333333334
0.22,-0.125,9061.111111111111
0.215,-0.115,9063.888888888889
0.22,-0.11,9066.666666666666
0.235,-0.13,9069.444444444445
0.22,-0.155,9072.222222222223
0.235,-0.19,9075.0
0.23,-0.2,9077.777777777777
0.2,-0.23,9080.555555555555
0.17,-0.235,9083.333333333334
0.125,-0.225,9086.111111111111
0.1,-0.225,9088.888888888889
0.075,-0.2,9091.666666666666
0.055,-0.175,9094.444444444445
0.05,-0.165,9097.222222222223
0.045,-0.165,9100.0
0.02,-0.16,9102.777777777777
0.015,-0.155,9105.555555555555
-0.005,-0.165,9108.333333333334
-0.02,-0.155,9111.111111111111
-0.03,-0.165,9113.888888888889
-0.04,-0.18,9116.666666666666
-0.05,-0.19,9119.444444444445
-0.05,-0.19,9122.222222222223
-0.04,-0.2,9125.0
-0.03,-0.19,9127.777777777777
-0.025,-0.195,9130.555555555555
0.0,-0.18,9133.333333333334
0.0,-0.18,9136.111111111111
-0.005,-0.18,9138.888888888889
0.0,-0.175,9141.666666666666
-0.01,-0.175,9144.444444444445
-0.01,-0.16,9147.222222222223
-0.005,-0.145,9150.0
0.0,-0.095,9152.777777777777
0.06,-0.07,9155.555555555555
0.145,-0.025,9158.333333333334
0.295,-0.025,9161.111111111111
0.485,-0.07,9163.888888888889
0.695,-0.17,9166.666666666666
0.915,-0.335,9169.444444444445
1.11,-0.55,9172.222222222223
1.29,-0.82,9175.0
1.47,-1.155,9177.777777777777
1.64,-1.53,9180.555555555555
1.785,-1.915,9183.333333333334
1.875,-2.215,9186.111111111111
1.905,-2.39,9188.888888888889
1.87,-2.43,9191.666666666666
1.76,-2.365,9194.444444444445
1.585,-2.225,9197.222222222223
1.33,-2.05,9200.0
1.01,-1.84,9202.777777777777
0.69,-1.61,9205.555555555555
0.425,-1.35,9208.333333333334
0.225,-1.125,9211.111111111111
0.085,-0.92,9213.888888888889
0.025,-0.785,9216.666666666666
0.0,-0.69,9219.444444444445
0.0,-0.61,9222.222222222223
-0.015,-0.54,9225.0
-0.03,-0.465,9227.777777777777
-0.055,-0.385,9230.555555555555
-0.095,-0.32,9233.333333333334
-0.12,-0.24,9236.111111111111
-0.135,-0.21,9238.888888888889
-0.145,-0.165,9241.666666666666
-0.145,-0.155,9244.444444444445
-0.155,-0.17,9247.222222222223
-0.165,-0.175,9250.0
-0.16,-0.17,9252.777777777777
-0.175,-0.16,9255.555555555555
-0.16,-0.155,9258.333333333334
-0.16,-0.13,9261.111111111111
-0.16,-0.11,9263.888888888889
-0.155,-0.095,9266.666666666666
-0.16,-0.09,9269.444444444445
-0.165,-0.08,9272.222222222223
-0.17,-0.08,9275.0
-0.19,-0.075,9277.777777777777
-0.175,-0.08,9280.555555555555
-0.18,-0.085,9283.333333333334
-0.18,-0.09,9286.111111111111
-0.19,-0.075,9288.888888888889
-0.185,-0.06,9291.666666666666
-0.19,-0.04,9294.444444444445
-0.185,-0.03,9297.222222222223
-0.18,-0.02,9300.0
-0.17,-0.015,9302.777777777777
-0.19,-0.02,9305.555555555555
-0.185,-0.025,9308.333333333334
-0.19,-0.02,9311.111111111111
-0.19,-0.015,9313.888888888889
-0.2,0.0,9316.666666666666
-0.2,0.005,9319.444444444445
-0.215,0.015,9322.222222222223
-0.215,0.02,9325.0
-0.22,0.03,9327.777777777777
-0.215,0.04,9330.555555555555
-0.225,0.045,9333.333333333334
-0.23,0.065,9336.111111111111
-0.23,0.08,9338.888888888889
-0.24,0.075,9341.666666666666
-0.255,0.085,9344.444444444445
-0.27,0.075,9347.222222222223
-0.275,0.09,9350.0
-0.295,0.085,9352.777777777777
-0.3,0.09,9355.555555555555
-0.32,0.1,9358.333333333334
-0.325,0.11,9361.111111111111
-0.33,0.125,9363.888888888889
-0.34,0.15,9366.666666666666
-0.35,0.165,9369.444444444445
-0.355,0.175,9372.222222222223
-0.37,0.17,9375.0
-0.395,0.185,9377.777777777777
-0.43,0.175,9380.555555555555
-0.44,0.18,9383.333333333334
-0.47,0.16,9386.111111111111
-0.48,0.18,9388.888888888889
-0.49,0.195,9391.666666666666
-0.495,0.215,9394.444444444445
-0.51,0.22,9397.222222222223
-0.5,0.24,9400.0
-0.5,0.24,9402.777777777777
-0.505,0.23,9405.555555555555
-0.5,0.225,9408.333333333334
-0.5,0.215,9411.111111111111
-0.495,0.195,9413.888888888889
-0.5,0.2,9416.666666666666
-0.495,0.19,9419.444444444445
-0.49,0.2,9422.222222222223
-0.47,0.195,9425.0
-0.46,0.185,9427.777777777777
-0.43,0.17,9430.555555555555
-0.4,0.175,9433.333333333334
-0.36,0.16,9436.111111111111
-0.335,0.13,9438.888888888889
-0.31,0.12,9441.666666666666
-0.285,0.09,9444.444444444445
-0.255,0.065,9447.222222222223
-0.22,0.045,9450.0
-0.2,0.02,9452.777777777777
-0.16,-0.015,9455.555555555555
-0.125,-0.025,9458.333333333334
-0.09,-0.045,9461.111111111111
-0.065,-0.055,9463.888888888889
-0.03,-0.08,9466.666666666666
-0.005,-0.095,9469.444444444445
0.015,-0.11,9472.222222222223
0.015,-0.125,9475.0
0.045,-0.145,9477.777777777777
0.065,-0.155,9480.555555555555
0.065,-0.175,9483.333333333334
0.065,-0.195,9486.111111111111
0.065,-0.205,9488.888888888889
0.075,-0.205,9491.666666666666
0.085,-0.2,9494.444444444445
0.08,-0.19,9497.222222222223
0.105,-0.18,9500.0
0.115,-0.19,9502.777777777777
0.115,-0.195,9505.555555555555
0.125,-0.2,9508.333333333334
0.12,-0.21,9511.111111111111
0.115,-0.215,9513.888888888889
0.1,-0.22,9516.666666666666
0.095,-0.23,9519.444444444445
0.105,-0.225,9522.222222222223
0.115,-0.215,9525.0
0.125,-0.2,9527.777777777777
0.125,-0.195,9530.555555555555
0.125,-0.19,9533.333333333334
0.14,-0.19,9536.111111111111
0.145,-0.195,9538.888888888889
0.145,-0.205,9541.666666666666
0.13,-0.215,9544.444444444445
0.125,-0.215,9547.222222222223
0.12,-0.225,9550.0
0.13,-0.21,9552.777777777777
0.12,-0.2,9555.555555555555
0.115,-0.205,9558.333333333334
0.115,-0.195,9561.111111111111
0.14,-0.2,9563.888888888889
0.14,-0.2,9566.666666666666
0.135,-0.19,9569.444444444445
0.14,-0.19,9572.222222222223
0.14,-0.18,9575.0
0.145,-0.185,9577.777777777777
0.135,-0.185,9580.555555555555
0.14,-0.195,9583.333333333334
0.135,-0.18,9586.111111111111
0.155,-0.175,9588.888888888889
0.165,-0.165,9591.666666666666
0.19,-0.14,9594.444444444445
0.21,-0.12,9597.222222222223
0.23,-0.08,9600.0
0.265,-0.06,9602.777777777777
0.265,-0.035,9605.555555555555
0.28,-0.01,9608.333333333334
0.3,-0.01,9611.111111111111
0.3,-0.015,9613.888888888889
0.305,-0.025,9616.666666666666
0.32,-0.05,9619.444444444445
0.34,-0.05,9622.222222222223
0.37,-0.06,9625.0
0.405,-0.08,9627.777777777777
0.445,-0.095,9630.555555555555
0.485,-0.115,9633.333333333334
0.505,-0.15,9636.111111111111
0.49,-0.175,9638.888888888889
0.46,-0.21,9641.666666666666
0.44,-0.22,9644.444444444445
0.425,-0.235,9647.222222222223
0.41,-0.23,9650.0
0.415,-0.235,9652.777777777777
0.42,-0.25,9655.555555555555
0.435,-0.25,9658.333333333334
0.44,-0.265,9661.111111111111
0.42,-0.28,9663.888888888889
0.41,-0.3,9666.666666666666
0.39,-0.31,9669.444444444445
0.36,-0.33,9672.222222222223
0.33,-0.32,9675.0
0.305,-0.305,9677.777777777777
0.275,-0.3,9680.555555555555
0.25,-0.27,9683.333333333334
0.24,-0.27,9686.111111111111
0.22,-0.25,9688.888888888889
0.19,-0.26,9691.666666666666
0.19,-0.26,9694.444444444445
0.19,-0.26,9697.222222222223
0.18,-0.245,9700.0
0.18,-0.25,9702.777777777777
0.175,-0.26,9705.555555555555
0.18,-0.27,9708.333333333334
0.175,-0.275,9711.111111111111
0.17,-0.27,9713.888888888889
0.165,-0.28,9716.666666666666
0.17,-0.28,9719.444444444445
0.185,-0.285,9722.222222222223
0.185,-0.285,9725.0
0.195,-0.29,9727.777777777777
0.2,-0.29,9730.555555555555
0.2,-0.28,9733.333333333334
0.22,-0.28,9736.111111111111
0.235,-0.25,9738.888888888889
0.255,-0.215,9741.666666666666
0.275,-0.18,9744.444444444445
0.325,-0.14,9747.222222222223
0.41,-0.1,9750.0
0.535,-0.1,9752.777777777777
0.72,-0.145,9755.555555555555
0.92,-0.245,9758.333333333334
1.12,-0.385,9761.111111111111
1.305,-0.565,9763.888888888889
1.47,-0.8,9766.666666666666
1.61,-1.115,9769.444444444445
1.765,-1.495,9772.222222222223
1.9,-1.885,9775.0
1.98,-2.245,9777.777777777777
2.03,-2.495,9780.555555555555
2.02,-2.62,9783.333333333334
1.96,-2.61,9786.111111111111
1.86,-2.52,9788.888888888889
1.685,-2.375,9791.666666666666
1.45,-2.175,9794.444444444445
1.155,-1.965,9797.222222222223
0.86,-1.71,9800.0
0.61,-1.445,9802.777777777777
0.405,-1.205,9805.555555555555
0.265,-0.995,9808.333333333334
0.185,-0.84,9811.111111111111
0.15,-0.725,9813.888888888889
0.135,-0.655,9816.666666666666
0.125,-0.58,9819.444444444445
0.13,-0.505,9822.222222222223
0.115,-0.445,9825.0
0.105,-0.36,9827.777777777777
0.095,-0.3,9830.555555555555
0.095,-0.265,9833.333333333334
0.095,-0.25,9836.111111111111
0.075,-0.235,9838.888888888889
0.085,-0.225,9841.666666666666
0.085,-0.225,9844.444444444445
0.08,-0.225,9847.222222222223
0.075,-0.205,9850.0
0.055,-0.195,9852.777777777777
0.05,-0.195,9855.555555555555
0.06,-0.19,9858.333333333334
0.06,-0.175,9861.111111111111
0.05,-0.155,9863.888888888889
0.07,-0.15,9866.666666666666
0.075,-0.14,9869.444444444445
0.075,-0.125,9872.222222222223
0.075,-0.12,9875.0
0.07,-0.12,9877.777777777777
0.055,-0.125,9880.555555555555
0.055,-0.125,9883.333333333334
0.05,-0.12,9886.111111111111
0.05,-0.12,9888.888888888889
0.05,-0.105,9891.666666666666
0.04,-0.095,9894.444444444445
0.06,-0.07,9897.222222222223
0.07,-0.05,9900.0
0.065,-0.045,9902.777777777777
0.07,-0.04,9905.555555555555
0.055,-0.03,9908.333333333334
0.05,-0.035,9911.111111111111
0.035,-0.035,9913.888888888889
0.025,-0.035,9916.666666666666
0.02,-0.035,9919.444444444445
0.005,-0.02,9922.222222222223
0.015,0.0,9925.0
0.015,0.02,9927.777777777777
0.015,0.05,9930.555555555555
0.01,0.05,9933.333333333334
0.015,0.065,9936.111111111111
0.0,0.065,9938.888888888889
-0.005,0.065,9941.666666666666
-0.015,0.08,9944.444444444445
-0.035,0.065,9947.222222222223
-0.055,0.09,9950.0
-0.07,0.095,9952.777777777777
-0.09,0.11,9955.555555555555
-0.095,0.135,9958.333333333334
-0.1,0.145,9961.111111111111
-0.1,0.165,9963.888888888889
-0.1,0.175,9966.666666666666
-0.1,0.175,9969.444444444445
-0.11,0.195,9972.222222222223
-0.115,0.19,9975.0
-0.14,0.2,9977.777777777777
-0.15,0.205,9980.555555555555
-0.16,0.21,9983.333333333334
-0.17,0.21,9986.111111111111
-0.17,0.215,9988.888888888889
-0.16,0.22,9991.666666666666
-0.155,0.225,9994.444444444445
-0.14,0.24,9997.222222222223
-0.115,0.24,10000.0
-0.095,0.245,10002.777777777777
-0.1,0.225,10005.555555555555
-0.075,0.23,10008.333333333334
-0.065,0.205,10011.111111111111
-0.05,0.165,10013.888888888889
-0.035,0.155,10016.666666666666
-0.01,0.125,10019.444444444445
0.015,0.1,10022.222222222223
0.05,0.09,10025.0
0.075,0.065,10027.777777777777
0.1,0.035,10030.555555555555
0.13,0.025,10033.333333333334
0.165,0.0,10036.111111111111
0.19,-0.025,10038.888888888889
0.21,-0.075,10041.666666666666
0.215,-0.105,10044.444444444445
0.225,-0.135,10047.222222222223
0.23,-0.165,10050.0
0.24,-0.17,10052.777777777777
0.265,-0.185,10055.555555555555
0.275,-0.185,10058.333333333334
0.29,-0.19,10061.111111111111
0.285,-0.195,10063.888888888889
0.295,-0.21,10066.666666666666
0.305,-0.225,10069.444444444445
0.31,-0.24,10072.222222222223
0.32,-0.25,10075.0
0.31,-0.25,10077.777777777777
0.305,-0.27,10080.555555555555
0.29,-0.26,10083.333333333334
0.275,-0.265,10086.111111111111
0.285,-0.255,10088.888888888889
0.285,-0.265,10091.666666666666
0.295,-0.27,10094.444444444445
0.305,-0.265,10097.222222222223
0.31,-0.26,10100.0
0.32,-0.27,10102.777777777777
0.32,-0.265,10105.555555555555
0.315,-0.27,10108.333333333334
0.315,-0.265,10111.111111111111
0.315,-0.265,10113.888888888889
0.305,-0.285,10116.666666666666
0.295,-0.27,10119.444444444445
0.29,-0.29,10122.222222222223
0.29,-0.28,10125.0
0.3,-0.275,10127.777777777777
0.295,-0.265,10130.555555555555
0.305,-0.26,10133.333333333334
0.32,-0.255,10136.111111111111
0.32,-0.26,10138.888888888889
0.315,-0.25,10141.666666666666
0.31,-0.27,10144.444444444445
0.305,-0.285,10147.222222222223
0.295,-0.29,10150.0
0.29,-0.285,10152.777777777777
0.295,-0.285,10155.555555555555
0.295,-0.285,10158.333333333334
0.3,-0.28,10161.111111111111
0.31,-0.27,10163.888888888889
0.325,-0.255,10166.666666666666
0.33,-0.25,10169.444444444445
0.33,-0.26,10172.222222222223
0.345,-0.25,10175.0
0.365,-0.26,10177.777777777777
0.375,-0.25,10180.555555555555
0.38,-0.225,10183.333333333334
0.39,-0.195,10186.111111111111
0.41,-0.155,10188.888888888889
0.435,-0.125,10191.666666666666
0.445,-0.105,10194.444444444445
0.47,-0.095,10197.222222222223
0.485,-0.09,10200.0
0.51,-0.095,10202.777777777777
0.545,-0.105,10205.555555555555
0.575,-0.12,10208.333333333334
0.6,-0.165,10211.111111111111
0.64,-0.19,10213.888888888889
0.65,-0.225,10216.666666666666
0.64,-0.26,10219.444444444445
0.635,-0.27,10222.222222222223
0.62,-0.295,10225.0
0.605,-0.305,10227.777777777777
0.59,-0.29,10230.555555555555
0.6,-0.3,10233.333333333334
0.61,-0.295,10236.111111111111
0.615,-0.31,10238.888888888889
0.62,-0.33,10241.666666666666
0.605,-0.375,10244.444444444445
0.575,-0.4,10247.222222222223
0.535,-0.425,10250.0
0.485,-0.44,10252.777777777777
0.455,-0.42,10255.555555555555
0.435,-0.38,10258.333333333334
0.41,-0.36,10261.111111111111
0.405,-0.33,10263.888888888889
0.385,-0.305,10266.666666666666
0.385,-0.32,10269.444444444445
0.37,-0.31,10272.222222222223
0.35,-0.32,10275.0
0.325,-0.33,10277.777777777777
0.325,-0.35,10280.555555555555
0.295,-0.36,10283.333333333334
0.29,-0.36,10286.111111111111
0.29,-0.36,10288.888888888889
0.3,-0.34,10291.666666666666
0.325,-0.35,10294.444444444445
0.325,-0.345,10297.222222222223
0.325,-0.34,10300.0
0.34,-0.35,10302.777777777777
0.35,-0.35,10305.555555555555
0.35,-0.35,10308.333333333334
0.355,-0.34,10311.111111111111
0.34,-0.345,10313.888888888889
0.33,-0.33,10316.666666666666
0.32,-0.305,10319.444444444445
0.335,-0.27,10322.222222222223
0.39,-0.22,10325.0
0.48,-0.165,10327.777777777777
0.595,-0.16,10330.555555555555
0.76,-0.19,10333.333333333334
0.955,-0.27,10336.111111111111
1.155,-0.42,10338.888888888889
1.335,-0.62,10341.666666666666
1.51,-0.87,10344.444444444445
1.66,-1.18,10347.222222222223
1.815,-1.55,10350.0
1.935,-1.935,10352.777777777777
2.03,-2.295,10355.555555555555
2.065,-2.53,10358.333333333334
2.075,-2.65,10361.111111111111
2.02,-2.62,10363.888888888889
1.915,-2.51,10366.666666666666
1.75,-2.355,10369.444444444445
1.5,-2.165,10372.222222222223
1.22,-1.95,10375.0
0.935,-1.7,10377.777777777777
0.71,-1.445,10380.555555555555
0.535,-1.225,10383.333333333334
0.42,-1.035,10386.111111111111
0.35,-0.895,10388.888888888889
0.33,-0.795,10391.666666666666
0.335,-0.715,10394.444444444445
0.33,-0.645,10397.222222222223
0.32,-0.565,10400.0
0.295,-0.51,10402.777777777777
0.26,-0.455,10405.555555555555
0.225,-0.39,10408.333333333334
0.205,-0.35,10411.111111111111
0.185,-0.33,10413.888888888889
0.185,-0.32,10416.666666666666
0.175,-0.31,10419.444444444445
0.175,-0.3,10422.222222222223
0.18,-0.285,10425.0
0.175,-0.26,10427.777777777777
0.185,-0.26,10430.555555555555
0.19,-0.245,10433.333333333334
0.195,-0.245,10436.111111111111
0.19,-0.225,10438.888888888889
0.19,-0.235,10441.666666666666
0.175,-0.225,10444.444444444445
0.175,-0.225,10447.222222222223
0.155,-0.22,10450.0
0.16,-0.215,10452.777777777777
0.165,-0.215,10455.555555555555
0.165,-0.205,10458.333333333334
0.175,-0.185,10461.111111111111
0.175,-0.175,10463.888888888889
0.18,-0.155,10466.666666666666
0.18,-0.15,10469.444444444445
0.18,-0.145,10472.222222222223
0.175,-0.135,10475.0
0.165,-0.125,10477.777777777777
0.165,-0.135,10480.555555555555
0.16,-0.135,10483.333333333334
0.15,-0.135,10486.111111111111
0.155,-0.125,10488.888888888889
0.145,-0.115,10491.666666666666
0.135,-0.105,10494.444444444445
0.135,-0.08,10497.222222222223
0.155,-0.065,10500.0
0.16,-0.055,10502.777777777777
0.145,-0.05,10505.555555555555
0.14,-0.04,10508.333333333334
0.135,-0.04,10511.111111111111
0.115,-0.04,10513.888888888889
0.1,-0.025,10516.666666666666
0.1,-0.035,10519.444444444445
0.085,-0.02,10522.222222222223
0.07,-0.005,10525.0
0.06,0.02,10527.777777777777
0.045,0.055,10530.555555555555
0.045,0.07,10533.333333333334
0.03,0.085,10536.111111111111
0.025,0.085,10538.888888888889
0.01,0.095,10541.666666666666
-0.005,0.1,10544.444444444445
-0.02,0.1,10547.222222222223
-0.04,0.105,10550.0
-0.05,0.11,10552.777777777777
-0.07,0.135,10555.555555555555
-0.08,0.15,10558.333333333334
-0.09,0.155,10561.111111111111
-0.09,0.17,10563.888888888889
-0.08,0.175,10566.666666666666
-0.07,0.18,10569.444444444445
-0.08,0.175,10572.222222222223
-0.08,0.18,10575.0
-0.09,0.18,10577.777777777777
-0.1,0.195,10580.555555555555
-0.085,0.18,10583.333333333334
-0.08,0.17,10586.111111111111
-0.07,0.15,10588.888888888889
-0.05,0.15,10591.666666666666
-0.025,0.14,10594.444444444445
0.005,0.125,10597.222222222223
0.03,0.11,10600.0
0.055,0.095,10602.777777777777
0.08,0.075,10605.555555555555
0.095,0.055,10608.333333333334
0.12,0.035,10611.111111111111
0.135,-0.015,10613.888888888889
0.155,-0.04,10616.666666666666
0.18,-0.07,10619.444444444445
0.195,-0.1,10622.222222222223
0.225,-0.115,10625.0
0.255,-0.13,10627.777777777777
0.275,-0.15,10630.555555555555
0.29,-0.17,10633.333333333334
0.315,-0.18,10636.111111111111
0.325,-0.195,10638.888888888889
0.325,-0.225,10641.666666666666
0.31,-0.24,10644.444444444445
0.335,-0.26,10647.222222222223
0.33,-0.275,10650.0
0.32,-0.28,10652.777777777777
0.325,-0.285,10655.555555555555
0.33,-0.275,10658.333333333334
0.345,-0.28,10661.111111111111
0.36,-0.27,10663.888888888889
0.37,-0.265,10666.666666666666
0.375,-0.265,10669.444444444445
0.375,-0.28,10672.222222222223
0.37,-0.28,10675.0
0.36,-0.305,10677.777777777777
0.36,-0.305,10680.555555555555
0.355,-0.31,10683.333333333334
0.35,-0.315,10686.111111111111
0.36,-0.31,10688.888888888889
0.35,-0.295,10691.666666666666
0.36,-0.295,10694.444444444445
0.345,-0.295,10697.222222222223
0.365,-0.28,10700.0
0.365,-0.295,10702.777777777777
0.355,-0.305,10705.555555555555
0.36,-0.295,10708.333333333334
0.37,-0.295,10711.111111111111
0.365,-0.31,10713.888888888889
0.355,-0.3,10716.666666666666
0.345,-0.315,10719.444444444445
0.33,-0.315,10722.222222222223
0.335,-0.315,10725.0
0.345,-0.31,10727.777777777777
0.35,-0.305,10730.555555555555
0.365,-0.295,10733.333333333334
0.37,-0.3,10736.111111111111
0.37,-0.29,10738.888888888889
0.38,-0.29,10741.666666666666
0.365,-0.3,10744.444444444445
0.36,-0.305,10747.222222222223
0.35,-0.31,10750.0
0.35,-0.31,10752.777777777777
0.36,-0.315,10755.555555555555
0.355,-0.295,10758.333333333334
0.37,-0.305,10761.111111111111
0.365,-0.275,10763.888888888889
0.385,-0.265,10766.666666666666
0.415,-0.23,10769.444444444445
0.445,-0.205,10772.222222222223
0.45,-0.185,10775.0
0.46,-0.165,10777.777777777777
0.475,-0.145,10780.555555555555
0.485,-0.155,10783.333333333334
0.49,-0.14,10786.111111111111
0.5,-0.13,10788.888888888889
0.515,-0.13,10791.666666666666
0.545,-0.135,10794.444444444445
0.59,-0.13,10797.222222222223
0.625,-0.16,10800.0
0.67,-0.19,10802.777777777777
0.69,-0.225,10805.555555555555
0.695,-0.255,10808.333333333334
0.68,-0.29,10811.111111111111
0.66,-0.3,10813.888888888889
0.615,-0.31,10816.666666666666
0.6,-0.31,10819.444444444445
0.59,-0.315,10822.222222222223
0.595,-0.305,10825.0
0.605,-0.315,10827.777777777777
0.605,-0.335,10830.555555555555
0.61,-0.355,10833.333333333334
0.6,-0.385,10836.111111111111
0.58,-0.4,10838.888888888889
0.55,-0.43,10841.666666666666
0.525,-0.415,10844.444444444445
0.48,-0.42,10847.222222222223
0.445,-0.4,10850.0
0.405,-0.37,10852.777777777777
0.385,-0.365,10855.555555555555
0.365,-0.36,10858.333333333334
0.375,-0.345,10861.111111111111
0.365,-0.35,10863.888888888889
0.35,-0.345,10866.666666666666
0.345,-0.325,10869.444444444445
0.33,-0.325,10872.222222222223
0.33,-0.33,10875.0
0.315,-0.35,10877.777777777777
0.315,-0.365,10880.555555555555
0.3,-0.37,10883.333333333334
0.295,-0.38,10886.111111111111
0.305,-0.39,10888.888888888889
0.31,-0.385,10891.666666666666
0.315,-0.385,10894.444444444445
0.325,-0.37,10897.222222222223
0.325,-0.355,10900.0
0.325,-0.36,10902.777777777777
0.34,-0.355,10905.555555555555
0.345,-0.355,10908.333333333334
0.335,-0.35,10911.111111111111
0.34,-0.325,10913.888888888889
0.345,-0.295,10916.666666666666
0.385,-0.25,10919.444444444445
0.455,-0.19,10922.222222222223
0.565,-0.175,10925.0
0.73,-0.195,10927.777777777777
0.895,-0.28,10930.555555555555
1.09,-0.42,10933.333333333334
1.275,-0.605,10936.111111111111
1.44,-0.84,10938.888888888889
1.595,-1.12,10941.666666666666
1.735,-1.46,10944.444444444445
1.86,-1.815,10947.222222222223
1.95,-2.165,10950.0
1.995,-2.43,10952.777777777777
2.01,-2.585,10955.555555555555
1.98,-2.62,10958.333333333334
1.93,-2.585,10961.111111111111
1.835,-2.475,10963.888888888889
1.665,-2.335,10966.666666666666
1.45,-2.17,10969.444444444445
1.18,-1.985,10972.222222222223
0.93,-1.775,10975.0
0.71,-1.54,10977.777777777777
0.545,-1.31,10980.555555555555
0.42,-1.115,10983.333333333334
0.365,-0.97,10986.111111111111
0.335,-0.855,10988.888888888889
0.32,-0.785,10991.666666666666
0.325,-0.705,10994.444444444445
0.31,-0.645,10997.222222222223
0.275,-0.575,11000.0
0.255,-0.5,11002.777777777777
0.21,-0.425,11005.555555555555
0.185,-0.39,11008.333333333334
0.175,-0.345,11011.111111111111
0.165,-0.325,11013.888888888889
0.16,-0.33,11016.666666666666
0.15,-0.315,11019.444444444445
0.145,-0.32,11022.222222222223
0.16,-0.305,11025.0
0.155,-0.295,11027.777777777777
0.165,-0.28,11030.555555555555
0.16,-0.25,11033.333333333334
0.15,-0.24,11036.111111111111
0.155,-0.225,11038.888888888889
0.145,-0.225,11041.666666666666
0.135,-0.225,11044.444444444445
0.125,-0.215,11047.222222222223
0.105,-0.23,11050.0
0.12,-0.23,11052.777777777777
0.11,-0.215,11055.555555555555
0.115,-0.2,11058.333333333334
0.125,-0.195,11061.111111111111
0.13,-0.17,11063.888888888889
0.135,-0.16,11066.666666666666
0.14,-0.16,11069.444444444445
0.14,-0.16,11072.222222222223
0.13,-0.15,11075.0
0.125,-0.155,11077.777777777777
0.1,-0.15,11080.555555555555
0.105,-0.14,11083.333333333334
0.095,-0.13,11086.111111111111
0.095,-0.12,11088.888888888889
0.085,-0.09,11091.666666666666
0.09,-0.09,11094.444444444445
0.09,-0.065,11097.222222222223
0.09,-0.065,11100.0
0.1,-0.05,11102.777777777777
0.085,-0.045,11105.555555555555
0.08,-0.04,11108.333333333334
0.065,-0.02,11111.111111111111
0.045,-0.025,11113.888888888889
0.02,-0.01,11116.666666666666
0.02,-0.005,11119.444444444445
0.015,0.005,11122.222222222223
0.0,0.02,11125.0
0.0,0.03,11127.777777777777
-0.015,0.045,11130.555555555555
-0.015,0.075,11133.333333333334
-0.02,0.08,11136.111111111111
-0.03,0.1,11138.888888888889
-0.045,0.12,11141.666666666666
-0.075,0.12,11144.444444444445
-0.075,0.115,11147.222222222223
-0.105,0.125,11150.0
-0.12,0.125,11152.777777777777
-0.115,0.13,11155.555555555555
-0.125,0.16,11158.333333333334
-0.125,0.155,11161.111111111111
-0.125,0.17,11163.888888888889
-0.115,0.19,11166.666666666666
-0.1,0.185,11169.444444444445
-0.1,0.195,11172.222222222223
-0.105,0.205,11175.0
-0.09,0.175,11177.777777777777
-0.085,0.17,11180.555555555555
-0.08,0.145,11183.333333333334
-0.085,0.13,11186.111111111111
-0.065,0.13,11188.888888888889
-0.045,0.12,11191.666666666666
-0.01,0.12,11194.444444444445
0.015,0.115,11197.222222222223
0.04,0.1,11200.0
0.07,0.07,11202.777777777777
0.085,0.03,11205.555555555555
0.115,0.005,11208.333333333334
0.12,-0.025,11211.111111111111
0.14,-0.06,11213.888888888889
0.155,-0.085,11216.666666666666
0.155,-0.1,11219.444444444445
0.18,-0.14,11222.222222222223
0.195,-0.15,11225.0
0.215,-0.15,11227.777777777777
0.24,-0.17,11230.555555555555
0.26,-0.175,11233.333333333334
0.275,-0.2,11236.111111111111
0.28,-0.205,11238.888888888889
0.285,-0.24,11241.666666666666
0.285,-0.25,11244.444444444445
0.28,-0.265,11247.222222222223
0.28,-0.27,11250.0
0.28,-0.275,11252.777777777777
0.28,-0.285,11255.555555555555
0.285,-0.285,11258.333333333334
0.29,-0.28,11261.111111111111
0.295,-0.29,11263.888888888889
0.3,-0.285,11266.666666666666
0.31,-0.29,11269.444444444445
0.3,-0.285,11272.222222222223
0.3,-0.285,11275.0
0.31,-0.29,11277.777777777777
0.29,-0.295,11280.555555555555
0.285,-0.305,11283.333333333334
0.28,-0.295,11286.111111111111
0.27,-0.31,11288.888888888889
0.28,-0.305,11291.666666666666
0.29,-0.31,11294.444444444445
0.3,-0.315,11297.222222222223
0.3,-0.315,11300.0
0.315,-0.295,11302.777777777777
0.31,-0.295,11305.555555555555
0.31,-0.285,11308.333333333334
0.31,-0.295,11311.111111111111
0.29,-0.305,11313.888888888889
0.295,-0.305,11316.666666666666
0.28,-0.31,11319.444444444445
0.285,-0.315,11322.222222222223
0.275,-0.305,11325.0
0.285,-0.3,11327.777777777777
0.285,-0.285,11330.555555555555
0.29,-0.28,11333.333333333334
0.29,-0.275,11336.111111111111
0.29,-0.285,11338.888888888889
0.285,-0.275,11341.666666666666
0.29,-0.295,11344.444444444445
0.28,-0.31,11347.222222222223
0.275,-0.315,11350.0
0.265,-0.31,11352.777777777777
0.27,-0.305,11355.555555555555
0.27,-0.3,11358.333333333334
0.275,-0.28,11361.111111111111
0.285,-0.25,11363.888888888889
0.32,-0.245,11366.666666666666
0.335,-0.235,11369.444444444445
0.36,-0.2,11372.222222222223
0.375,-0.19,11375.0
0.39,-0.155,11377.777777777777
0.405,-0.14,11380.555555555555
0.405,-0.125,11383.333333333334
0.42,-0.12,11386.111111111111
0.415,-0.13,11388.888888888889
0.43,-0.115,11391.666666666666
0.46,-0.11,11394.444444444445
0.495,-0.12,11397.222222222223
0.52,-0.125,11400.0
0.575,-0.145,11402.777777777777
0.6,-0.18,11405.555555555555
0.62,-0.215,11408.333333333334
0.615,-0.245,11411.111111111111
0.6,-0.275,11413.888888888889
0.55,-0.285,11416.666666666666
0.545,-0.305,11419.444444444445
0.52,-0.31,11422.222222222223
0.52,-0.31,11425.0
0.535,-0.31,11427.777777777777
0.545,-0.305,11430.555555555555
0.54,-0.315,11433.333333333334
0.55,-0.35,11436.111111111111
0.52,-0.37,11438.888888888889
0.495,-0.385,11441.666666666666
0.46,-0.405,11444.444444444445
0.415,-0.405,11447.222222222223
0.395,-0.405,11450.0
0.35,-0.385,11452.777777777777
0.335,-0.37,11455.555555555555
0.32,-0.35,11458.333333333334
