MLII,V1,time_ms
-0.08,0.135,0.0
-0.08,0.135,2.7777777777777777
-0.08,0.135,5.555555555555555
-0.08,0.135,8.333333333333334
-0.08,0.135,11.11111111111111
-0.08,0.135,13.88888888888889
-0.08,0.135,16.666666666666668
-0.08,0.135,19.444444444444443
-0.075,0.135,22.22222222222222
-0.075,0.145,25.0
-0.09,0.155,27.77777777777778
-0.065,0.175,30.555555555555557
-0.055,0.18,33.333333333333336
-0.05,0.175,36.111111111111114
-0.05,0.165,38.888888888888886
-0.065,0.145,41.666666666666664
-0.07,0.145,44.44444444444444
-0.075,0.15,47.22222222222222
-0.08,0.15,50.0
-0.08,0.15,52.77777777777778
-0.085,0.15,55.55555555555556
-0.085,0.155,58.333333333333336
-0.095,0.155,61.111111111111114
-0.075,0.17,63.888888888888886
-0.07,0.175,66.66666666666667
-0.065,0.17,69.44444444444444
-0.06,0.145,72.22222222222223
-0.07,0.14,75.0
-0.075,0.135,77.77777777777777
-0.075,0.15,80.55555555555556
-0.08,0.155,83.33333333333333
-0.075,0.145,86.11111111111111
-0.07,0.14,88.88888888888889
-0.06,0.145,91.66666666666667
-0.065,0.17,94.44444444444444
-0.055,0.185,97.22222222222223
-0.055,0.17,100.0
-0.05,0.17,102.77777777777777
-0.05,0.15,105.55555555555556
-0.05,0.14,108.33333333333333
-0.06,0.135,111.11111111111111
-0.065,0.145,113.88888888888889
-0.065,0.145,116.66666666666667
-0.08,0.145,119.44444444444444
-0.065,0.15,122.22222222222223
-0.065,0.14,125.0
-0.06,0.16,127.77777777777777
-0.055,0.17,130.55555555555554
-0.055,0.17,133.33333333333334
-0.05,0.17,136.11111111111111
-0.05,0.14,138.88888888888889
-0.065,0.14,141.66666666666666
-0.065,0.13,144.44444444444446
-0.06,0.15,147.22222222222223
-0.05,0.155,150.0
-0.05,0.145,152.77777777777777
-0.045,0.15,155.55555555555554
-0.045,0.14,158.33333333333334
-0.05,0.15,161.11111111111111
-0.05,0.17,163.88888888888889
-0.05,0.175,166.66666666666666
-0.045,0.165,169.44444444444446
-0.055,0.155,172.22222222222223
-0.05,0.14,175.0
-0.065,0.14,177.77777777777777
-0.08,0.14,180.55555555555554
-0.08,0.15,183.33333333333334
-0.065,0.15,186.11111111111111
-0.06,0.155,188.88888888888889
-0.055,0.16,191.66666666666666
-0.05,0.175,194.44444444444446
-0.05,0.195,197.22222222222223
-0.035,0.19,200.0
-0.02,0.185,202.77777777777777
-0.015,0.175,205.55555555555554
-0.02,0.175,208.33333333333334
-0.015,0.18,211.11111111111111
-0.01,0.215,213.88888888888889
0.005,0.195,216.66666666666666
0.015,0.195,219.44444444444446
0.025,0.19,222.22222222222223
0.035,0.195,225.0
0.06,0.205,227.77777777777777
0.075,0.23,230.55555555555554
0.09,0.22,233.33333333333334
0.115,0.2,236.11111111111111
0.135,0.18,238.88888888888889
0.13,0.17,241.66666666666666
0.125,0.155,244.44444444444446
0.105,0.165,247.22222222222223
0.095,0.165,250.0
0.105,0.16,252.77777777777777
0.095,0.155,255.55555555555554
0.1,0.155,258.3333333333333
0.105,0.175,261.1111111111111
0.105,0.165,263.8888888888889
0.085,0.165,266.6666666666667
0.07,0.135,269.44444444444446
0.045,0.1,272.22222222222223
0.01,0.105,275.0
-0.02,0.125,277.77777777777777
-0.05,0.125,280.55555555555554
-0.07,0.135,283.3333333333333
-0.09,0.135,286.1111111111111
-0.095,0.135,288.8888888888889
-0.08,0.12,291.6666666666667
-0.08,0.135,294.44444444444446
-0.075,0.145,297.22222222222223
-0.085,0.145,300.0
-0.09,0.135,302.77777777777777
-0.095,0.115,305.55555555555554
-0.11,0.115,308.3333333333333
-0.12,0.115,311.1111111111111
-0.125,0.13,313.8888888888889
-0.135,0.135,316.6666666666667
-0.135,0.12,319.44444444444446
-0.14,0.12,322.22222222222223
-0.125,0.11,325.0
-0.125,0.13,327.77777777777777
-0.115,0.135,330.55555555555554
-0.13,0.14,333.3333333333333
-0.12,0.105,336.1111111111111
-0.125,0.09,338.8888888888889
-0.14,0.085,341.6666666666667
-0.155,0.095,344.44444444444446
-0.135,0.11,347.22222222222223
-0.07,0.1,350.0
0.025,0.085,352.77777777777777
0.19,0.08,355.55555555555554
0.395,0.075,358.3333333333333
0.635,0.085,361.1111111111111
0.9,0.12,363.8888888888889
1.18,0.185,366.6666666666667
1.415,0.26,369.44444444444446
1.595,0.39,372.22222222222223
1.66,0.525,375.0
1.575,0.645,377.77777777777777
1.37,0.73,380.55555555555554
1.065,0.735,383.3333333333333
0.72,0.645,386.1111111111111
0.38,0.495,388.8888888888889
0.11,0.335,391.6666666666667
-0.09,0.165,394.44444444444446
-0.185,0.055,397.22222222222223
-0.23,-0.02,400.0
-0.205,-0.02,402.77777777777777
-0.165,0.02,405.55555555555554
-0.12,0.075,408.3333333333333
-0.11,0.125,411.1111111111111
-0.125,0.13,413.8888888888889
-0.14,0.13,416.6666666666667
-0.155,0.11,419.44444444444446
-0.17,0.11,422.22222222222223
-0.185,0.12,425.0
-0.19,0.125,427.77777777777777
-0.18,0.125,430.55555555555554
-0.175,0.115,433.3333333333333
-0.155,0.1,436.1111111111111
-0.18,0.105,438.8888888888889
-0.18,0.105,441.6666666666667
-0.18,0.1,444.44444444444446
-0.19,0.085,447.22222222222223
-0.205,0.07,450.0
-0.22,0.08,452.77777777777777
-0.215,0.105,455.55555555555554
-0.19,0.115,458.3333333333333
-0.17,0.115,461.1111111111111
-0.155,0.095,463.8888888888889
-0.15,0.09,466.6666666666667
-0.15,0.105,469.44444444444446
-0.17,0.095,472.22222222222223
-0.175,0.075,475.0
-0.165,0.07,477.77777777777777
-0.175,0.08,480.55555555555554
-0.19,0.085,483.3333333333333
-0.19,0.1,486.1111111111111
-0.185,0.09,488.8888888888889
-0.155,0.08,491.6666666666667
-0.14,0.09,494.44444444444446
-0.13,0.08,497.22222222222223
-0.13,0.09,500.0
-0.135,0.085,502.77777777777777
-0.135,0.06,505.55555555555554
-0.14,0.04,508.3333333333333
-0.14,0.03,511.1111111111111
-0.15,0.03,513.8888888888889
-0.155,0.045,516.6666666666666
-0.145,0.04,519.4444444444445
-0.15,0.04,522.2222222222222
-0.145,0.03,525.0
-0.12,0.03,527.7777777777778
-0.105,0.045,530.5555555555555
-0.095,0.04,533.3333333333334
-0.085,0.025,536.1111111111111
-0.08,0.02,538.8888888888889
-0.08,0.0,541.6666666666666
-0.08,0.0,544.4444444444445
-0.085,0.0,547.2222222222222
-0.08,0.0,550.0
-0.095,0.0,552.7777777777778
-0.075,-0.01,555.5555555555555
-0.07,-0.025,558.3333333333334
-0.065,-0.005,561.1111111111111
-0.045,0.0,563.8888888888889
-0.025,-0.01,566.6666666666666
-0.025,-0.01,569.4444444444445
-0.02,-0.025,572.2222222222222
-0.02,-0.035,575.0
-0.03,-0.03,577.7777777777778
-0.035,-0.04,580.5555555555555
-0.03,-0.035,583.3333333333334
-0.035,-0.045,586.1111111111111
-0.035,-0.045,588.8888888888889
-0.035,-0.04,591.6666666666666
-0.035,-0.02,594.4444444444445
-0.03,-0.01,597.2222222222222
-0.025,-0.025,600.0
-0.01,-0.03,602.7777777777778
-0.01,-0.03,605.5555555555555
-0.02,-0.02,608.3333333333334
-0.035,-0.01,611.1111111111111
-0.03,0.0,613.8888888888889
-0.025,-0.005,616.6666666666666
-0.01,0.0,619.4444444444445
0.0,0.005,622.2222222222222
0.02,0.04,625.0
0.04,0.07,627.7777777777778
0.065,0.085,630.5555555555555
0.065,0.095,633.3333333333334
0.06,0.095,636.1111111111111
0.055,0.11,638.8888888888889
0.075,0.12,641.6666666666666
0.07,0.135,644.4444444444445
0.06,0.13,647.2222222222222
0.055,0.125,650.0
0.045,0.11,652.7777777777778
0.035,0.115,655.5555555555555
0.045,0.135,658.3333333333334
0.04,0.155,661.1111111111111
0.045,0.15,663.8888888888889
0.04,0.145,666.6666666666666
0.045,0.125,669.4444444444445
0.045,0.135,672.2222222222222
0.03,0.15,675.0
0.02,0.155,677.7777777777778
0.03,0.16,680.5555555555555
0.02,0.16,683.3333333333334
0.025,0.14,686.1111111111111
0.03,0.155,688.8888888888889
0.03,0.155,691.6666666666666
0.035,0.175,694.4444444444445
0.035,0.18,697.2222222222222
0.03,0.16,700.0
0.03,0.145,702.7777777777778
0.035,0.135,705.5555555555555
0.035,0.14,708.3333333333334
0.03,0.15,711.1111111111111
0.03,0.14,713.8888888888889
0.03,0.14,716.6666666666666
0.025,0.13,719.4444444444445
0.03,0.135,722.2222222222222
0.03,0.165,725.0
0.035,0.165,727.7777777777778
0.04,0.175,730.5555555555555
0.04,0.165,733.3333333333334
0.045,0.16,736.1111111111111
0.045,0.13,738.8888888888889
0.03,0.125,741.6666666666666
0.03,0.14,744.4444444444445
0.015,0.13,747.2222222222222
0.045,0.13,750.0
0.045,0.135,752.7777777777778
0.055,0.135,755.5555555555555
0.045,0.145,758.3333333333334
0.055,0.17,761.1111111111111
0.06,0.175,763.8888888888889
0.055,0.165,766.6666666666666
0.055,0.15,769.4444444444445
0.06,0.13,772.2222222222222
0.045,0.11,775.0
0.05,0.135,777.7777777777778
0.035,0.14,780.5555555555555
0.04,0.14,783.3333333333334
0.05,0.13,786.1111111111111
0.055,0.12,788.8888888888889
0.06,0.135,791.6666666666666
0.07,0.15,794.4444444444445
0.08,0.175,797.2222222222222
0.07,0.18,800.0
0.07,0.165,802.7777777777778
0.045,0.135,805.5555555555555
0.045,0.125,808.3333333333334
0.035,0.135,811.1111111111111
0.035,0.13,813.8888888888889
0.035,0.145,816.6666666666666
0.045,0.13,819.4444444444445
0.05,0.13,822.2222222222222
0.045,0.13,825.0
0.055,0.15,827.7777777777778
0.06,0.165,830.5555555555555
0.065,0.165,833.3333333333334
0.055,0.155,836.1111111111111
0.07,0.135,838.8888888888889
0.065,0.135,841.6666666666666
0.055,0.155,844.4444444444445
0.055,0.17,847.2222222222222
0.06,0.19,850.0
0.08,0.175,852.7777777777778
0.1,0.19,855.5555555555555
0.11,0.195,858.3333333333334
0.13,0.21,861.1111111111111
0.13,0.23,863.8888888888889
0.14,0.22,866.6666666666666
0.17,0.205,869.4444444444445
0.18,0.185,872.2222222222222
0.195,0.175,875.0
0.195,0.17,877.7777777777778
0.205,0.185,880.5555555555555
0.215,0.165,883.3333333333334
0.21,0.165,886.1111111111111
0.21,0.15,888.8888888888889
0.21,0.155,891.6666666666666
0.215,0.175,894.4444444444445
0.215,0.175,897.2222222222222
0.22,0.18,900.0
0.22,0.155,902.7777777777778
0.205,0.12,905.5555555555555
0.18,0.095,908.3333333333334
0.15,0.085,911.1111111111111
0.125,0.1,913.8888888888889
0.09,0.115,916.6666666666666
0.07,0.115,919.4444444444445
0.065,0.115,922.2222222222222
0.045,0.14,925.0
0.04,0.155,927.7777777777778
0.04,0.155,930.5555555555555
0.04,0.155,933.3333333333334
0.02,0.13,936.1111111111111
0.015,0.11,938.8888888888889
0.01,0.09,941.6666666666666
0.01,0.08,944.4444444444445
-0.01,0.1,947.2222222222222
-0.005,0.115,950.0
-0.01,0.105,952.7777777777778
-0.02,0.1,955.5555555555555
-0.02,0.11,958.3333333333334
-0.02,0.11,961.1111111111111
-0.01,0.12,963.8888888888889
-0.015,0.125,966.6666666666666
-0.01,0.115,969.4444444444445
-0.01,0.105,972.2222222222222
-0.02,0.08,975.0
-0.04,0.075,977.7777777777778
-0.035,0.07,980.5555555555555
-0.06,0.085,983.3333333333334
-0.065,0.075,986.1111111111111
-0.04,0.085,988.8888888888889
0.02,0.095,991.6666666666666
0.115,0.11,994.4444444444445
0.24,0.105,997.2222222222222
0.395,0.095,1000.0
0.6,0.075,1002.7777777777778
0.855,0.055,1005.5555555555555
1.11,0.06,1008.3333333333334
1.37,0.125,1011.1111111111111
1.59,0.215,1013.8888888888889
1.735,0.35,1016.6666666666666
1.77,0.475,1019.4444444444445
1.64,0.585,1022.2222222222222
1.41,0.63,1025.0
1.09,0.61,1027.7777777777778
0.74,0.535,1030.5555555555557
0.425,0.38,1033.3333333333333
0.175,0.215,1036.111111111111
-0.01,0.06,1038.888888888889
-0.095,-0.045,1041.6666666666667
-0.11,-0.055,1044.4444444444443
-0.1,-0.035,1047.2222222222222
-0.06,0.035,1050.0
-0.025,0.08,1052.7777777777778
-0.01,0.105,1055.5555555555557
-0.035,0.105,1058.3333333333333
-0.055,0.11,1061.111111111111
-0.075,0.115,1063.888888888889
-0.11,0.1,1066.6666666666667
-0.12,0.09,1069.4444444444443
-0.125,0.075,1072.2222222222222
-0.12,0.06,1075.0
-0.12,0.07,1077.7777777777778
-0.12,0.085,1080.5555555555557
-0.14,0.1,1083.3333333333333
-0.125,0.09,1086.111111111111
-0.125,0.075,1088.888888888889
-0.125,0.075,1091.6666666666667
-0.12,0.09,1094.4444444444443
-0.12,0.105,1097.2222222222222
-0.115,0.115,1100.0
-0.115,0.1,1102.7777777777778
-0.11,0.075,1105.5555555555557
-0.135,0.07,1108.3333333333333
-0.135,0.06,1111.111111111111
-0.145,0.07,1113.888888888889
-0.14,0.065,1116.6666666666667
-0.13,0.055,1119.4444444444443
-0.12,0.07,1122.2222222222222
-0.12,0.07,1125.0
-0.12,0.085,1127.7777777777778
-0.11,0.08,1130.5555555555557
-0.105,0.075,1133.3333333333333
-0.105,0.055,1136.111111111111
-0.115,0.045,1138.888888888889
-0.115,0.045,1141.6666666666667
-0.125,0.05,1144.4444444444443
-0.125,0.065,1147.2222222222222
-0.115,0.06,1150.0
-0.11,0.06,1152.7777777777778
-0.1,0.05,1155.5555555555557
-0.095,0.06,1158.3333333333333
-0.085,0.08,1161.111111111111
-0.075,0.07,1163.888888888889
-0.07,0.055,1166.6666666666667
-0.065,0.035,1169.4444444444443
-0.08,0.03,1172.2222222222222
-0.095,0.015,1175.0
-0.095,0.035,1177.7777777777778
-0.095,0.035,1180.5555555555557
-0.09,0.015,1183.3333333333333
-0.08,0.0,1186.111111111111
-0.08,0.01,1188.888888888889
-0.06,0.015,1191.6666666666667
-0.06,0.015,1194.4444444444443
-0.03,0.01,1197.2222222222222
-0.03,0.0,1200.0
-0.025,-0.02,1202.7777777777778
-0.035,-0.015,1205.5555555555557
-0.035,-0.005,1208.3333333333333
-0.055,-0.01,1211.111111111111
-0.045,-0.03,1213.888888888889
-0.05,-0.06,1216.6666666666667
-0.04,-0.06,1219.4444444444443
-0.03,-0.04,1222.2222222222222
-0.02,-0.025,1225.0
0.0,-0.02,1227.7777777777778
0.01,-0.025,1230.5555555555557
0.005,-0.05,1233.3333333333333
0.005,-0.055,1236.111111111111
-0.015,-0.05,1238.888888888889
-0.025,-0.05,1241.6666666666667
-0.025,-0.06,1244.4444444444443
-0.035,-0.07,1247.2222222222222
-0.025,-0.075,1250.0
-0.02,-0.065,1252.7777777777778
-0.03,-0.05,1255.5555555555557
-0.02,-0.02,1258.3333333333333
0.0,-0.015,1261.111111111111
0.01,-0.01,1263.888888888889
0.005,-0.015,1266.6666666666667
0.0,-0.01,1269.4444444444443
0.005,0.005,1272.2222222222222
-0.005,0.02,1275.0
0.0,0.02,1277.7777777777778
0.0,0.02,1280.5555555555557
0.015,0.02,1283.3333333333333
0.015,0.05,1286.111111111111
0.02,0.08,1288.888888888889
0.04,0.11,1291.6666666666667
0.06,0.13,1294.4444444444443
0.07,0.12,1297.2222222222222
0.07,0.115,1300.0
0.07,0.11,1302.7777777777778
0.05,0.11,1305.5555555555557
0.035,0.12,1308.3333333333333
0.025,0.115,1311.111111111111
0.02,0.1,1313.888888888889
0.03,0.11,1316.6666666666667
0.015,0.105,1319.4444444444443
0.015,0.115,1322.2222222222222
0.02,0.14,1325.0
0.03,0.16,1327.7777777777778
0.035,0.16,1330.5555555555557
0.035,0.15,1333.3333333333333
0.04,0.14,1336.111111111111
0.045,0.125,1338.888888888889
0.025,0.135,1341.6666666666667
0.025,0.14,1344.4444444444443
0.015,0.135,1347.2222222222222
0.01,0.115,1350.0
0.0,0.095,1352.7777777777778
-0.005,0.105,1355.5555555555557
-0.005,0.13,1358.3333333333333
-0.005,0.145,1361.111111111111
0.005,0.155,1363.888888888889
0.02,0.135,1366.6666666666667
0.03,0.12,1369.4444444444443
0.045,0.12,1372.2222222222222
0.03,0.13,1375.0
0.03,0.12,1377.7777777777778
0.01,0.12,1380.5555555555557
-0.005,0.11,1383.3333333333333
-0.005,0.105,1386.111111111111
0.005,0.115,1388.888888888889
0.005,0.13,1391.6666666666667
0.01,0.15,1394.4444444444443
0.02,0.155,1397.2222222222222
0.03,0.135,1400.0
0.025,0.13,1402.7777777777778
0.025,0.115,1405.5555555555557
0.025,0.12,1408.3333333333333
0.025,0.135,1411.111111111111
0.005,0.125,1413.888888888889
0.025,0.115,1416.6666666666667
0.02,0.1,1419.4444444444443
0.025,0.105,1422.2222222222222
0.025,0.105,1425.0
0.03,0.14,1427.7777777777778
0.04,0.155,1430.5555555555557
0.02,0.145,1433.3333333333333
0.03,0.135,1436.111111111111
0.03,0.12,1438.888888888889
0.035,0.115,1441.6666666666667
0.035,0.125,1444.4444444444443
0.035,0.145,1447.2222222222222
0.04,0.13,1450.0
0.04,0.125,1452.7777777777778
0.035,0.125,1455.5555555555557
0.04,0.14,1458.3333333333333
0.035,0.155,1461.111111111111
0.035,0.15,1463.888888888889
0.03,0.15,1466.6666666666667
0.03,0.12,1469.4444444444443
0.035,0.11,1472.2222222222222
0.025,0.09,1475.0
0.02,0.105,1477.7777777777778
0.01,0.115,1480.5555555555557
0.025,0.125,1483.3333333333333
0.015,0.125,1486.111111111111
0.035,0.125,1488.888888888889
0.04,0.12,1491.6666666666667
0.025,0.15,1494.4444444444443
0.03,0.16,1497.2222222222222
0.045,0.16,1500.0
0.055,0.155,1502.7777777777778
0.06,0.15,1505.5555555555557
0.055,0.16,1508.3333333333333
0.05,0.17,1511.111111111111
0.06,0.17,1513.888888888889
0.07,0.175,1516.6666666666667
0.085,0.175,1519.4444444444443
0.11,0.175,1522.2222222222222
0.12,0.175,1525.0
0.14,0.185,1527.7777777777778
0.16,0.195,1530.5555555555557
0.165,0.195,1533.3333333333333
0.19,0.185,1536.111111111111
0.205,0.165,1538.888888888889
0.205,0.135,1541.6666666666667
0.2,0.12,1544.4444444444443
0.175,0.125,1547.2222222222222
0.155,0.14,1550.0
0.155,0.15,1552.7777777777778
0.165,0.14,1555.5555555555557
0.18,0.125,1558.3333333333333
0.195,0.13,1561.111111111111
0.21,0.13,1563.888888888889
0.19,0.14,1566.6666666666667
0.17,0.14,1569.4444444444443
0.155,0.11,1572.2222222222222
0.115,0.08,1575.0
0.095,0.075,1577.7777777777778
0.055,0.08,1580.5555555555557
0.035,0.11,1583.3333333333333
0.015,0.135,1586.111111111111
0.015,0.13,1588.888888888889
0.005,0.115,1591.6666666666667
-0.005,0.105,1594.4444444444443
0.0,0.09,1597.2222222222222
-0.025,0.09,1600.0
-0.035,0.105,1602.7777777777778
-0.04,0.105,1605.5555555555557
-0.04,0.1,1608.3333333333333
-0.05,0.07,1611.111111111111
-0.065,0.055,1613.888888888889
-0.08,0.085,1616.6666666666667
-0.09,0.1,1619.4444444444443
-0.08,0.105,1622.2222222222222
-0.075,0.115,1625.0
-0.08,0.095,1627.7777777777778
-0.065,0.105,1630.5555555555557
-0.06,0.1,1633.3333333333333
-0.07,0.12,1636.111111111111
-0.07,0.105,1638.888888888889
-0.07,0.08,1641.6666666666667
-0.075,0.065,1644.4444444444443
-0.105,0.04,1647.2222222222222
-0.11,0.04,1650.0
-0.11,0.06,1652.7777777777778
-0.075,0.095,1655.5555555555557
0.005,0.1,1658.3333333333333
0.115,0.09,1661.111111111111
0.255,0.05,1663.888888888889
0.435,0.035,1666.6666666666667
0.655,0.035,1669.4444444444443
0.905,0.045,1672.2222222222222
1.175,0.09,1675.0
1.44,0.135,1677.7777777777778
1.645,0.23,1680.5555555555557
1.745,0.335,1683.3333333333333
1.69,0.465,1686.111111111111
1.52,0.57,1688.888888888889
1.245,0.6,1691.6666666666667
0.915,0.565,1694.4444444444443
0.575,0.43,1697.2222222222222
0.27,0.265,1700.0
0.045,0.13,1702.7777777777778
-0.09,0.005,1705.5555555555557
-0.15,-0.06,1708.3333333333333
-0.155,-0.075,1711.111111111111
-0.12,-0.045,1713.888888888889
-0.095,0.015,1716.6666666666667
-0.08,0.065,1719.4444444444443
-0.085,0.125,1722.2222222222222
-0.1,0.105,1725.0
-0.12,0.105,1727.7777777777778
-0.14,0.085,1730.5555555555557
-0.16,0.085,1733.3333333333333
-0.17,0.09,1736.111111111111
-0.18,0.11,1738.888888888889
-0.175,0.08,1741.6666666666667
-0.165,0.06,1744.4444444444443
-0.165,0.055,1747.2222222222222
-0.185,0.07,1750.0
-0.18,0.08,1752.7777777777778
-0.175,0.105,1755.5555555555557
-0.175,0.095,1758.3333333333333
-0.17,0.085,1761.111111111111
-0.165,0.08,1763.888888888889
-0.175,0.075,1766.6666666666667
-0.175,0.095,1769.4444444444443
-0.185,0.09,1772.2222222222222
-0.185,0.07,1775.0
-0.185,0.045,1777.7777777777778
-0.18,0.055,1780.5555555555557
-0.18,0.065,1783.3333333333333
-0.175,0.055,1786.111111111111
-0.16,0.075,1788.888888888889
-0.155,0.075,1791.6666666666667
-0.16,0.075,1794.4444444444443
-0.145,0.065,1797.2222222222222
-0.15,0.085,1800.0
-0.165,0.095,1802.7777777777778
-0.16,0.085,1805.5555555555557
-0.155,0.06,1808.3333333333333
-0.175,0.04,1811.111111111111
-0.175,0.025,1813.888888888889
-0.165,0.035,1816.6666666666667
-0.165,0.055,1819.4444444444443
-0.16,0.06,1822.2222222222222
-0.145,0.06,1825.0
-0.125,0.05,1827.7777777777778
-0.125,0.055,1830.5555555555557
-0.125,0.045,1833.3333333333333
-0.14,0.055,1836.111111111111
-0.135,0.035,1838.888888888889
-0.135,0.005,1841.6666666666667
-0.135,-0.005,1844.4444444444443
-0.14,-0.005,1847.2222222222222
-0.14,0.005,1850.0
-0.125,0.015,1852.7777777777778
-0.11,0.01,1855.5555555555557
-0.115,0.005,1858.3333333333333
-0.1,0.0,1861.111111111111
-0.095,0.0,1863.888888888889
-0.095,0.015,1866.6666666666667
-0.1,0.015,1869.4444444444443
-0.09,-0.02,1872.2222222222222
-0.095,-0.04,1875.0
-0.09,-0.065,1877.7777777777778
-0.095,-0.065,1880.5555555555557
-0.1,-0.055,1883.3333333333333
-0.095,-0.04,1886.111111111111
-0.08,-0.035,1888.888888888889
-0.055,-0.04,1891.6666666666667
-0.04,-0.05,1894.4444444444443
-0.03,-0.025,1897.2222222222222
-0.025,-0.02,1900.0
-0.025,-0.015,1902.7777777777778
-0.035,-0.035,1905.5555555555557
-0.04,-0.05,1908.3333333333333
-0.05,-0.08,1911.111111111111
-0.055,-0.06,1913.888888888889
-0.07,-0.05,1916.6666666666667
-0.065,-0.025,1919.4444444444443
-0.05,-0.04,1922.2222222222222
-0.04,-0.045,1925.0
-0.025,-0.045,1927.7777777777778
-0.025,-0.025,1930.5555555555557
-0.005,-0.02,1933.3333333333333
-0.02,-0.01,1936.111111111111
-0.01,-0.01,1938.888888888889
-0.015,-0.01,1941.6666666666667
-0.015,0.015,1944.4444444444443
-0.02,0.03,1947.2222222222222
-0.015,0.05,1950.0
-0.015,0.06,1952.7777777777778
0.0,0.065,1955.5555555555557
0.015,0.07,1958.3333333333333
0.015,0.11,1961.111111111111
0.03,0.13,1963.888888888889
0.03,0.14,1966.6666666666667
0.025,0.135,1969.4444444444443
0.015,0.12,1972.2222222222222
0.005,0.09,1975.0
-0.005,0.115,1977.7777777777778
-0.02,0.125,1980.5555555555557
-0.03,0.13,1983.3333333333333
-0.03,0.135,1986.111111111111
-0.02,0.12,1988.888888888889
-0.025,0.115,1991.6666666666667
-0.015,0.135,1994.4444444444443
-0.02,0.145,1997.2222222222222
-0.015,0.14,2000.0
-0.015,0.125,2002.7777777777778
-0.02,0.115,2005.5555555555557
-0.035,0.11,2008.3333333333333
-0.045,0.11,2011.111111111111
-0.045,0.12,2013.888888888889
-0.06,0.125,2016.6666666666667
-0.065,0.12,2019.4444444444443
-0.06,0.115,2022.2222222222222
-0.06,0.135,2025.0
-0.045,0.155,2027.7777777777778
-0.03,0.165,2030.5555555555557
-0.02,0.15,2033.3333333333333
-0.01,0.135,2036.111111111111
-0.015,0.115,2038.888888888889
-0.03,0.115,2041.6666666666667
-0.035,0.12,2044.4444444444443
-0.05,0.105,2047.2222222222222
-0.05,0.1,2050.0
-0.055,0.105,2052.777777777778
-0.045,0.12,2055.5555555555557
-0.04,0.135,2058.3333333333335
-0.03,0.145,2061.1111111111113
-0.02,0.145,2063.8888888888887
-0.015,0.12,2066.6666666666665
-0.015,0.12,2069.4444444444443
-0.015,0.13,2072.222222222222
-0.02,0.135,2075.0
-0.035,0.12,2077.777777777778
-0.04,0.105,2080.5555555555557
-0.045,0.09,2083.3333333333335
-0.045,0.11,2086.1111111111113
-0.035,0.12,2088.8888888888887
-0.03,0.145,2091.6666666666665
-0.02,0.155,2094.4444444444443
-0.005,0.145,2097.222222222222
0.005,0.145,2100.0
-0.005,0.135,2102.777777777778
0.0,0.13,2105.5555555555557
-0.015,0.125,2108.3333333333335
-0.03,0.12,2111.1111111111113
-0.035,0.1,2113.8888888888887
-0.035,0.095,2116.6666666666665
-0.03,0.1,2119.4444444444443
-0.05,0.11,2122.222222222222
-0.045,0.145,2125.0
-0.055,0.16,2127.777777777778
-0.04,0.155,2130.5555555555557
-0.035,0.14,2133.3333333333335
-0.03,0.13,2136.1111111111113
-0.03,0.13,2138.8888888888887
-0.025,0.14,2141.6666666666665
-0.03,0.15,2144.4444444444443
-0.035,0.125,2147.222222222222
-0.035,0.11,2150.0
-0.03,0.105,2152.777777777778
-0.015,0.12,2155.5555555555557
-0.015,0.14,2158.3333333333335
-0.005,0.165,2161.1111111111113
0.02,0.185,2163.8888888888887
0.04,0.16,2166.6666666666665
0.045,0.175,2169.4444444444443
0.05,0.17,2172.222222222222
0.045,0.18,2175.0
0.045,0.185,2177.777777777778
0.05,0.18,2180.5555555555557
0.065,0.175,2183.3333333333335
0.085,0.165,2186.1111111111113
0.095,0.175,2188.8888888888887
0.105,0.175,2191.6666666666665
0.125,0.185,2194.4444444444443
0.13,0.185,2197.222222222222
0.145,0.16,2200.0
0.125,0.135,2202.777777777778
0.11,0.14,2205.5555555555557
0.12,0.13,2208.3333333333335
0.115,0.135,2211.1111111111113
0.12,0.135,2213.8888888888887
0.12,0.12,2216.6666666666665
0.105,0.105,2219.4444444444443
0.09,0.09,2222.222222222222
0.07,0.11,2225.0
0.035,0.11,2227.777777777778
0.025,0.12,2230.5555555555557
0.0,0.115,2233.3333333333335
-0.01,0.12,2236.1111111111113
-0.02,0.105,2238.8888888888887
-0.04,0.125,2241.6666666666665
-0.06,0.13,2244.4444444444443
-0.075,0.125,2247.222222222222
-0.09,0.115,2250.0
-0.09,0.1,2252.777777777778
-0.095,0.095,2255.5555555555557
-0.1,0.1,2258.3333333333335
-0.105,0.1,2261.1111111111113
-0.1,0.13,2263.8888888888887
-0.1,0.115,2266.6666666666665
-0.1,0.105,2269.4444444444443
-0.1,0.085,2272.222222222222
-0.115,0.07,2275.0
-0.12,0.07,2277.777777777778
-0.13,0.095,2280.5555555555557
-0.13,0.1,2283.3333333333335
-0.125,0.09,2286.1111111111113
-0.115,0.09,2288.8888888888887
-0.105,0.095,2291.6666666666665
-0.11,0.105,2294.4444444444443
-0.11,0.12,2297.222222222222
-0.13,0.115,2300.0
-0.145,0.09,2302.777777777778
-0.13,0.075,2305.5555555555557
-0.1,0.07,2308.3333333333335
-0.04,0.085,2311.1111111111113
0.055,0.09,2313.8888888888887
0.18,0.08,2316.6666666666665
0.36,0.055,2319.4444444444443
0.575,0.02,2322.222222222222
0.835,0.03,2325.0
1.115,0.08,2327.777777777778
1.375,0.17,2330.5555555555557
1.585,0.285,2333.3333333333335
1.69,0.395,2336.1111111111113
1.68,0.49,2338.8888888888887
1.525,0.565,2341.6666666666665
1.255,0.6,2344.4444444444443
0.95,0.57,2347.222222222222
0.63,0.49,2350.0
0.32,0.35,2352.777777777778
0.085,0.19,2355.5555555555557
-0.06,0.05,2358.3333333333335
-0.135,-0.04,2361.1111111111113
-0.155,-0.04,2363.8888888888887
-0.145,-0.01,2366.6666666666665
-0.11,0.035,2369.4444444444443
-0.085,0.065,2372.222222222222
-0.065,0.07,2375.0
-0.085,0.065,2377.777777777778
-0.125,0.075,2380.5555555555557
-0.165,0.085,2383.3333333333335
-0.175,0.095,2386.1111111111113
-0.195,0.1,2388.8888888888887
-0.205,0.1,2391.6666666666665
-0.195,0.075,2394.4444444444443
-0.185,0.075,2397.222222222222
-0.18,0.09,2400.0
-0.195,0.095,2402.777777777778
-0.18,0.095,2405.5555555555557
-0.175,0.075,2408.3333333333335
-0.185,0.05,2411.1111111111113
-0.195,0.04,2413.8888888888887
-0.2,0.035,2416.6666666666665
-0.205,0.07,2419.4444444444443
-0.205,0.09,2422.222222222222
-0.2,0.09,2425.0
-0.195,0.08,2427.777777777778
-0.18,0.085,2430.5555555555557
-0.19,0.08,2433.3333333333335
-0.185,0.085,2436.1111111111113
-0.18,0.09,2438.8888888888887
-0.18,0.075,2441.6666666666665
-0.18,0.045,2444.4444444444443
-0.18,0.02,2447.222222222222
-0.185,0.025,2450.0
-0.185,0.04,2452.777777777778
-0.19,0.06,2455.5555555555557
-0.2,0.07,2458.3333333333335
-0.18,0.07,2461.1111111111113
-0.18,0.06,2463.8888888888887
-0.18,0.05,2466.6666666666665
-0.175,0.06,2469.4444444444443
-0.17,0.06,2472.222222222222
-0.18,0.05,2475.0
-0.175,0.04,2477.777777777778
-0.17,0.01,2480.5555555555557
-0.17,0.015,2483.3333333333335
-0.17,0.03,2486.1111111111113
-0.175,0.045,2488.8888888888887
-0.17,0.035,2491.6666666666665
-0.145,0.035,2494.4444444444443
-0.145,0.025,2497.222222222222
-0.15,0.005,2500.0
-0.15,0.02,2502.777777777778
-0.145,0.01,2505.5555555555557
-0.14,0.015,2508.3333333333335
-0.135,0.0,2511.1111111111113
-0.135,-0.03,2513.8888888888887
-0.125,-0.02,2516.6666666666665
-0.14,-0.025,2519.4444444444443
-0.12,-0.005,2522.222222222222
-0.115,-0.005,2525.0
-0.11,-0.025,2527.777777777778
-0.09,-0.025,2530.5555555555557
-0.085,-0.045,2533.3333333333335
-0.095,-0.035,2536.1111111111113
-0.095,-0.03,2538.8888888888887
-0.1,-0.035,2541.6666666666665
-0.09,-0.055,2544.4444444444443
-0.11,-0.08,2547.222222222222
-0.09,-0.085,2550.0
-0.085,-0.075,2552.777777777778
-0.08,-0.065,2555.5555555555557
-0.07,-0.05,2558.3333333333335
-0.075,-0.06,2561.1111111111113
-0.05,-0.08,2563.8888888888887
-0.055,-0.08,2566.6666666666665
-0.045,-0.08,2569.4444444444443
-0.05,-0.08,2572.222222222222
-0.07,-0.07,2575.0
-0.075,-0.075,2577.777777777778
-0.07,-0.105,2580.5555555555557
-0.08,-0.1,2583.3333333333335
-0.065,-0.09,2586.1111111111113
-0.07,-0.065,2588.8888888888887
-0.065,-0.05,2591.6666666666665
-0.045,-0.05,2594.4444444444443
-0.035,-0.05,2597.222222222222
-0.04,-0.06,2600.0
-0.025,-0.045,2602.777777777778
-0.025,-0.01,2605.5555555555557
-0.02,0.005,2608.3333333333335
-0.025,0.0,2611.1111111111113
-0.04,0.0,2613.8888888888887
-0.045,-0.01,2616.6666666666665
-0.035,0.005,2619.4444444444443
-0.03,0.045,2622.222222222222
-0.005,0.08,2625.0
-0.01,0.085,2627.777777777778
0.01,0.095,2630.5555555555557
0.01,0.09,2633.3333333333335
0.015,0.095,2636.1111111111113
0.02,0.09,2638.8888888888887
0.0,0.105,2641.6666666666665
-0.01,0.1,2644.4444444444443
-0.01,0.075,2647.222222222222
-0.02,0.07,2650.0
-0.025,0.085,2652.777777777778
-0.03,0.095,2655.5555555555557
-0.035,0.125,2658.3333333333335
-0.03,0.135,2661.1111111111113
-0.01,0.12,2663.8888888888887
0.0,0.105,2666.6666666666665
-0.01,0.1,2669.4444444444443
-0.01,0.105,2672.222222222222
-0.02,0.11,2675.0
-0.03,0.12,2677.777777777778
-0.03,0.12,2680.5555555555557
-0.04,0.095,2683.3333333333335
-0.045,0.095,2686.1111111111113
-0.035,0.1,2688.8888888888887
-0.04,0.11,2691.6666666666665
-0.035,0.125,2694.4444444444443
-0.03,0.11,2697.222222222222
-0.015,0.095,2700.0
-0.01,0.09,2702.777777777778
-0.01,0.105,2705.5555555555557
-0.015,0.105,2708.3333333333335
-0.01,0.11,2711.1111111111113
-0.025,0.09,2713.8888888888887
-0.035,0.075,2716.6666666666665
-0.04,0.075,2719.4444444444443
-0.045,0.095,2722.222222222222
-0.04,0.125,2725.0
-0.04,0.12,2727.777777777778
-0.03,0.12,2730.5555555555557
-0.015,0.105,2733.3333333333335
-0.015,0.095,2736.1111111111113
-0.025,0.095,2738.8888888888887
-0.01,0.11,2741.6666666666665
-0.02,0.11,2744.4444444444443
-0.03,0.09,2747.222222222222
-0.02,0.08,2750.0
-0.025,0.085,2752.777777777778
-0.025,0.1,2755.5555555555557
-0.035,0.12,2758.3333333333335
-0.035,0.115,2761.1111111111113
-0.035,0.115,2763.8888888888887
-0.01,0.1,2766.6666666666665
-0.01,0.095,2769.4444444444443
-0.01,0.12,2772.222222222222
-0.025,0.12,2775.0
-0.03,0.1,2777.777777777778
-0.025,0.09,2780.5555555555557
-0.03,0.085,2783.3333333333335
-0.045,0.115,2786.1111111111113
-0.025,0.125,2788.8888888888887
-0.03,0.135,2791.6666666666665
-0.03,0.135,2794.4444444444443
-0.02,0.11,2797.222222222222
-0.03,0.105,2800.0
-0.035,0.09,2802.777777777778
-0.045,0.095,2805.5555555555557
-0.045,0.095,2808.3333333333335
-0.05,0.09,2811.1111111111113
-0.065,0.09,2813.8888888888887
-0.05,0.09,2816.6666666666665
-0.055,0.12,2819.4444444444443
-0.025,0.125,2822.222222222222
-0.03,0.145,2825.0
-0.015,0.13,2827.777777777778
0.005,0.13,2830.5555555555557
0.005,0.15,2833.3333333333335
0.01,0.165,2836.1111111111113
0.015,0.17,2838.8888888888887
0.015,0.175,2841.6666666666665
0.02,0.155,2844.4444444444443
0.03,0.145,2847.222222222222
0.04,0.165,2850.0
0.06,0.175,2852.777777777778
0.075,0.18,2855.5555555555557
0.11,0.175,2858.3333333333335
0.145,0.15,2861.1111111111113
0.145,0.13,2863.8888888888887
0.15,0.125,2866.6666666666665
0.145,0.125,2869.4444444444443
0.12,0.125,2872.222222222222
0.105,0.105,2875.0
0.1,0.09,2877.777777777778
0.095,0.095,2880.5555555555557
0.095,0.1,2883.3333333333335
0.095,0.105,2886.1111111111113
0.075,0.125,2888.8888888888887
0.085,0.11,2891.6666666666665
0.075,0.1,2894.4444444444443
0.05,0.085,2897.222222222222
0.015,0.085,2900.0
0.0,0.1,2902.777777777778
-0.025,0.11,2905.5555555555557
-0.05,0.11,2908.3333333333335
-0.06,0.09,2911.1111111111113
-0.07,0.07,2913.8888888888887
-0.095,0.075,2916.6666666666665
-0.1,0.07,2919.4444444444443
-0.105,0.095,2922.222222222222
-0.1,0.1,2925.0
-0.09,0.085,2927.777777777778
-0.085,0.065,2930.5555555555557
-0.09,0.075,2933.3333333333335
-0.095,0.08,2936.1111111111113
-0.105,0.09,2938.8888888888887
-0.12,0.09,2941.6666666666665
-0.115,0.075,2944.4444444444443
-0.125,0.06,2947.222222222222
-0.13,0.06,2950.0
-0.14,0.085,2952.777777777778
-0.135,0.095,2955.5555555555557
-0.125,0.115,2958.3333333333335
-0.125,0.1,2961.1111111111113
-0.125,0.07,2963.8888888888887
-0.14,0.05,2966.6666666666665
-0.145,0.025,2969.4444444444443
-0.16,0.04,2972.222222222222
-0.17,0.055,2975.0
-0.12,0.07,2977.777777777778
-0.06,0.07,2980.5555555555557
0.03,0.045,2983.3333333333335
0.145,0.025,2986.1111111111113
0.31,0.0,2988.8888888888887
0.52,0.01,2991.6666666666665
0.775,0.035,2994.4444444444443
1.05,0.065,2997.222222222222
1.315,0.13,3000.0
1.525,0.235,3002.777777777778
1.645,0.33,3005.5555555555557
1.65,0.445,3008.3333333333335
1.505,0.56,3011.1111111111113
1.26,0.595,3013.8888888888887
0.955,0.59,3016.6666666666665
0.63,0.505,3019.4444444444443
0.335,0.365,3022.222222222222
0.1,0.22,3025.0
-0.055,0.09,3027.777777777778
-0.14,-0.02,3030.5555555555557
-0.165,-0.07,3033.3333333333335
-0.15,-0.085,3036.1111111111113
-0.12,-0.04,3038.8888888888887
-0.09,0.01,3041.6666666666665
-0.085,0.07,3044.4444444444443
-0.09,0.09,3047.222222222222
-0.11,0.095,3050.0
-0.155,0.085,3052.777777777778
-0.165,0.075,3055.5555555555557
-0.185,0.075,3058.3333333333335
-0.195,0.085,3061.1111111111113
-0.2,0.08,3063.8888888888887
-0.195,0.065,3066.6666666666665
-0.19,0.06,3069.4444444444443
-0.185,0.055,3072.222222222222
-0.195,0.075,3075.0
-0.2,0.085,3077.777777777778
-0.2,0.08,3080.5555555555557
-0.2,0.075,3083.3333333333335
-0.195,0.05,3086.1111111111113
-0.185,0.04,3088.8888888888887
-0.185,0.055,3091.6666666666665
-0.185,0.07,3094.4444444444443
-0.19,0.075,3097.222222222222
-0.18,0.07,3100.0
-0.175,0.05,3102.777777777778
-0.19,0.045,3105.5555555555557
-0.205,0.035,3108.3333333333335
-0.205,0.045,3111.1111111111113
-0.2,0.05,3113.8888888888887
-0.19,0.05,3116.6666666666665
-0.185,0.035,3119.4444444444443
-0.18,0.02,3122.222222222222
-0.165,0.035,3125.0
-0.155,0.055,3127.777777777778
-0.155,0.075,3130.5555555555557
-0.155,0.06,3133.3333333333335
-0.145,0.035,3136.1111111111113
-0.165,0.025,3138.8888888888887
-0.165,0.015,3141.6666666666665
-0.17,0.025,3144.4444444444443
-0.18,0.035,3147.222222222222
-0.175,0.045,3150.0
-0.17,0.02,3152.777777777778
-0.165,0.02,3155.5555555555557
-0.165,0.015,3158.3333333333335
-0.15,0.02,3161.1111111111113
-0.145,0.025,3163.8888888888887
-0.14,0.025,3166.6666666666665
-0.125,0.005,3169.4444444444443
-0.135,-0.015,3172.222222222222
-0.13,-0.03,3175.0
-0.145,-0.025,3177.777777777778
-0.15,-0.005,3180.5555555555557
-0.145,0.015,3183.3333333333335
-0.16,0.01,3186.1111111111113
-0.155,-0.01,3188.8888888888887
-0.14,-0.03,3191.6666666666665
-0.13,-0.025,3194.4444444444443
-0.11,-0.02,3197.222222222222
-0.105,-0.005,3200.0
-0.105,-0.015,3202.777777777778
-0.1,-0.03,3205.5555555555557
-0.09,-0.05,3208.3333333333335
-0.095,-0.075,3211.1111111111113
-0.1,-0.07,3213.8888888888887
-0.11,-0.055,3216.6666666666665
-0.11,-0.035,3219.4444444444443
-0.11,-0.045,3222.222222222222
-0.09,-0.04,3225.0
-0.075,-0.05,3227.777777777778
-0.07,-0.05,3230.5555555555557
-0.075,-0.04,3233.3333333333335
-0.07,-0.04,3236.1111111111113
-0.07,-0.05,3238.8888888888887
-0.065,-0.065,3241.6666666666665
-0.07,-0.075,3244.4444444444443
-0.07,-0.075,3247.222222222222
-0.065,-0.06,3250.0
-0.07,-0.035,3252.777777777778
-0.065,-0.02,3255.5555555555557
-0.065,-0.015,3258.3333333333335
-0.06,-0.03,3261.1111111111113
-0.045,-0.05,3263.8888888888887
-0.055,-0.045,3266.6666666666665
-0.06,-0.035,3269.4444444444443
-0.065,-0.02,3272.222222222222
-0.065,-0.035,3275.0
-0.07,-0.04,3277.777777777778
-0.055,-0.04,3280.5555555555557
-0.03,-0.03,3283.3333333333335
-0.015,0.02,3286.1111111111113
-0.005,0.06,3288.8888888888887
0.005,0.055,3291.6666666666665
0.01,0.06,3294.4444444444443
0.02,0.05,3297.222222222222
0.01,0.055,3300.0
0.015,0.07,3302.777777777778
0.01,0.095,3305.5555555555557
-0.01,0.105,3308.3333333333335
-0.02,0.1,3311.1111111111113
-0.035,0.09,3313.8888888888887
-0.005,0.095,3316.6666666666665
-0.005,0.1,3319.4444444444443
0.0,0.13,3322.222222222222
0.005,0.155,3325.0
0.01,0.14,3327.777777777778
0.01,0.12,3330.5555555555557
0.0,0.11,3333.3333333333335
0.0,0.11,3336.1111111111113
-0.015,0.115,3338.8888888888887
-0.025,0.12,3341.6666666666665
-0.025,0.11,3344.4444444444443
-0.03,0.105,3347.222222222222
-0.03,0.09,3350.0
-0.03,0.1,3352.777777777778
-0.025,0.115,3355.5555555555557
-0.025,0.145,3358.3333333333335
-0.01,0.155,3361.1111111111113
0.005,0.14,3363.8888888888887
-0.005,0.12,3366.6666666666665
0.0,0.105,3369.4444444444443
-0.02,0.09,3372.222222222222
-0.03,0.105,3375.0
-0.045,0.11,3377.777777777778
-0.045,0.1,3380.5555555555557
-0.055,0.1,3383.3333333333335
-0.04,0.105,3386.1111111111113
-0.04,0.11,3388.8888888888887
-0.025,0.14,3391.6666666666665
-0.02,0.13,3394.4444444444443
-0.01,0.135,3397.222222222222
0.0,0.11,3400.0
0.01,0.095,3402.777777777778
-0.005,0.095,3405.5555555555557
-0.015,0.105,3408.3333333333335
-0.025,0.115,3411.1111111111113
-0.02,0.105,3413.8888888888887
-0.025,0.105,3416.6666666666665
-0.03,0.08,3419.4444444444443
-0.025,0.095,3422.222222222222
-0.02,0.12,3425.0
-0.015,0.145,3427.777777777778
0.0,0.15,3430.5555555555557
0.0,0.135,3433.3333333333335
0.0,0.125,3436.1111111111113
-0.005,0.115,3438.8888888888887
0.0,0.11,3441.6666666666665
-0.015,0.12,3444.4444444444443
-0.015,0.13,3447.222222222222
-0.025,0.105,3450.0
-0.02,0.1,3452.777777777778
-0.035,0.085,3455.5555555555557
-0.03,0.105,3458.3333333333335
-0.02,0.13,3461.1111111111113
-0.015,0.135,3463.8888888888887
-0.005,0.145,3466.6666666666665
0.0,0.125,3469.4444444444443
-0.01,0.105,3472.222222222222
-0.015,0.095,3475.0
-0.02,0.1,3477.777777777778
-0.02,0.115,3480.5555555555557
-0.02,0.12,3483.3333333333335
-0.03,0.105,3486.1111111111113
-0.03,0.105,3488.8888888888887
-0.025,0.115,3491.6666666666665
-0.02,0.135,3494.4444444444443
-0.015,0.14,3497.222222222222
-0.02,0.145,3500.0
-0.02,0.145,3502.777777777778
-0.015,0.115,3505.5555555555557
-0.01,0.105,3508.3333333333335
-0.02,0.125,3511.1111111111113
-0.02,0.135,3513.8888888888887
0.0,0.145,3516.6666666666665
0.005,0.145,3519.4444444444443
0.01,0.155,3522.222222222222
0.025,0.175,3525.0
0.03,0.2,3527.777777777778
0.04,0.205,3530.5555555555557
0.065,0.195,3533.3333333333335
0.075,0.18,3536.1111111111113
0.075,0.16,3538.8888888888887
0.09,0.17,3541.6666666666665
0.105,0.17,3544.4444444444443
0.11,0.175,3547.222222222222
0.145,0.17,3550.0
0.16,0.155,3552.777777777778
0.155,0.14,3555.5555555555557
0.16,0.145,3558.3333333333335
0.15,0.165,3561.1111111111113
0.14,0.18,3563.8888888888887
0.13,0.17,3566.6666666666665
0.135,0.135,3569.4444444444443
0.12,0.095,3572.222222222222
0.095,0.085,3575.0
0.075,0.09,3577.777777777778
0.055,0.095,3580.5555555555557
0.04,0.095,3583.3333333333335
0.015,0.095,3586.1111111111113
0.015,0.095,3588.8888888888887
0.0,0.125,3591.6666666666665
-0.015,0.145,3594.4444444444443
-0.02,0.16,3597.222222222222
-0.045,0.145,3600.0
-0.055,0.12,3602.777777777778
-0.075,0.1,3605.5555555555557
-0.1,0.095,3608.3333333333335
-0.115,0.105,3611.1111111111113
-0.12,0.115,3613.8888888888887
-0.115,0.11,3616.6666666666665
-0.11,0.1,3619.4444444444443
-0.09,0.095,3622.222222222222
-0.105,0.105,3625.0
-0.095,0.12,3627.777777777778
-0.095,0.13,3630.5555555555557
-0.105,0.13,3633.3333333333335
-0.105,0.12,3636.1111111111113
-0.11,0.095,3638.8888888888887
-0.125,0.09,3641.6666666666665
-0.125,0.095,3644.4444444444443
-0.155,0.085,3647.222222222222
-0.16,0.08,3650.0
-0.17,0.055,3652.777777777778
-0.155,0.045,3655.5555555555557
-0.135,0.075,3658.3333333333335
-0.08,0.105,3661.1111111111113
0.015,0.11,3663.8888888888887
0.155,0.09,3666.6666666666665
0.345,0.065,3669.4444444444443
0.585,0.03,3672.222222222222
0.85,0.05,3675.0
1.105,0.12,3677.777777777778
1.355,0.22,3680.5555555555557
1.55,0.325,3683.3333333333335
1.62,0.46,3686.1111111111113
1.55,0.575,3688.8888888888887
1.33,0.66,3691.6666666666665
1.005,0.655,3694.4444444444443
0.64,0.55,3697.222222222222
0.305,0.375,3700.0
0.03,0.2,3702.777777777778
-0.135,0.055,3705.5555555555557
-0.215,-0.025,3708.3333333333335
-0.215,-0.04,3711.1111111111113
-0.195,-0.02,3713.8888888888887
-0.16,0.02,3716.6666666666665
-0.12,0.08,3719.4444444444443
-0.105,0.13,3722.222222222222
-0.11,0.145,3725.0
-0.135,0.15,3727.777777777778
-0.135,0.115,3730.5555555555557
-0.165,0.11,3733.3333333333335
-0.175,0.105,3736.1111111111113
-0.185,0.1,3738.8888888888887
-0.2,0.105,3741.6666666666665
-0.21,0.09,3744.4444444444443
-0.23,0.075,3747.222222222222
-0.225,0.065,3750.0
-0.225,0.07,3752.777777777778
-0.215,0.09,3755.5555555555557
-0.205,0.105,3758.3333333333335
-0.195,0.105,3761.1111111111113
-0.18,0.095,3763.8888888888887
-0.18,0.085,3766.6666666666665
-0.185,0.105,3769.4444444444443
-0.19,0.11,3772.222222222222
-0.2,0.11,3775.0
-0.2,0.1,3777.777777777778
-0.21,0.07,3780.5555555555557
-0.21,0.075,3783.3333333333335
-0.22,0.07,3786.1111111111113
-0.21,0.1,3788.8888888888887
-0.21,0.12,3791.6666666666665
-0.185,0.115,3794.4444444444443
-0.17,0.09,3797.222222222222
-0.17,0.075,3800.0
-0.175,0.08,3802.777777777778
-0.19,0.085,3805.5555555555557
-0.185,0.075,3808.3333333333335
-0.2,0.06,3811.1111111111113
-0.205,0.045,3813.8888888888887
-0.2,0.055,3816.6666666666665
-0.19,0.075,3819.4444444444443
-0.2,0.075,3822.222222222222
-0.185,0.09,3825.0
-0.175,0.07,3827.777777777778
-0.155,0.055,3830.5555555555557
-0.165,0.045,3833.3333333333335
-0.15,0.05,3836.1111111111113
-0.15,0.055,3838.8888888888887
-0.145,0.04,3841.6666666666665
-0.16,0.03,3844.4444444444443
-0.155,0.02,3847.222222222222
-0.175,0.025,3850.0
-0.18,0.03,3852.777777777778
-0.165,0.03,3855.5555555555557
-0.145,0.025,3858.3333333333335
-0.145,0.025,3861.1111111111113
-0.13,-0.005,3863.8888888888887
-0.115,-0.01,3866.6666666666665
-0.12,0.0,3869.4444444444443
-0.11,0.0,3872.222222222222
-0.115,-0.005,3875.0
-0.12,-0.025,3877.777777777778
-0.11,-0.04,3880.5555555555557
-0.12,-0.035,3883.3333333333335
-0.12,-0.015,3886.1111111111113
-0.115,0.0,3888.8888888888887
-0.115,0.01,3891.6666666666665
-0.11,0.015,3894.4444444444443
-0.105,0.0,3897.222222222222
-0.095,-0.005,3900.0
-0.1,-0.005,3902.777777777778
-0.085,-0.02,3905.5555555555557
-0.085,-0.025,3908.3333333333335
-0.085,-0.05,3911.1111111111113
-0.1,-0.055,3913.8888888888887
-0.115,-0.05,3916.6666666666665
-0.115,-0.015,3919.4444444444443
-0.11,0.005,3922.222222222222
-0.105,0.01,3925.0
-0.095,0.01,3927.777777777778
-0.08,0.005,3930.5555555555557
-0.085,0.005,3933.3333333333335
-0.08,0.015,3936.1111111111113
-0.075,0.03,3938.8888888888887
-0.07,0.025,3941.6666666666665
-0.06,0.025,3944.4444444444443
-0.06,0.03,3947.222222222222
-0.045,0.05,3950.0
-0.04,0.085,3952.777777777778
-0.025,0.11,3955.5555555555557
-0.02,0.125,3958.3333333333335
-0.03,0.13,3961.1111111111113
-0.025,0.12,3963.8888888888887
-0.025,0.13,3966.6666666666665
-0.025,0.13,3969.4444444444443
-0.04,0.155,3972.222222222222
-0.045,0.14,3975.0
-0.04,0.135,3977.777777777778
-0.045,0.135,3980.5555555555557
-0.045,0.12,3983.3333333333335
-0.05,0.15,3986.1111111111113
-0.05,0.17,3988.8888888888887
-0.055,0.175,3991.6666666666665
-0.04,0.165,3994.4444444444443
-0.04,0.165,3997.222222222222
-0.045,0.155,4000.0
-0.05,0.165,4002.777777777778
-0.065,0.17,4005.5555555555557
-0.085,0.185,4008.3333333333335
-0.09,0.17,4011.1111111111113
-0.09,0.15,4013.8888888888887
-0.09,0.13,4016.6666666666665
-0.085,0.135,4019.4444444444443
-0.08,0.155,4022.222222222222
-0.075,0.165,4025.0
-0.065,0.17,4027.777777777778
-0.05,0.15,4030.5555555555557
-0.04,0.15,4033.3333333333335
-0.045,0.15,4036.1111111111113
-0.055,0.155,4038.8888888888887
-0.06,0.175,4041.6666666666665
-0.085,0.155,4044.4444444444443
-0.08,0.145,4047.222222222222
-0.085,0.13,4050.0
-0.08,0.14,4052.777777777778
-0.09,0.16,4055.5555555555557
-0.065,0.16,4058.3333333333335
-0.075,0.17,4061.1111111111113
-0.045,0.155,4063.8888888888887
-0.035,0.145,4066.6666666666665
-0.05,0.15,4069.4444444444443
-0.065,0.155,4072.222222222222
-0.07,0.165,4075.0
-0.075,0.145,4077.777777777778
-0.09,0.14,4080.5555555555557
-0.085,0.13,4083.3333333333335
-0.095,0.145,4086.1111111111113
-0.085,0.16,4088.8888888888887
-0.07,0.19,4091.6666666666665
-0.065,0.18,4094.4444444444443
-0.045,0.16,4097.222222222223
-0.05,0.145,4100.0
-0.045,0.16,4102.777777777777
-0.045,0.155,4105.555555555556
-0.065,0.145,4108.333333333333
-0.075,0.145,4111.111111111111
-0.07,0.15,4113.888888888889
-0.065,0.145,4116.666666666667
-0.075,0.17,4119.444444444444
-0.075,0.185,4122.222222222223
-0.08,0.18,4125.0
-0.06,0.155,4127.777777777777
-0.06,0.155,4130.555555555556
-0.065,0.16,4133.333333333333
-0.06,0.17,4136.111111111111
-0.07,0.18,4138.888888888889
-0.065,0.17,4141.666666666667
-0.075,0.155,4144.444444444444
-0.08,0.15,4147.222222222223
-0.08,0.15,4150.0
-0.085,0.17,4152.777777777777
-0.08,0.18,4155.555555555556
-0.07,0.175,4158.333333333333
-0.07,0.165,4161.111111111111
-0.06,0.17,4163.888888888889
-0.04,0.185,4166.666666666667
-0.025,0.2,4169.444444444444
-0.02,0.2,4172.222222222223
-0.02,0.205,4175.0
0.0,0.21,4177.777777777777
0.0,0.2,4180.555555555556
0.01,0.22,4183.333333333333
0.02,0.235,4186.111111111111
0.035,0.25,4188.888888888889
0.045,0.24,4191.666666666667
0.06,0.235,4194.444444444444
0.08,0.215,4197.222222222223
0.105,0.21,4200.0
0.115,0.205,4202.777777777777
0.105,0.195,4205.555555555556
0.1,0.17,4208.333333333333
0.09,0.16,4211.111111111111
0.075,0.16,4213.888888888889
0.055,0.17,4216.666666666667
0.055,0.185,4219.444444444444
0.05,0.165,4222.222222222223
0.05,0.155,4225.0
0.045,0.155,4227.777777777777
0.035,0.145,4230.555555555556
0.005,0.16,4233.333333333333
-0.015,0.17,4236.111111111111
-0.04,0.155,4238.888888888889
-0.055,0.145,4241.666666666667
-0.07,0.14,4244.444444444444
-0.09,0.14,4247.222222222223
-0.1,0.15,4250.0
-0.11,0.155,4252.777777777777
-0.115,0.15,4255.555555555556
-0.12,0.145,4258.333333333333
-0.13,0.13,4261.111111111111
-0.13,0.125,4263.888888888889
-0.13,0.145,4266.666666666667
-0.14,0.16,4269.444444444444
-0.145,0.16,4272.222222222223
-0.155,0.145,4275.0
-0.15,0.135,4277.777777777777
-0.155,0.12,4280.555555555556
-0.16,0.135,4283.333333333333
-0.16,0.155,4286.111111111111
-0.165,0.18,4288.888888888889
-0.165,0.175,4291.666666666667
-0.16,0.15,4294.444444444444
-0.175,0.14,4297.222222222223
-0.18,0.135,4300.0
-0.195,0.135,4302.777777777777
-0.21,0.13,4305.555555555556
-0.215,0.11,4308.333333333333
-0.2,0.105,4311.111111111111
-0.14,0.105,4313.888888888889
-0.055,0.11,4316.666666666667
0.07,0.11,4319.444444444444
0.25,0.1,4322.222222222223
0.475,0.075,4325.0
0.715,0.08,4327.777777777777
0.965,0.095,4330.555555555556
1.19,0.19,4333.333333333333
1.415,0.31,4336.111111111111
1.525,0.445,4338.888888888889
1.53,0.57,4341.666666666667
1.39,0.675,4344.444444444444
1.14,0.715,4347.222222222223
0.825,0.68,4350.0
0.49,0.58,4352.777777777777
0.21,0.43,4355.555555555556
-0.01,0.24,4358.333333333333
-0.15,0.085,4361.111111111111
-0.225,0.005,4363.888888888889
-0.245,-0.02,4366.666666666667
-0.215,0.01,4369.444444444444
-0.185,0.075,4372.222222222223
-0.155,0.115,4375.0
-0.15,0.125,4377.777777777777
-0.16,0.14,4380.555555555556
-0.19,0.135,4383.333333333333
-0.2,0.15,4386.111111111111
-0.21,0.135,4388.888888888889
-0.205,0.135,4391.666666666667
-0.215,0.14,4394.444444444444
-0.205,0.145,4397.222222222223
-0.22,0.135,4400.0
-0.225,0.14,4402.777777777777
-0.225,0.135,4405.555555555556
-0.225,0.105,4408.333333333333
-0.24,0.1,4411.111111111111
-0.25,0.12,4413.888888888889
-0.26,0.125,4416.666666666667
-0.24,0.125,4419.444444444444
-0.225,0.135,4422.222222222223
-0.22,0.11,4425.0
-0.195,0.13,4427.777777777777
-0.195,0.115,4430.555555555556
-0.2,0.13,4433.333333333333
-0.21,0.13,4436.111111111111
-0.21,0.12,4438.888888888889
-0.22,0.1,4441.666666666667
-0.24,0.09,4444.444444444444
-0.25,0.085,4447.222222222223
-0.245,0.1,4450.0
-0.23,0.12,4452.777777777777
-0.235,0.125,4455.555555555556
-0.235,0.12,4458.333333333333
-0.22,0.13,4461.111111111111
-0.2,0.13,4463.888888888889
-0.19,0.135,4466.666666666667
-0.19,0.135,4469.444444444444
-0.2,0.095,4472.222222222223
-0.195,0.085,4475.0
-0.21,0.085,4477.777777777777
-0.215,0.085,4480.555555555556
-0.215,0.09,4483.333333333333
-0.22,0.08,4486.111111111111
-0.195,0.065,4488.888888888889
-0.185,0.06,4491.666666666667
-0.17,0.085,4494.444444444444
-0.155,0.08,4497.222222222223
-0.155,0.075,4500.0
-0.145,0.06,4502.777777777777
-0.15,0.05,4505.555555555556
-0.15,0.045,4508.333333333333
-0.16,0.055,4511.111111111111
-0.165,0.05,4513.888888888889
-0.16,0.05,4516.666666666667
-0.16,0.035,4519.444444444444
-0.13,0.035,4522.222222222223
-0.125,0.055,4525.0
-0.12,0.07,4527.777777777777
-0.11,0.055,4530.555555555556
-0.11,0.045,4533.333333333333
-0.1,0.025,4536.111111111111
-0.11,0.005,4538.888888888889
-0.125,-0.01,4541.666666666667
-0.125,0.005,4544.444444444444
-0.135,0.01,4547.222222222223
-0.12,-0.01,4550.0
-0.11,0.0,4552.777777777777
-0.11,0.01,4555.555555555556
-0.11,0.04,4558.333333333333
-0.105,0.035,4561.111111111111
-0.105,0.045,4563.888888888889
-0.1,0.025,4566.666666666667
-0.105,0.005,4569.444444444444
-0.115,0.01,4572.222222222223
-0.115,0.02,4575.0
-0.125,0.03,4577.777777777777
-0.11,0.02,4580.555555555556
-0.1,0.015,4583.333333333333
-0.09,0.025,4586.111111111111
-0.095,0.025,4588.888888888889
-0.07,0.055,4591.666666666667
-0.065,0.1,4594.444444444444
-0.045,0.095,4597.222222222223
-0.025,0.1,4600.0
-0.025,0.095,4602.777777777777
-0.015,0.105,4605.555555555556
-0.025,0.125,4608.333333333333
-0.03,0.135,4611.111111111111
-0.045,0.135,4613.888888888889
-0.04,0.13,4616.666666666667
-0.04,0.145,4619.444444444444
-0.05,0.16,4622.222222222223
-0.04,0.185,4625.0
-0.035,0.215,4627.777777777777
-0.02,0.205,4630.555555555556
-0.02,0.18,4633.333333333333
-0.03,0.17,4636.111111111111
-0.04,0.175,4638.888888888889
-0.07,0.175,4641.666666666667
-0.065,0.18,4644.444444444444
-0.075,0.17,4647.222222222223
-0.07,0.16,4650.0
-0.07,0.16,4652.777777777777
-0.075,0.18,4655.555555555556
-0.08,0.2,4658.333333333333
-0.07,0.21,4661.111111111111
-0.055,0.2,4663.888888888889
-0.045,0.18,4666.666666666667
-0.04,0.18,4669.444444444444
-0.05,0.185,4672.222222222223
-0.05,0.185,4675.0
-0.05,0.175,4677.777777777777
-0.05,0.165,4680.555555555556
-0.05,0.17,4683.333333333333
-0.055,0.17,4686.111111111111
-0.055,0.185,4688.888888888889
-0.05,0.2,4691.666666666667
-0.04,0.2,4694.444444444444
-0.035,0.18,4697.222222222223
-0.035,0.165,4700.0
-0.035,0.16,4702.777777777777
-0.04,0.16,4705.555555555556
-0.055,0.16,4708.333333333333
-0.045,0.16,4711.111111111111
-0.04,0.155,4713.888888888889
-0.04,0.155,4716.666666666667
-0.045,0.165,4719.444444444444
-0.045,0.185,4722.222222222223
-0.035,0.19,4725.0
-0.025,0.18,4727.777777777777
-0.02,0.175,4730.555555555556
-0.025,0.15,4733.333333333333
-0.03,0.18,4736.111111111111
-0.035,0.185,4738.888888888889
-0.035,0.175,4741.666666666667
-0.04,0.155,4744.444444444444
-0.045,0.155,4747.222222222223
-0.035,0.15,4750.0
-0.04,0.17,4752.777777777777
-0.03,0.19,4755.555555555556
-0.02,0.195,4758.333333333333
-0.025,0.195,4761.111111111111
-0.025,0.175,4763.888888888889
-0.02,0.165,4766.666666666667
-0.025,0.175,4769.444444444444
-0.025,0.165,4772.222222222223
-0.03,0.145,4775.0
-0.035,0.13,4777.777777777777
-0.035,0.125,4780.555555555556
-0.04,0.155,4783.333333333333
-0.045,0.165,4786.111111111111
-0.05,0.185,4788.888888888889
-0.05,0.2,4791.666666666667
-0.05,0.195,4794.444444444444
-0.04,0.18,4797.222222222223
-0.045,0.185,4800.0
-0.04,0.19,4802.777777777777
-0.05,0.18,4805.555555555556
-0.035,0.19,4808.333333333333
-0.04,0.165,4811.111111111111
-0.03,0.165,4813.888888888889
-0.015,0.17,4816.666666666667
-0.005,0.195,4819.444444444444
0.01,0.205,4822.222222222223
0.02,0.225,4825.0
0.025,0.23,4827.777777777777
0.045,0.225,4830.555555555556
0.04,0.23,4833.333333333333
0.045,0.235,4836.111111111111
0.055,0.245,4838.888888888889
0.075,0.225,4841.666666666667
0.07,0.2,4844.444444444444
0.11,0.19,4847.222222222223
0.12,0.185,4850.0
0.13,0.2,4852.777777777777
0.13,0.205,4855.555555555556
0.135,0.2,4858.333333333333
0.14,0.2,4861.111111111111
0.13,0.19,4863.888888888889
0.115,0.205,4866.666666666667
0.115,0.19,4869.444444444444
0.105,0.175,4872.222222222223
0.09,0.16,4875.0
0.065,0.13,4877.777777777777
0.035,0.115,4880.555555555556
0.02,0.145,4883.333333333333
-0.005,0.15,4886.111111111111
-0.005,0.16,4888.888888888889
-0.02,0.16,4891.666666666667
-0.02,0.155,4894.444444444444
-0.045,0.15,4897.222222222223
-0.055,0.16,4900.0
-0.075,0.165,4902.777777777777
-0.09,0.145,4905.555555555556
-0.095,0.13,4908.333333333333
-0.11,0.12,4911.111111111111
-0.12,0.14,4913.888888888889
-0.13,0.14,4916.666666666667
-0.11,0.155,4919.444444444444
-0.1,0.155,4922.222222222223
-0.095,0.135,4925.0
-0.095,0.13,4927.777777777777
-0.095,0.135,4930.555555555556
-0.1,0.15,4933.333333333333
-0.11,0.16,4936.111111111111
-0.135,0.125,4938.888888888889
-0.13,0.105,4941.666666666667
-0.14,0.09,4944.444444444444
-0.16,0.095,4947.222222222223
-0.175,0.105,4950.0
-0.16,0.125,4952.777777777777
-0.125,0.12,4955.555555555556
-0.06,0.12,4958.333333333333
0.045,0.12,4961.111111111111
0.16,0.115,4963.888888888889
0.325,0.11,4966.666666666667
0.52,0.1,4969.444444444444
0.76,0.095,4972.222222222223
1.015,0.11,4975.0
1.255,0.15,4977.777777777777
1.47,0.255,4980.555555555556
1.61,0.365,4983.333333333333
1.645,0.48,4986.111111111111
1.54,0.585,4988.888888888889
1.34,0.62,4991.666666666667
1.035,0.605,4994.444444444444
0.71,0.515,4997.222222222223
0.385,0.385,5000.0
0.125,0.22,5002.777777777777
-0.065,0.08,5005.555555555556
-0.175,-0.035,5008.333333333333
-0.215,-0.075,5011.111111111111
-0.22,-0.05,5013.888888888889
-0.175,0.03,5016.666666666667
-0.135,0.085,5019.444444444444
-0.115,0.125,5022.222222222223
-0.11,0.13,5025.0
-0.11,0.135,5027.777777777777
-0.14,0.115,5030.555555555556
-0.165,0.125,5033.333333333333
-0.175,0.12,5036.111111111111
-0.19,0.1,5038.888888888889
-0.195,0.08,5041.666666666667
-0.205,0.065,5044.444444444444
-0.215,0.065,5047.222222222223
-0.225,0.08,5050.0
-0.23,0.1,5052.777777777777
-0.215,0.115,5055.555555555556
-0.22,0.095,5058.333333333333
-0.21,0.1,5061.111111111111
-0.195,0.08,5063.888888888889
-0.2,0.08,5066.666666666667
-0.2,0.11,5069.444444444444
-0.195,0.1,5072.222222222223
-0.195,0.095,5075.0
-0.205,0.075,5077.777777777777
-0.205,0.06,5080.555555555556
-0.215,0.055,5083.333333333333
-0.22,0.08,5086.111111111111
-0.205,0.095,5088.888888888889
-0.205,0.1,5091.666666666667
-0.215,0.095,5094.444444444444
-0.195,0.075,5097.222222222223
-0.205,0.06,5100.0
-0.195,0.06,5102.777777777777
-0.2,0.07,5105.555555555556
-0.195,0.065,5108.333333333333
-0.2,0.035,5111.111111111111
-0.205,0.03,5113.888888888889
-0.2,0.05,5116.666666666667
-0.21,0.055,5119.444444444444
-0.205,0.07,5122.222222222223
-0.195,0.07,5125.0
-0.185,0.065,5127.777777777777
-0.185,0.055,5130.555555555556
-0.195,0.04,5133.333333333333
-0.185,0.055,5136.111111111111
-0.185,0.055,5138.888888888889
-0.185,0.03,5141.666666666667
-0.19,0.0,5144.444444444444
-0.19,0.0,5147.222222222223
-0.2,0.005,5150.0
-0.2,0.015,5152.777777777777
-0.17,0.04,5155.555555555556
-0.155,0.04,5158.333333333333
-0.16,0.025,5161.111111111111
-0.145,0.0,5163.888888888889
-0.14,0.0,5166.666666666667
-0.14,0.01,5169.444444444444
-0.135,0.0,5172.222222222223
-0.155,-0.015,5175.0
-0.165,-0.035,5177.777777777777
-0.15,-0.05,5180.555555555556
-0.15,-0.045,5183.333333333333
-0.15,-0.02,5186.111111111111
-0.14,-0.01,5188.888888888889
-0.13,-0.01,5191.666666666667
-0.12,-0.015,5194.444444444444
-0.11,-0.04,5197.222222222223
-0.11,-0.055,5200.0
-0.11,-0.055,5202.777777777777
-0.12,-0.045,5205.555555555556
-0.125,-0.045,5208.333333333333
-0.125,-0.045,5211.111111111111
-0.125,-0.065,5213.888888888889
-0.125,-0.08,5216.666666666667
-0.12,-0.065,5219.444444444444
-0.115,-0.04,5222.222222222223
-0.115,-0.04,5225.0
-0.105,-0.04,5227.777777777777
-0.09,-0.055,5230.555555555556
-0.095,-0.06,5233.333333333333
-0.1,-0.065,5236.111111111111
-0.12,-0.04,5238.888888888889
-0.12,-0.04,5241.666666666667
-0.13,-0.045,5244.444444444444
-0.12,-0.055,5247.222222222223
-0.12,-0.055,5250.0
-0.1,-0.02,5252.777777777777
-0.095,0.01,5255.555555555556
-0.07,0.035,5258.333333333333
-0.055,0.05,5261.111111111111
-0.04,0.04,5263.888888888889
-0.05,0.045,5266.666666666667
-0.045,0.07,5269.444444444444
-0.05,0.07,5272.222222222223
-0.065,0.09,5275.0
-0.07,0.08,5277.777777777777
-0.07,0.065,5280.555555555556
-0.08,0.06,5283.333333333333
-0.095,0.075,5286.111111111111
-0.09,0.085,5288.888888888889
-0.095,0.11,5291.666666666667
-0.08,0.11,5294.444444444444
-0.06,0.11,5297.222222222223
-0.06,0.09,5300.0
-0.065,0.095,5302.777777777777
-0.075,0.105,5305.555555555556
-0.09,0.115,5308.333333333333
-0.095,0.11,5311.111111111111
-0.11,0.095,5313.888888888889
-0.11,0.075,5316.666666666667
-0.12,0.085,5319.444444444444
-0.12,0.11,5322.222222222223
-0.115,0.125,5325.0
-0.115,0.15,5327.777777777777
-0.105,0.13,5330.555555555556
-0.105,0.11,5333.333333333333
-0.105,0.09,5336.111111111111
-0.105,0.095,5338.888888888889
-0.105,0.095,5341.666666666667
-0.12,0.11,5344.444444444444
-0.13,0.095,5347.222222222223
-0.12,0.08,5350.0
-0.115,0.075,5352.777777777777
-0.12,0.075,5355.555555555556
-0.115,0.1,5358.333333333333
-0.125,0.115,5361.111111111111
-0.12,0.12,5363.888888888889
-0.1,0.095,5366.666666666667
-0.095,0.095,5369.444444444444
-0.095,0.09,5372.222222222223
-0.105,0.1,5375.0
-0.095,0.11,5377.777777777777
-0.11,0.1,5380.555555555556
-0.12,0.085,5383.333333333333
-0.115,0.08,5386.111111111111
-0.115,0.06,5388.888888888889
-0.1,0.09,5391.666666666667
-0.11,0.095,5394.444444444444
-0.105,0.11,5397.222222222223
-0.1,0.095,5400.0
-0.09,0.09,5402.777777777777
-0.095,0.08,5405.555555555556
-0.1,0.095,5408.333333333333
-0.115,0.1,5411.111111111111
-0.11,0.09,5413.888888888889
-0.115,0.08,5416.666666666667
-0.125,0.075,5419.444444444444
-0.125,0.06,5422.222222222223
-0.115,0.08,5425.0
-0.125,0.11,5427.777777777777
-0.105,0.115,5430.555555555556
-0.11,0.115,5433.333333333333
-0.105,0.095,5436.111111111111
-0.11,0.075,5438.888888888889
-0.105,0.075,5441.666666666667
-0.11,0.085,5444.444444444444
-0.115,0.1,5447.222222222223
-0.105,0.095,5450.0
-0.11,0.085,5452.777777777777
-0.105,0.085,5455.555555555556
-0.095,0.1,5458.333333333333
-0.105,0.115,5461.111111111111
-0.105,0.13,5463.888888888889
-0.115,0.11,5466.666666666667
-0.105,0.085,5469.444444444444
-0.12,0.075,5472.222222222223
-0.14,0.07,5475.0
-0.135,0.09,5477.777777777777
-0.155,0.1,5480.555555555556
-0.135,0.105,5483.333333333333
-0.125,0.11,5486.111111111111
-0.085,0.11,5488.888888888889
-0.085,0.125,5491.666666666667
-0.065,0.155,5494.444444444444
-0.07,0.165,5497.222222222223
-0.07,0.16,5500.0
-0.06,0.15,5502.777777777777
-0.06,0.12,5505.555555555556
-0.07,0.13,5508.333333333333
-0.06,0.14,5511.111111111111
-0.05,0.15,5513.888888888889
-0.045,0.165,5516.666666666667
-0.02,0.16,5519.444444444444
0.01,0.13,5522.222222222223
0.04,0.105,5525.0
0.055,0.12,5527.777777777777
0.06,0.135,5530.555555555556
0.055,0.12,5533.333333333333
0.045,0.115,5536.111111111111
0.02,0.095,5538.888888888889
0.01,0.08,5541.666666666667
0.005,0.065,5544.444444444444
-0.01,0.095,5547.222222222223
-0.02,0.085,5550.0
-0.025,0.085,5552.777777777777
-0.04,0.08,5555.555555555556
-0.05,0.055,5558.333333333333
-0.07,0.07,5561.111111111111
-0.075,0.07,5563.888888888889
-0.1,0.09,5566.666666666667
-0.105,0.105,5569.444444444444
-0.125,0.09,5572.222222222223
-0.14,0.06,5575.0
-0.165,0.055,5577.777777777777
-0.195,0.05,5580.555555555556
-0.205,0.06,5583.333333333333
-0.23,0.075,5586.111111111111
-0.22,0.075,5588.888888888889
-0.225,0.05,5591.666666666667
-0.22,0.05,5594.444444444444
-0.21,0.06,5597.222222222223
-0.205,0.08,5600.0
-0.215,0.085,5602.777777777777
-0.215,0.075,5605.555555555556
-0.215,0.055,5608.333333333333
-0.225,0.025,5611.111111111111
-0.24,0.015,5613.888888888889
-0.255,0.04,5616.666666666667
-0.255,0.045,5619.444444444444
-0.245,0.075,5622.222222222223
-0.255,0.06,5625.0
-0.23,0.06,5627.777777777777
-0.24,0.045,5630.555555555556
-0.255,0.03,5633.333333333333
-0.265,0.03,5636.111111111111
-0.27,0.045,5638.888888888889
-0.275,0.065,5641.666666666667
-0.225,0.06,5644.444444444444
-0.16,0.05,5647.222222222223
-0.07,0.035,5650.0
0.045,0.025,5652.777777777777
0.215,0.005,5655.555555555556
0.42,-0.005,5658.333333333333
0.665,0.01,5661.111111111111
0.94,0.03,5663.888888888889
1.2,0.075,5666.666666666667
1.415,0.17,5669.444444444444
1.55,0.27,5672.222222222223
1.56,0.385,5675.0
1.41,0.47,5677.777777777777
1.16,0.5,5680.555555555556
0.83,0.46,5683.333333333333
0.48,0.345,5686.111111111111
0.165,0.23,5688.888888888889
-0.06,0.085,5691.666666666667
-0.19,-0.02,5694.444444444444
-0.25,-0.09,5697.222222222223
-0.265,-0.09,5700.0
-0.245,-0.07,5702.777777777777
-0.225,0.005,5705.555555555556
-0.22,0.045,5708.333333333333
-0.225,0.065,5711.111111111111
-0.24,0.055,5713.888888888889
-0.255,0.05,5716.666666666667
-0.285,0.03,5719.444444444444
-0.305,0.04,5722.222222222223
-0.32,0.055,5725.0
-0.325,0.06,5727.777777777777
-0.315,0.05,5730.555555555556
-0.31,0.04,5733.333333333333
-0.31,0.03,5736.111111111111
-0.325,0.05,5738.888888888889
-0.335,0.07,5741.666666666667
-0.34,0.055,5744.444444444444
-0.35,0.03,5747.222222222223
-0.345,0.03,5750.0
-0.35,0.01,5752.777777777777
-0.335,0.04,5755.555555555556
-0.33,0.05,5758.333333333333
-0.32,0.06,5761.111111111111
-0.31,0.06,5763.888888888889
-0.3,0.035,5766.666666666667
-0.31,0.035,5769.444444444444
-0.315,0.03,5772.222222222223
-0.33,0.02,5775.0
-0.34,0.025,5777.777777777777
-0.33,0.015,5780.555555555556
-0.34,0.0,5783.333333333333
-0.34,0.005,5786.111111111111
-0.325,0.02,5788.888888888889
-0.32,0.04,5791.666666666667
-0.305,0.055,5794.444444444444
-0.3,0.06,5797.222222222223
-0.305,0.03,5800.0
-0.305,0.02,5802.777777777777
-0.305,0.0,5805.555555555556
-0.315,0.015,5808.333333333333
-0.32,0.01,5811.111111111111
-0.33,0.01,5813.888888888889
-0.335,-0.015,5816.666666666667
-0.32,-0.02,5819.444444444444
-0.315,-0.015,5822.222222222223
-0.305,-0.005,5825.0
-0.29,0.025,5827.777777777777
-0.275,0.025,5830.555555555556
-0.27,0.0,5833.333333333333
-0.265,-0.02,5836.111111111111
-0.265,-0.04,5838.888888888889
-0.275,-0.04,5841.666666666667
-0.285,-0.02,5844.444444444444
-0.3,-0.02,5847.222222222223
-0.305,-0.025,5850.0
-0.29,-0.045,5852.777777777777
-0.285,-0.045,5855.555555555556
-0.265,-0.045,5858.333333333333
-0.265,-0.03,5861.111111111111
-0.25,-0.03,5863.888888888889
-0.25,-0.035,5866.666666666667
-0.25,-0.055,5869.444444444444
-0.235,-0.075,5872.222222222223
-0.25,-0.1,5875.0
-0.235,-0.11,5877.777777777777
-0.25,-0.09,5880.555555555556
-0.24,-0.075,5883.333333333333
-0.245,-0.075,5886.111111111111
-0.245,-0.085,5888.888888888889
-0.22,-0.1,5891.666666666667
-0.21,-0.085,5894.444444444444
-0.21,-0.075,5897.222222222223
-0.205,-0.07,5900.0
-0.21,-0.075,5902.777777777777
-0.215,-0.095,5905.555555555556
-0.215,-0.11,5908.333333333333
-0.215,-0.12,5911.111111111111
-0.21,-0.105,5913.888888888889
-0.21,-0.095,5916.666666666667
-0.225,-0.08,5919.444444444444
-0.215,-0.08,5922.222222222223
-0.22,-0.085,5925.0
-0.215,-0.08,5927.777777777777
-0.2,-0.075,5930.555555555556
-0.195,-0.045,5933.333333333333
-0.19,-0.045,5936.111111111111
-0.19,-0.05,5938.888888888889
-0.195,-0.06,5941.666666666667
-0.205,-0.065,5944.444444444444
-0.175,-0.08,5947.222222222223
-0.185,-0.055,5950.0
-0.175,-0.02,5952.777777777777
-0.165,-0.005,5955.555555555556
-0.165,0.0,5958.333333333333
-0.17,0.0,5961.111111111111
-0.15,0.015,5963.888888888889
-0.16,0.015,5966.666666666667
-0.15,0.055,5969.444444444444
-0.155,0.065,5972.222222222223
-0.165,0.06,5975.0
-0.165,0.045,5977.777777777777
-0.17,0.035,5980.555555555556
-0.185,0.045,5983.333333333333
-0.18,0.07,5986.111111111111
-0.16,0.085,5988.888888888889
-0.15,0.1,5991.666666666667
-0.15,0.1,5994.444444444444
-0.155,0.085,5997.222222222223
-0.155,0.075,6000.0
-0.17,0.07,6002.777777777777
-0.165,0.06,6005.555555555556
-0.175,0.08,6008.333333333333
-0.185,0.06,6011.111111111111
-0.19,0.05,6013.888888888889
-0.205,0.045,6016.666666666667
-0.195,0.035,6019.444444444444
-0.2,0.055,6022.222222222223
-0.19,0.075,6025.0
-0.18,0.085,6027.777777777777
-0.16,0.08,6030.555555555556
-0.165,0.07,6033.333333333333
-0.165,0.055,6036.111111111111
-0.18,0.055,6038.888888888889
-0.19,0.06,6041.666666666667
-0.19,0.075,6044.444444444444
-0.19,0.075,6047.222222222223
-0.18,0.075,6050.0
-0.185,0.06,6052.777777777777
-0.205,0.055,6055.555555555556
-0.185,0.075,6058.333333333333
-0.19,0.08,6061.111111111111
-0.175,0.09,6063.888888888889
-0.185,0.06,6066.666666666667
-0.18,0.06,6069.444444444444
-0.18,0.05,6072.222222222223
-0.18,0.055,6075.0
-0.175,0.055,6077.777777777777
-0.19,0.065,6080.555555555556
-0.19,0.055,6083.333333333333
-0.2,0.045,6086.111111111111
-0.195,0.03,6088.888888888889
-0.185,0.045,6091.666666666667
-0.17,0.07,6094.444444444444
-0.175,0.105,6097.222222222223
-0.17,0.1,6100.0
-0.165,0.075,6102.777777777777
-0.165,0.055,6105.555555555556
-0.175,0.05,6108.333333333333
-0.17,0.04,6111.111111111111
-0.18,0.05,6113.888888888889
-0.19,0.06,6116.666666666667
-0.18,0.055,6119.444444444444
-0.175,0.055,6122.222222222223
-0.19,0.055,6125.0
-0.18,0.065,6127.777777777777
-0.18,0.075,6130.555555555556
-0.175,0.075,6133.333333333333
-0.175,0.06,6136.111111111111
-0.175,0.05,6138.888888888889
-0.18,0.035,6141.666666666667
-0.18,0.045,6144.444444444444
-0.175,0.065,6147.222222222223
-0.17,0.065,6150.0
-0.175,0.055,6152.777777777777
-0.185,0.045,6155.555555555556
-0.185,0.05,6158.333333333333
-0.205,0.065,6161.111111111111
-0.185,0.085,6163.888888888889
-0.205,0.085,6166.666666666667
-0.2,0.065,6169.444444444444
-0.19,0.05,6172.222222222223
-0.18,0.035,6175.0
-0.19,0.045,6177.777777777777
-0.18,0.065,6180.555555555556
-0.165,0.07,6183.333333333333
-0.16,0.075,6186.111111111111
-0.135,0.075,6188.888888888889
-0.13,0.09,6191.666666666667
-0.11,0.095,6194.444444444444
-0.105,0.135,6197.222222222223
-0.105,0.135,6200.0
-0.085,0.125,6202.777777777777
-0.09,0.11,6205.555555555556
-0.09,0.09,6208.333333333333
-0.085,0.095,6211.111111111111
-0.08,0.105,6213.888888888889
-0.055,0.105,6216.666666666667
-0.025,0.095,6219.444444444444
-0.005,0.075,6222.222222222223
0.01,0.08,6225.0
0.0,0.075,6227.777777777777
-0.01,0.085,6230.555555555556
-0.03,0.06,6233.333333333333
-0.04,0.055,6236.111111111111
-0.035,0.035,6238.888888888889
-0.045,0.025,6241.666666666667
-0.055,0.01,6244.444444444444
-0.075,0.02,6247.222222222223
-0.085,0.02,6250.0
-0.105,0.015,6252.777777777777
-0.11,0.005,6255.555555555556
-0.13,0.02,6258.333333333333
-0.155,0.04,6261.111111111111
-0.165,0.055,6263.888888888889
-0.18,0.055,6266.666666666667
-0.195,0.04,6269.444444444444
-0.22,0.025,6272.222222222223
-0.23,0.025,6275.0
-0.255,0.01,6277.777777777777
-0.27,0.025,6280.555555555556
-0.28,0.035,6283.333333333333
-0.275,0.025,6286.111111111111
-0.27,0.01,6288.888888888889
-0.26,0.02,6291.666666666667
-0.25,0.02,6294.444444444444
-0.25,0.04,6297.222222222223
-0.26,0.035,6300.0
-0.26,0.035,6302.777777777777
-0.265,0.015,6305.555555555556
-0.285,0.015,6308.333333333333
-0.29,0.005,6311.111111111111
-0.29,0.01,6313.888888888889
-0.3,0.035,6316.666666666667
-0.305,-0.01,6319.444444444444
-0.315,-0.015,6322.222222222223
-0.33,-0.04,6325.0
-0.305,-0.045,6327.777777777777
-0.285,-0.01,6330.555555555556
-0.235,0.02,6333.333333333333
-0.15,0.015,6336.111111111111
-0.04,-0.005,6338.888888888889
0.115,-0.05,6341.666666666667
0.305,-0.07,6344.444444444444
0.53,-0.075,6347.222222222223
0.79,-0.03,6350.0
1.045,0.045,6352.777777777777
1.275,0.135,6355.555555555556
1.43,0.255,6358.333333333333
1.46,0.385,6361.111111111111
1.34,0.49,6363.888888888889
1.08,0.535,6366.666666666667
0.76,0.495,6369.444444444444
0.415,0.375,6372.222222222223
0.12,0.205,6375.0
-0.12,0.055,6377.777777777777
-0.27,-0.07,6380.555555555556
-0.335,-0.125,6383.333333333333
-0.345,-0.135,6386.111111111111
-0.32,-0.115,6388.888888888889
-0.28,-0.055,6391.666666666667
-0.255,0.0,6394.444444444444
-0.25,0.055,6397.222222222223
-0.265,0.065,6400.0
-0.275,0.045,6402.777777777777
-0.305,0.015,6405.555555555556
-0.32,0.0,6408.333333333333
-0.355,-0.015,6411.111111111111
-0.355,-0.01,6413.888888888889
-0.37,-0.03,6416.666666666667
-0.36,-0.03,6419.444444444444
-0.345,-0.025,6422.222222222223
-0.345,-0.025,6425.0
-0.36,0.0,6427.777777777777
-0.36,0.015,6430.555555555556
-0.35,0.015,6433.333333333333
-0.345,-0.01,6436.111111111111
-0.36,-0.025,6438.888888888889
-0.355,-0.05,6441.666666666667
-0.365,-0.025,6444.444444444444
-0.37,-0.015,6447.222222222223
-0.37,0.005,6450.0
-0.37,-0.005,6452.777777777777
-0.365,-0.02,6455.555555555556
-0.36,-0.015,6458.333333333333
-0.355,-0.01,6461.111111111111
-0.35,0.01,6463.888888888889
-0.345,0.005,6466.666666666667
-0.34,-0.005,6469.444444444444
-0.33,-0.04,6472.222222222223
-0.335,-0.04,6475.0
-0.34,-0.04,6477.777777777777
-0.34,-0.025,6480.555555555556
-0.355,-0.04,6483.333333333333
-0.345,-0.045,6486.111111111111
-0.335,-0.05,6488.888888888889
-0.335,-0.035,6491.666666666667
-0.35,-0.025,6494.444444444444
-0.33,-0.01,6497.222222222223
-0.33,-0.02,6500.0
-0.33,-0.03,6502.777777777777
-0.32,-0.045,6505.555555555556
-0.32,-0.055,6508.333333333333
-0.335,-0.065,6511.111111111111
-0.335,-0.055,6513.888888888889
-0.325,-0.06,6516.666666666667
-0.32,-0.08,6519.444444444444
-0.315,-0.08,6522.222222222223
-0.31,-0.085,6525.0
-0.3,-0.075,6527.777777777777
-0.29,-0.065,6530.555555555556
-0.295,-0.08,6533.333333333333
-0.295,-0.095,6536.111111111111
-0.29,-0.12,6538.888888888889
-0.285,-0.105,6541.666666666667
-0.285,-0.11,6544.444444444444
-0.285,-0.105,6547.222222222223
-0.29,-0.105,6550.0
-0.285,-0.12,6552.777777777777
-0.265,-0.115,6555.555555555556
-0.255,-0.115,6558.333333333333
-0.245,-0.085,6561.111111111111
-0.235,-0.09,6563.888888888889
-0.235,-0.105,6566.666666666667
-0.235,-0.125,6569.444444444444
-0.24,-0.14,6572.222222222223
-0.245,-0.14,6575.0
-0.24,-0.12,6577.777777777777
-0.24,-0.12,6580.555555555556
-0.235,-0.13,6583.333333333333
-0.23,-0.14,6586.111111111111
-0.225,-0.14,6588.888888888889
-0.235,-0.125,6591.666666666667
-0.22,-0.105,6594.444444444444
-0.225,-0.095,6597.222222222223
-0.23,-0.105,6600.0
-0.23,-0.115,6602.777777777777
-0.22,-0.13,6605.555555555556
-0.245,-0.115,6608.333333333333
-0.235,-0.12,6611.111111111111
-0.24,-0.105,6613.888888888889
-0.225,-0.105,6616.666666666667
-0.21,-0.115,6619.444444444444
-0.2,-0.095,6622.222222222223
-0.18,-0.065,6625.0
-0.17,-0.03,6627.777777777777
-0.155,0.0,6630.555555555556
-0.14,0.0,6633.333333333333
-0.135,-0.005,6636.111111111111
-0.15,-0.025,6638.888888888889
-0.155,-0.025,6641.666666666667
-0.165,0.0,6644.444444444444
-0.175,0.005,6647.222222222223
-0.18,0.005,6650.0
-0.17,0.01,6652.777777777777
-0.17,0.005,6655.555555555556
-0.17,0.03,6658.333333333333
-0.16,0.035,6661.111111111111
-0.155,0.04,6663.888888888889
-0.16,0.04,6666.666666666667
-0.16,0.03,6669.444444444444
-0.165,0.02,6672.222222222223
-0.18,0.02,6675.0
-0.195,0.01,6677.777777777777
-0.2,0.035,6680.555555555556
-0.21,0.05,6683.333333333333
-0.205,0.025,6686.111111111111
-0.21,0.03,6688.888888888889
-0.205,0.015,6691.666666666667
-0.2,0.03,6694.444444444444
-0.185,0.035,6697.222222222223
-0.185,0.055,6700.0
-0.175,0.035,6702.777777777777
-0.18,0.02,6705.555555555556
-0.19,0.0,6708.333333333333
-0.2,-0.01,6711.111111111111
-0.205,0.02,6713.888888888889
-0.23,0.02,6716.666666666667
-0.21,0.01,6719.444444444444
-0.21,0.01,6722.222222222223
-0.2,0.015,6725.0
-0.2,0.02,6727.777777777777
-0.185,0.04,6730.555555555556
-0.18,0.04,6733.333333333333
-0.19,0.03,6736.111111111111
-0.17,0.02,6738.888888888889
-0.18,0.005,6741.666666666667
-0.185,0.0,6744.444444444444
-0.2,0.015,6747.222222222223
-0.205,0.045,6750.0
-0.205,0.04,6752.777777777777
-0.195,0.03,6755.555555555556
-0.195,0.02,6758.333333333333
-0.19,0.02,6761.111111111111
-0.185,0.045,6763.888888888889
-0.185,0.055,6766.666666666667
-0.175,0.06,6769.444444444444
-0.165,0.04,6772.222222222223
-0.17,0.015,6775.0
-0.17,0.01,6777.777777777777
-0.19,0.02,6780.555555555556
-0.195,0.035,6783.333333333333
-0.21,0.03,6786.111111111111
-0.2,0.035,6788.888888888889
-0.19,0.02,6791.666666666667
-0.19,0.035,6794.444444444444
-0.19,0.065,6797.222222222223
-0.18,0.065,6800.0
-0.18,0.065,6802.777777777777
-0.19,0.05,6805.555555555556
-0.195,0.035,6808.333333333333
-0.19,0.02,6811.111111111111
-0.2,0.025,6813.888888888889
-0.205,0.03,6816.666666666667
-0.2,0.04,6819.444444444444
-0.2,0.045,6822.222222222223
-0.19,0.03,6825.0
-0.18,0.025,6827.777777777777
-0.165,0.035,6830.555555555556
-0.185,0.05,6833.333333333333
-0.195,0.045,6836.111111111111
-0.185,0.035,6838.888888888889
-0.18,0.015,6841.666666666667
-0.175,0.01,6844.444444444444
-0.17,0.025,6847.222222222223
-0.165,0.055,6850.0
-0.17,0.085,6852.777777777777
-0.165,0.095,6855.555555555556
-0.145,0.1,6858.333333333333
-0.12,0.09,6861.111111111111
-0.11,0.11,6863.888888888889
-0.11,0.11,6866.666666666667
-0.12,0.12,6869.444444444444
-0.11,0.1,6872.222222222223
-0.11,0.08,6875.0
-0.095,0.055,6877.777777777777
-0.07,0.045,6880.555555555556
-0.045,0.05,6883.333333333333
-0.03,0.06,6886.111111111111
-0.015,0.06,6888.888888888889
-0.005,0.055,6891.666666666667
0.0,0.045,6894.444444444444
-0.01,0.045,6897.222222222223
-0.01,0.05,6900.0
-0.01,0.055,6902.777777777777
-0.03,0.05,6905.555555555556
-0.04,0.02,6908.333333333333
-0.055,-0.005,6911.111111111111
-0.08,-0.015,6913.888888888889
-0.11,0.01,6916.666666666667
-0.125,0.02,6919.444444444444
-0.15,0.025,6922.222222222223
-0.16,0.025,6925.0
-0.16,0.02,6927.777777777777
-0.16,0.025,6930.555555555556
-0.185,0.025,6933.333333333333
-0.19,0.035,6936.111111111111
-0.215,0.015,6938.888888888889
-0.235,-0.005,6941.666666666667
-0.225,-0.02,6944.444444444444
-0.24,-0.02,6947.222222222223
-0.265,-0.01,6950.0
-0.265,0.015,6952.777777777777
-0.26,0.015,6955.555555555556
-0.26,0.01,6958.333333333333
-0.25,-0.005,6961.111111111111
-0.245,-0.01,6963.888888888889
-0.245,0.01,6966.666666666667
-0.24,0.025,6969.444444444444
-0.245,0.02,6972.222222222223
-0.255,-0.02,6975.0
-0.26,-0.03,6977.777777777777
-0.27,-0.025,6980.555555555556
-0.285,-0.025,6983.333333333333
-0.3,-0.03,6986.111111111111
-0.31,-0.02,6988.888888888889
-0.305,-0.025,6991.666666666667
-0.26,-0.015,6994.444444444444
-0.185,-0.01,6997.222222222223
-0.09,-0.005,7000.0
0.065,-0.03,7002.777777777777
0.27,-0.055,7005.555555555556
0.48,-0.09,7008.333333333333
0.725,-0.065,7011.111111111111
0.975,-0.005,7013.888888888889
1.21,0.105,7016.666666666667
1.395,0.25,7019.444444444444
1.45,0.395,7022.222222222223
1.395,0.5,7025.0
1.195,0.585,7027.777777777777
0.91,0.58,7030.555555555556
0.555,0.495,7033.333333333333
0.25,0.335,7036.111111111111
-0.02,0.15,7038.888888888889
-0.21,-0.035,7041.666666666667
-0.32,-0.145,7044.444444444444
-0.37,-0.16,7047.222222222223
-0.345,-0.145,7050.0
-0.31,-0.085,7052.777777777777
-0.265,-0.045,7055.555555555556
-0.24,-0.015,7058.333333333333
-0.24,0.01,7061.111111111111
-0.24,0.025,7063.888888888889
-0.275,0.03,7066.666666666667
-0.3,0.01,7069.444444444444
-0.32,-0.02,7072.222222222223
-0.32,-0.035,7075.0
-0.32,-0.045,7077.777777777777
-0.32,-0.04,7080.555555555556
-0.315,-0.02,7083.333333333333
-0.315,-0.01,7086.111111111111
-0.315,-0.01,7088.888888888889
-0.325,-0.015,7091.666666666667
-0.335,-0.01,7094.444444444444
-0.325,0.0,7097.222222222223
-0.325,0.0,7100.0
-0.325,-0.01,7102.777777777777
-0.32,-0.025,7105.555555555556
-0.31,-0.04,7108.333333333333
-0.315,-0.035,7111.111111111111
-0.315,-0.015,7113.888888888889
-0.31,-0.02,7116.666666666667
-0.32,-0.035,7119.444444444444
-0.32,-0.045,7122.222222222223
-0.31,-0.035,7125.0
-0.315,-0.015,7127.777777777777
-0.305,-0.01,7130.555555555556
-0.305,-0.015,7133.333333333333
-0.295,-0.015,7136.111111111111
-0.305,-0.03,7138.888888888889
-0.295,-0.035,7141.666666666667
-0.3,-0.04,7144.444444444444
-0.295,-0.045,7147.222222222223
-0.295,-0.05,7150.0
-0.29,-0.065,7152.777777777777
-0.295,-0.055,7155.555555555556
-0.285,-0.04,7158.333333333333
-0.29,-0.035,7161.111111111111
-0.29,-0.035,7163.888888888889
-0.27,-0.055,7166.666666666667
-0.27,-0.065,7169.444444444444
-0.26,-0.07,7172.222222222223
-0.26,-0.08,7175.0
-0.25,-0.08,7177.777777777777
-0.25,-0.105,7180.555555555556
-0.255,-0.12,7183.333333333333
-0.265,-0.105,7186.111111111111
-0.25,-0.085,7188.888888888889
-0.25,-0.075,7191.666666666667
-0.24,-0.065,7194.444444444444
-0.235,-0.06,7197.222222222223
-0.22,-0.095,7200.0
-0.23,-0.095,7202.777777777777
-0.215,-0.09,7205.555555555556
-0.215,-0.1,7208.333333333333
-0.215,-0.11,7211.111111111111
-0.215,-0.14,7213.888888888889
-0.21,-0.16,7216.666666666667
-0.205,-0.155,7219.444444444444
-0.2,-0.14,7222.222222222223
-0.2,-0.12,7225.0
-0.205,-0.13,7227.777777777777
-0.19,-0.125,7230.555555555556
-0.19,-0.13,7233.333333333333
-0.185,-0.135,7236.111111111111
-0.185,-0.13,7238.888888888889
-0.19,-0.12,7241.666666666667
-0.19,-0.145,7244.444444444444
-0.19,-0.145,7247.222222222223
-0.195,-0.13,7250.0
-0.195,-0.12,7252.777777777777
-0.185,-0.105,7255.555555555556
-0.185,-0.105,7258.333333333333
-0.18,-0.11,7261.111111111111
-0.165,-0.115,7263.888888888889
-0.155,-0.105,7266.666666666667
-0.15,-0.075,7269.444444444444
-0.14,-0.08,7272.222222222223
-0.14,-0.06,7275.0
-0.13,-0.07,7277.777777777777
-0.12,-0.065,7280.555555555556
-0.115,-0.05,7283.333333333333
-0.11,-0.03,7286.111111111111
-0.095,-0.005,7288.888888888889
-0.09,-0.005,7291.666666666667
-0.08,0.015,7294.444444444444
-0.075,0.01,7297.222222222223
-0.08,0.02,7300.0
-0.085,0.055,7302.777777777777
-0.095,0.06,7305.555555555556
-0.105,0.035,7308.333333333333
-0.11,0.03,7311.111111111111
-0.12,0.02,7313.888888888889
-0.125,0.025,7316.666666666667
-0.12,0.045,7319.444444444444
-0.115,0.045,7322.222222222223
-0.12,0.03,7325.0
-0.11,0.025,7327.777777777777
-0.09,0.03,7330.555555555556
-0.1,0.05,7333.333333333333
-0.11,0.05,7336.111111111111
-0.115,0.06,7338.888888888889
-0.12,0.045,7341.666666666667
-0.13,0.025,7344.444444444444
-0.135,0.03,7347.222222222223
-0.145,0.04,7350.0
-0.14,0.03,7352.777777777777
-0.13,0.035,7355.555555555556
-0.12,0.035,7358.333333333333
-0.1,0.045,7361.111111111111
-0.1,0.055,7363.888888888889
-0.1,0.05,7366.666666666667
-0.105,0.05,7369.444444444444
-0.1,0.03,7372.222222222223
-0.105,0.03,7375.0
-0.11,0.02,7377.777777777777
-0.12,0.03,7380.555555555556
-0.125,0.035,7383.333333333333
-0.13,0.02,7386.111111111111
-0.125,0.02,7388.888888888889
-0.12,0.03,7391.666666666667
-0.1,0.05,7394.444444444444
-0.085,0.065,7397.222222222223
-0.085,0.05,7400.0
-0.085,0.035,7402.777777777777
-0.07,0.02,7405.555555555556
-0.11,0.02,7408.333333333333
-0.105,0.035,7411.111111111111
-0.115,0.04,7413.888888888889
-0.115,0.03,7416.666666666667
-0.105,0.025,7419.444444444444
-0.105,0.025,7422.222222222223
-0.09,0.03,7425.0
-0.08,0.05,7427.777777777777
-0.075,0.05,7430.555555555556
-0.065,0.055,7433.333333333333
-0.07,0.04,7436.111111111111
-0.07,0.02,7438.888888888889
-0.08,0.03,7441.666666666667
-0.095,0.035,7444.444444444444
-0.105,0.03,7447.222222222223
-0.1,0.025,7450.0
-0.125,0.005,7452.777777777777
-0.12,0.015,7455.555555555556
-0.12,0.03,7458.333333333333
-0.11,0.065,7461.111111111111
-0.085,0.055,7463.888888888889
-0.085,0.055,7466.666666666667
-0.1,0.045,7469.444444444444
-0.1,0.04,7472.222222222223
-0.1,0.055,7475.0
-0.11,0.045,7477.777777777777
-0.11,0.045,7480.555555555556
-0.095,0.035,7483.333333333333
-0.09,0.02,7486.111111111111
-0.08,0.04,7488.888888888889
-0.05,0.07,7491.666666666667
-0.05,0.11,7494.444444444444
-0.025,0.125,7497.222222222223
-0.025,0.12,7500.0
-0.015,0.105,7502.777777777777
-0.015,0.085,7505.555555555556
-0.01,0.075,7508.333333333333
-0.02,0.1,7511.111111111111
-0.01,0.095,7513.888888888889
-0.005,0.075,7516.666666666667
0.03,0.055,7519.444444444444
0.045,0.025,7522.222222222223
0.045,0.05,7525.0
0.05,0.07,7527.777777777777
0.045,0.085,7530.555555555556
0.05,0.09,7533.333333333333
0.05,0.07,7536.111111111111
0.065,0.035,7538.888888888889
0.06,0.03,7541.666666666667
0.05,0.03,7544.444444444444
0.04,0.04,7547.222222222223
0.015,0.03,7550.0
0.0,0.01,7552.777777777777
-0.03,0.01,7555.555555555556
-0.045,0.015,7558.333333333333
-0.065,0.035,7561.111111111111
-0.09,0.06,7563.888888888889
-0.1,0.055,7566.666666666667
-0.125,0.03,7569.444444444444
-0.135,0.0,7572.222222222223
-0.165,-0.015,7575.0
-0.16,0.0,7577.777777777777
-0.18,0.0,7580.555555555556
-0.185,0.005,7583.333333333333
-0.19,0.0,7586.111111111111
-0.175,0.005,7588.888888888889
-0.17,-0.005,7591.666666666667
-0.175,0.005,7594.444444444444
-0.185,0.03,7597.222222222223
-0.18,0.035,7600.0
-0.18,0.04,7602.777777777777
-0.17,0.005,7605.555555555556
-0.185,-0.01,7608.333333333333
-0.19,-0.015,7611.111111111111
-0.205,-0.015,7613.888888888889
-0.205,-0.005,7616.666666666667
-0.21,0.005,7619.444444444444
-0.195,0.005,7622.222222222223
-0.195,-0.01,7625.0
-0.195,-0.03,7627.777777777777
-0.195,-0.01,7630.555555555556
-0.195,0.01,7633.333333333333
-0.155,0.03,7636.111111111111
-0.085,0.03,7638.888888888889
0.02,0.0,7641.666666666667
0.155,-0.03,7644.444444444444
0.33,-0.04,7647.222222222223
0.535,-0.05,7650.0
0.77,-0.02,7652.777777777777
1.04,0.035,7655.555555555556
1.285,0.095,7658.333333333333
1.48,0.2,7661.111111111111
1.585,0.305,7663.888888888889
1.545,0.415,7666.666666666667
1.395,0.485,7669.444444444444
1.135,0.515,7672.222222222223
0.82,0.445,7675.0
0.51,0.315,7677.777777777777
0.215,0.175,7680.555555555556
-0.02,0.05,7683.333333333333
-0.16,-0.06,7686.111111111111
-0.25,-0.12,7688.888888888889
-0.255,-0.135,7691.666666666667
-0.255,-0.115,7694.444444444444
-0.21,-0.075,7697.222222222223
-0.165,-0.005,7700.0
-0.165,0.04,7702.777777777777
-0.18,0.055,7705.555555555556
-0.21,0.02,7708.333333333333
-0.24,-0.02,7711.111111111111
-0.29,-0.035,7713.888888888889
-0.31,-0.02,7716.666666666667
-0.325,-0.005,7719.444444444444
-0.31,0.005,7722.222222222223
-0.315,0.01,7725.0
-0.295,0.01,7727.777777777777
-0.275,0.0,7730.555555555556
-0.27,-0.01,7733.333333333333
-0.27,-0.01,7736.111111111111
-0.28,-0.01,7738.888888888889
-0.29,-0.02,7741.666666666667
-0.305,-0.035,7744.444444444444
-0.305,-0.045,7747.222222222223
-0.31,-0.03,7750.0
-0.31,-0.015,7752.777777777777
-0.32,-0.005,7755.555555555556
-0.31,-0.015,7758.333333333333
-0.305,-0.02,7761.111111111111
-0.3,-0.02,7763.888888888889
-0.305,-0.005,7766.666666666667
-0.3,0.0,7769.444444444444
-0.305,-0.01,7772.222222222223
-0.285,-0.03,7775.0
-0.285,-0.045,7777.777777777777
-0.3,-0.045,7780.555555555556
-0.305,-0.03,7783.333333333333
-0.31,-0.03,7786.111111111111
-0.31,-0.03,7788.888888888889
-0.315,-0.04,7791.666666666667
-0.31,-0.035,7794.444444444444
-0.3,-0.045,7797.222222222223
-0.3,-0.035,7800.0
-0.295,-0.04,7802.777777777777
-0.29,-0.06,7805.555555555556
-0.295,-0.065,7808.333333333333
-0.29,-0.085,7811.111111111111
-0.295,-0.075,7813.888888888889
-0.295,-0.065,7816.666666666667
-0.3,-0.07,7819.444444444444
-0.295,-0.06,7822.222222222223
-0.285,-0.07,7825.0
-0.285,-0.065,7827.777777777777
-0.285,-0.05,7830.555555555556
-0.265,-0.055,7833.333333333333
-0.26,-0.06,7836.111111111111
-0.25,-0.1,7838.888888888889
-0.25,-0.11,7841.666666666667
-0.26,-0.135,7844.444444444444
-0.255,-0.12,7847.222222222223
-0.265,-0.13,7850.0
-0.265,-0.145,7852.777777777777
-0.255,-0.15,7855.555555555556
-0.24,-0.145,7858.333333333333
-0.235,-0.115,7861.111111111111
-0.23,-0.1,7863.888888888889
-0.22,-0.105,7866.666666666667
-0.225,-0.12,7869.444444444444
-0.23,-0.145,7872.222222222223
-0.235,-0.15,7875.0
-0.25,-0.145,7877.777777777777
-0.225,-0.14,7880.555555555556
-0.225,-0.14,7883.333333333333
-0.215,-0.145,7886.111111111111
-0.225,-0.15,7888.888888888889
-0.205,-0.135,7891.666666666667
-0.225,-0.125,7894.444444444444
-0.22,-0.12,7897.222222222223
-0.21,-0.125,7900.0
-0.215,-0.15,7902.777777777777
-0.205,-0.155,7905.555555555556
-0.22,-0.13,7908.333333333333
-0.225,-0.135,7911.111111111111
-0.22,-0.12,7913.888888888889
-0.205,-0.135,7916.666666666667
-0.195,-0.13,7919.444444444444
-0.185,-0.125,7922.222222222223
-0.175,-0.1,7925.0
-0.165,-0.06,7927.777777777777
-0.165,-0.04,7930.555555555556
-0.16,-0.03,7933.333333333333
-0.16,-0.02,7936.111111111111
-0.175,-0.025,7938.888888888889
-0.17,-0.005,7941.666666666667
-0.18,-0.005,7944.444444444444
-0.185,0.005,7947.222222222223
-0.19,-0.01,7950.0
-0.17,-0.015,7952.777777777777
-0.165,-0.005,7955.555555555556
-0.16,0.015,7958.333333333333
-0.16,0.04,7961.111111111111
-0.18,0.04,7963.888888888889
-0.185,0.025,7966.666666666667
-0.195,0.0,7969.444444444444
-0.19,0.0,7972.222222222223
-0.2,0.005,7975.0
-0.21,0.01,7977.777777777777
-0.21,0.01,7980.555555555556
-0.215,-0.005,7983.333333333333
-0.205,-0.005,7986.111111111111
-0.21,0.0,7988.888888888889
-0.185,0.02,7991.666666666667
-0.19,0.04,7994.444444444444
-0.175,0.035,7997.222222222223
-0.185,0.015,8000.0
-0.185,0.0,8002.777777777777
-0.2,0.015,8005.555555555556
-0.21,0.01,8008.333333333333
-0.22,0.015,8011.111111111111
-0.23,0.015,8013.888888888889
-0.22,0.0,8016.666666666667
-0.23,-0.01,8019.444444444444
-0.23,0.0,8022.222222222223
-0.21,0.02,8025.0
-0.2,0.035,8027.777777777777
-0.19,0.03,8030.555555555556
-0.18,0.02,8033.333333333333
-0.185,0.005,8036.111111111111
-0.19,0.005,8038.888888888889
-0.21,-0.005,8041.666666666667
-0.205,0.005,8044.444444444444
-0.235,-0.005,8047.222222222223
-0.22,-0.015,8050.0
-0.215,-0.005,8052.777777777777
-0.21,0.01,8055.555555555556
-0.21,0.035,8058.333333333333
-0.19,0.055,8061.111111111111
-0.18,0.035,8063.888888888889
-0.175,0.02,8066.666666666667
-0.175,-0.005,8069.444444444444
-0.19,-0.005,8072.222222222223
-0.195,-0.005,8075.0
-0.205,0.0,8077.777777777777
-0.22,-0.015,8080.555555555556
-0.225,-0.025,8083.333333333333
-0.215,-0.025,8086.111111111111
-0.22,-0.005,8088.888888888889
-0.215,0.015,8091.666666666667
-0.215,0.03,8094.444444444444
-0.2,0.015,8097.222222222223
-0.2,0.01,8100.0
-0.185,0.015,8102.777777777777
-0.2,0.01,8105.555555555556
-0.215,0.035,8108.333333333333
-0.215,0.02,8111.111111111111
-0.225,0.005,8113.888888888889
-0.225,-0.025,8116.666666666667
-0.23,-0.025,8119.444444444444
-0.24,-0.025,8122.222222222223
-0.225,0.0,8125.0
-0.21,0.03,8127.777777777777
-0.2,0.02,8130.555555555556
-0.185,0.02,8133.333333333333
-0.18,0.01,8136.111111111111
-0.18,0.03,8138.888888888889
-0.18,0.035,8141.666666666667
-0.18,0.04,8144.444444444444
-0.175,0.035,8147.222222222223
-0.175,0.04,8150.0
-0.165,0.045,8152.777777777777
-0.165,0.065,8155.555555555556
-0.16,0.09,8158.333333333333
-0.15,0.095,8161.111111111111
-0.135,0.075,8163.888888888889
-0.115,0.06,8166.666666666667
-0.095,0.055,8169.444444444444
-0.065,0.045,8172.222222222223
-0.05,0.045,8175.0
-0.05,0.035,8177.777777777777
-0.06,0.015,8180.555555555556
-0.065,-0.02,8183.333333333333
-0.075,-0.02,8186.111111111111
-0.09,0.0,8188.888888888889
-0.09,0.01,8191.666666666667
-0.1,0.02,8194.444444444445
-0.08,0.01,8197.222222222223
-0.075,-0.01,8200.0
-0.095,-0.005,8202.777777777777
-0.11,-0.02,8205.555555555555
-0.135,-0.005,8208.333333333334
-0.16,-0.025,8211.111111111111
-0.19,-0.02,8213.888888888889
-0.215,-0.025,8216.666666666666
-0.24,0.0,8219.444444444445
-0.245,0.015,8222.222222222223
-0.26,0.015,8225.0
-0.27,0.005,8227.777777777777
-0.275,-0.015,8230.555555555555
-0.275,-0.04,8233.333333333334
-0.28,-0.045,8236.111111111111
-0.285,-0.025,8238.888888888889
-0.3,-0.03,8241.666666666666
-0.3,-0.015,8244.444444444445
-0.305,-0.035,8247.222222222223
-0.3,-0.045,8250.0
-0.32,-0.055,8252.777777777777
-0.32,-0.025,8255.555555555555
-0.32,-0.005,8258.333333333334
-0.315,0.005,8261.111111111111
-0.315,0.0,8263.888888888889
-0.31,-0.015,8266.666666666666
-0.315,-0.035,8269.444444444445
-0.315,-0.02,8272.222222222223
-0.33,-0.03,8275.0
-0.355,-0.03,8277.777777777777
-0.36,-0.05,8280.555555555555
-0.365,-0.05,8283.333333333334
-0.34,-0.04,8286.111111111111
-0.28,-0.025,8288.888888888889
-0.19,-0.02,8291.666666666666
-0.075,-0.02,8294.444444444445
0.075,-0.05,8297.222222222223
0.27,-0.09,8300.0
0.49,-0.1,8302.777777777777
0.73,-0.075,8305.555555555555
0.98,-0.025,8308.333333333334
1.195,0.05,8311.111111111111
1.375,0.135,8313.888888888889
1.445,0.23,8316.666666666666
1.365,0.325,8319.444444444445
1.2,0.4,8322.222222222223
0.92,0.435,8325.0
0.625,0.395,8327.777777777777
0.33,0.285,8330.555555555555
0.055,0.135,8333.333333333334
-0.145,-0.025,8336.111111111111
-0.29,-0.135,8338.888888888889
-0.355,-0.175,8341.666666666666
-0.385,-0.175,8344.444444444445
-0.37,-0.125,8347.222222222223
-0.35,-0.08,8350.0
-0.325,-0.055,8352.777777777777
-0.33,-0.04,8355.555555555555
-0.335,-0.035,8358.333333333334
-0.35,-0.015,8361.111111111111
-0.37,-0.01,8363.888888888889
-0.38,-0.01,8366.666666666666
-0.39,-0.035,8369.444444444445
-0.395,-0.055,8372.222222222223
-0.41,-0.045,8375.0
-0.42,-0.045,8377.777777777777
-0.43,-0.04,8380.555555555555
-0.43,-0.035,8383.333333333334
-0.43,-0.065,8386.111111111111
-0.42,-0.06,8388.888888888889
-0.415,-0.07,8391.666666666666
-0.415,-0.03,8394.444444444445
-0.41,-0.015,8397.222222222223
-0.4,-0.005,8400.0
-0.405,-0.01,8402.777777777777
-0.41,-0.04,8405.555555555555
-0.415,-0.045,8408.333333333334
-0.415,-0.055,8411.111111111111
-0.43,-0.055,8413.888888888889
-0.44,-0.05,8416.666666666666
-0.435,-0.055,8419.444444444445
-0.43,-0.08,8422.222222222223
-0.42,-0.075,8425.0
-0.42,-0.055,8427.777777777777
-0.41,-0.035,8430.555555555555
-0.405,-0.03,8433.333333333334
-0.39,-0.05,8436.111111111111
-0.385,-0.075,8438.888888888889
-0.395,-0.08,8441.666666666666
-0.4,-0.07,8444.444444444445
-0.415,-0.085,8447.222222222223
-0.42,-0.07,8450.0
-0.425,-0.065,8452.777777777777
-0.42,-0.08,8455.555555555555
-0.4,-0.07,8458.333333333334
-0.41,-0.065,8461.111111111111
-0.395,-0.05,8463.888888888889
-0.39,-0.04,8466.666666666666
-0.39,-0.055,8469.444444444445
-0.38,-0.095,8472.222222222223
-0.39,-0.115,8475.0
-0.385,-0.125,8477.777777777777
-0.385,-0.105,8480.555555555555
-0.385,-0.11,8483.333333333334
-0.385,-0.1,8486.111111111111
-0.385,-0.11,8488.888888888889
-0.385,-0.125,8491.666666666666
-0.385,-0.115,8494.444444444445
-0.375,-0.115,8497.222222222223
-0.375,-0.105,8500.0
-0.365,-0.115,8502.777777777777
-0.355,-0.14,8505.555555555555
-0.365,-0.16,8508.333333333334
-0.355,-0.17,8511.111111111111
-0.355,-0.17,8513.888888888889
-0.355,-0.155,8516.666666666666
-0.35,-0.16,8519.444444444445
-0.345,-0.165,8522.222222222223
-0.335,-0.18,8525.0
-0.335,-0.165,8527.777777777777
-0.335,-0.15,8530.555555555555
-0.33,-0.155,8533.333333333334
-0.32,-0.17,8536.111111111111
-0.325,-0.185,8538.888888888889
-0.32,-0.2,8541.666666666666
-0.33,-0.205,8544.444444444445
-0.325,-0.19,8547.222222222223
-0.33,-0.185,8550.0
-0.335,-0.18,8552.777777777777
-0.325,-0.185,8555.555555555555
-0.315,-0.185,8558.333333333334
-0.31,-0.16,8561.111111111111
-0.305,-0.145,8563.888888888889
-0.305,-0.145,8566.666666666666
-0.305,-0.145,8569.444444444445
-0.3,-0.15,8572.222222222223
-0.305,-0.155,8575.0
-0.31,-0.145,8577.777777777777
-0.3,-0.14,8580.555555555555
-0.3,-0.125,8583.333333333334
-0.29,-0.13,8586.111111111111
-0.275,-0.13,8588.888888888889
-0.265,-0.115,8591.666666666666
-0.255,-0.075,8594.444444444445
-0.265,-0.05,8597.222222222223
-0.245,-0.03,8600.0
-0.255,-0.025,8602.777777777777
-0.26,-0.04,8605.555555555555
-0.265,-0.055,8608.333333333334
-0.275,-0.04,8611.111111111111
-0.29,-0.03,8613.888888888889
-0.285,-0.01,8616.666666666666
-0.285,-0.02,8619.444444444445
-0.275,-0.03,8622.222222222223
-0.28,-0.015,8625.0
-0.275,0.0,8627.777777777777
-0.28,0.01,8630.555555555555
-0.285,0.015,8633.333333333334
-0.29,-0.005,8636.111111111111
-0.285,-0.03,8638.888888888889
-0.305,-0.03,8641.666666666666
-0.31,-0.015,8644.444444444445
-0.315,-0.015,8647.222222222223
-0.305,-0.025,8650.0
-0.295,-0.035,8652.777777777777
-0.295,-0.035,8655.555555555555
-0.295,-0.03,8658.333333333334
-0.295,-0.01,8661.111111111111
-0.295,0.01,8663.888888888889
-0.305,0.005,8666.666666666666
-0.3,-0.01,8669.444444444445
-0.295,-0.015,8672.222222222223
-0.305,-0.02,8675.0
-0.305,-0.015,8677.777777777777
-0.32,-0.025,8680.555555555555
-0.325,-0.04,8683.333333333334
-0.325,-0.05,8686.111111111111
-0.31,-0.04,8688.888888888889
-0.295,-0.01,8691.666666666666
-0.295,0.005,8694.444444444445
-0.29,-0.005,8697.222222222223
-0.29,-0.01,8700.0
-0.285,-0.02,8702.777777777777
-0.29,-0.03,8705.555555555555
-0.295,-0.015,8708.333333333334
-0.31,-0.02,8711.111111111111
-0.32,-0.025,8713.888888888889
-0.315,-0.03,8716.666666666666
-0.32,-0.035,8719.444444444445
-0.325,-0.02,8722.222222222223
-0.295,-0.01,8725.0
-0.295,0.0,8727.777777777777
-0.3,-0.02,8730.555555555555
-0.28,-0.02,8733.333333333334
-0.29,-0.02,8736.111111111111
-0.29,-0.015,8738.888888888889
-0.295,0.0,8741.666666666666
-0.32,-0.01,8744.444444444445
-0.315,-0.03,8747.222222222223
-0.31,-0.035,8750.0
-0.31,-0.03,8752.777777777777
-0.305,-0.025,8755.555555555555
-0.3,-0.02,8758.333333333334
-0.29,-0.01,8761.111111111111
-0.28,-0.005,8763.888888888889
-0.275,-0.02,8766.666666666666
-0.285,-0.01,8769.444444444445
-0.285,-0.01,8772.222222222223
-0.31,-0.005,8775.0
-0.31,-0.025,8777.777777777777
-0.315,-0.03,8780.555555555555
-0.32,-0.05,8783.333333333334
-0.32,-0.03,8786.111111111111
-0.31,0.0,8788.888888888889
-0.29,0.015,8791.666666666666
-0.275,0.02,8794.444444444445
-0.25,0.015,8797.222222222223
-0.24,0.035,8800.0
-0.235,0.05,8802.777777777777
-0.225,0.06,8805.555555555555
-0.23,0.05,8808.333333333334
-0.23,0.03,8811.111111111111
-0.24,0.025,8813.888888888889
-0.235,0.015,8816.666666666666
-0.225,0.02,8819.444444444445
-0.19,0.01,8822.222222222223
-0.16,0.005,8825.0
-0.14,0.005,8827.777777777777
-0.115,-0.005,8830.555555555555
-0.115,-0.01,8833.333333333334
-0.125,0.005,8836.111111111111
-0.14,-0.005,8838.888888888889
-0.15,-0.015,8841.666666666666
-0.17,-0.035,8844.444444444445
-0.175,-0.03,8847.222222222223
-0.205,-0.045,8850.0
-0.22,-0.04,8852.777777777777
-0.23,-0.025,8855.555555555555
-0.24,-0.03,8858.333333333334
-0.245,-0.045,8861.111111111111
-0.26,-0.03,8863.888888888889
-0.27,-0.03,8866.666666666666
-0.285,-0.015,8869.444444444445
-0.31,-0.005,8872.222222222223
-0.325,-0.035,8875.0
-0.345,-0.06,8877.777777777777
-0.375,-0.07,8880.555555555555
-0.39,-0.055,8883.333333333334
-0.4,-0.04,8886.111111111111
-0.405,-0.045,8888.888888888889
-0.39,-0.03,8891.666666666666
-0.395,-0.04,8894.444444444445
-0.375,-0.04,8897.222222222223
-0.37,-0.03,8900.0
-0.375,-0.02,8902.777777777777
-0.37,-0.025,8905.555555555555
-0.38,-0.05,8908.333333333334
-0.39,-0.075,8911.111111111111
-0.4,-0.08,8913.888888888889
-0.4,-0.065,8916.666666666666
-0.41,-0.055,8919.444444444445
-0.42,-0.07,8922.222222222223
-0.42,-0.075,8925.0
-0.425,-0.09,8927.777777777777
-0.44,-0.095,8930.555555555555
-0.42,-0.085,8933.333333333334
-0.385,-0.055,8936.111111111111
-0.31,-0.055,8938.888888888889
-0.21,-0.075,8941.666666666666
-0.06,-0.11,8944.444444444445
0.115,-0.135,8947.222222222223
0.335,-0.13,8950.0
0.59,-0.085,8952.777777777777
0.855,-0.02,8955.555555555555
1.105,0.065,8958.333333333334
1.275,0.18,8961.111111111111
1.35,0.305,8963.888888888889
1.27,0.425,8966.666666666666
1.07,0.505,8969.444444444445
0.775,0.485,8972.222222222223
0.44,0.375,8975.0
0.13,0.215,8977.777777777777
-0.135,0.04,8980.555555555555
-0.32,-0.1,8983.333333333334
-0.425,-0.17,8986.111111111111
-0.445,-0.185,8988.888888888889
-0.435,-0.18,8991.666666666666
-0.4,-0.125,8994.444444444445
-0.365,-0.075,8997.222222222223
-0.35,-0.02,9000.0
-0.36,-0.01,9002.777777777777
-0.395,-0.015,9005.555555555555
-0.43,-0.035,9008.333333333334
-0.45,-0.08,9011.111111111111
-0.475,-0.08,9013.888888888889
-0.48,-0.06,9016.666666666666
-0.48,-0.045,9019.444444444445
-0.47,-0.045,9022.222222222223
-0.455,-0.055,9025.0
-0.44,-0.065,9027.777777777777
-0.445,-0.085,9030.555555555555
-0.45,-0.07,9033.333333333334
-0.465,-0.05,9036.111111111111
-0.465,-0.04,9038.888888888889
-0.46,-0.05,9041.666666666666
-0.47,-0.08,9044.444444444445
-0.475,-0.08,9047.222222222223
-0.48,-0.08,9050.0
-0.485,-0.07,9052.777777777777
-0.485,-0.06,9055.555555555555
-0.48,-0.08,9058.333333333334
-0.48,-0.065,9061.111111111111
-0.46,-0.075,9063.888888888889
-0.445,-0.065,9066.666666666666
-0.455,-0.06,9069.444444444445
-0.45,-0.055,9072.222222222223
-0.445,-0.075,9075.0
-0.445,-0.095,9077.777777777777
-0.455,-0.105,9080.555555555555
-0.48,-0.105,9083.333333333334
-0.475,-0.09,9086.111111111111
-0.47,-0.075,9088.888888888889
-0.46,-0.07,9091.666666666666
-0.46,-0.095,9094.444444444445
-0.45,-0.09,9097.222222222223
-0.45,-0.09,9100.0
-0.445,-0.08,9102.777777777777
-0.435,-0.08,9105.555555555555
-0.435,-0.1,9108.333333333334
-0.435,-0.115,9111.111111111111
-0.425,-0.135,9113.888888888889
-0.43,-0.135,9116.666666666666
-0.44,-0.11,9119.444444444445
-0.435,-0.1,9122.222222222223
-0.435,-0.09,9125.0
-0.435,-0.105,9127.777777777777
-0.42,-0.115,9130.555555555555
-0.42,-0.135,9133.333333333334
-0.415,-0.12,9136.111111111111
-0.415,-0.12,9138.888888888889
-0.405,-0.135,9141.666666666666
-0.405,-0.145,9144.444444444445
-0.4,-0.175,9147.222222222223
-0.4,-0.17,9150.0
-0.395,-0.16,9152.777777777777
-0.385,-0.14,9155.555555555555
-0.385,-0.15,9158.333333333334
-0.37,-0.15,9161.111111111111
-0.37,-0.175,9163.888888888889
-0.36,-0.2,9166.666666666666
-0.365,-0.19,9169.444444444445
-0.37,-0.18,9172.222222222223
-0.375,-0.18,9175.0
-0.375,-0.185,9177.777777777777
-0.37,-0.2,9180.555555555555
-0.355,-0.21,9183.333333333334
-0.355,-0.2,9186.111111111111
-0.34,-0.175,9188.888888888889
-0.34,-0.165,9191.666666666666
-0.34,-0.145,9194.444444444445
-0.33,-0.15,9197.222222222223
-0.34,-0.18,9200.0
-0.34,-0.19,9202.777777777777
-0.355,-0.18,9205.555555555555
-0.36,-0.18,9208.333333333334
-0.36,-0.185,9211.111111111111
-0.365,-0.19,9213.888888888889
-0.36,-0.205,9216.666666666666
-0.36,-0.21,9219.444444444445
-0.36,-0.19,9222.222222222223
-0.335,-0.15,9225.0
-0.33,-0.145,9227.777777777777
-0.31,-0.135,9230.555555555555
-0.295,-0.13,9233.333333333334
-0.295,-0.135,9236.111111111111
-0.285,-0.125,9238.888888888889
-0.28,-0.1,9241.666666666666
-0.29,-0.09,9244.444444444445
-0.295,-0.08,9247.222222222223
-0.295,-0.075,9250.0
-0.29,-0.08,9252.777777777777
-0.28,-0.05,9255.555555555555
-0.29,-0.035,9258.333333333334
-0.29,-0.005,9261.111111111111
-0.275,0.015,9263.888888888889
-0.25,0.0,9266.666666666666
-0.27,-0.015,9269.444444444445
-0.26,-0.02,9272.222222222223
-0.27,-0.025,9275.0
-0.28,-0.02,9277.777777777777
-0.3,-0.025,9280.555555555555
-0.315,-0.03,9283.333333333334
-0.31,-0.035,9286.111111111111
-0.305,-0.04,9288.888888888889
-0.3,-0.015,9291.666666666666
-0.295,-0.005,9294.444444444445
-0.295,-0.005,9297.222222222223
-0.285,0.01,9300.0
-0.295,-0.01,9302.777777777777
-0.295,-0.02,9305.555555555555
-0.3,-0.025,9308.333333333334
-0.305,-0.01,9311.111111111111
-0.31,0.005,9313.888888888889
-0.33,-0.005,9316.666666666666
-0.33,-0.01,9319.444444444445
-0.325,-0.025,9322.222222222223
-0.325,-0.035,9325.0
-0.325,-0.015,9327.777777777777
-0.325,0.0,9330.555555555555
-0.305,0.0,9333.333333333334
-0.3,-0.005,9336.111111111111
-0.29,-0.02,9338.888888888889
-0.285,-0.045,9341.666666666666
-0.295,-0.035,9344.444444444445
-0.31,-0.025,9347.222222222223
-0.31,-0.02,9350.0
-0.305,-0.02,9352.777777777777
-0.3,-0.025,9355.555555555555
-0.295,-0.015,9358.333333333334
-0.295,-0.015,9361.111111111111
-0.29,0.015,9363.888888888889
-0.295,0.025,9366.666666666666
-0.3,0.01,9369.444444444445
-0.285,-0.025,9372.222222222223
-0.29,-0.04,9375.0
-0.285,-0.035,9377.777777777777
-0.3,-0.02,9380.555555555555
-0.305,-0.015,9383.333333333334
-0.29,-0.005,9386.111111111111
-0.29,-0.01,9388.888888888889
-0.285,-0.01,9391.666666666666
-0.29,0.0,9394.444444444445
-0.285,0.02,9397.222222222223
-0.29,0.01,9400.0
-0.285,-0.005,9402.777777777777
-0.285,-0.035,9405.555555555555
-0.29,-0.04,9408.333333333334
-0.3,-0.035,9411.111111111111
-0.3,-0.015,9413.888888888889
-0.295,-0.025,9416.666666666666
-0.3,-0.02,9419.444444444445
-0.305,-0.02,9422.222222222223
-0.285,-0.005,9425.0
-0.295,0.0,9427.777777777777
-0.27,0.025,9430.555555555555
-0.27,0.015,9433.333333333334
-0.285,0.005,9436.111111111111
-0.275,-0.02,9438.888888888889
-0.275,-0.02,9441.666666666666
-0.295,-0.015,9444.444444444445
-0.295,-0.005,9447.222222222223
-0.27,-0.005,9450.0
-0.265,-0.015,9452.777777777777
-0.255,-0.01,9455.555555555555
-0.24,0.01,9458.333333333334
-0.235,0.05,9461.111111111111
-0.215,0.055,9463.888888888889
-0.21,0.055,9466.666666666666
-0.205,0.05,9469.444444444445
-0.19,0.045,9472.222222222223
-0.19,0.05,9475.0
-0.2,0.05,9477.777777777777
-0.17,0.045,9480.555555555555
-0.17,0.03,9483.333333333334
-0.13,0.015,9486.111111111111
-0.11,0.01,9488.888888888889
-0.105,0.015,9491.666666666666
-0.1,0.055,9494.444444444445
-0.11,0.05,9497.222222222223
-0.115,0.03,9500.0
-0.115,0.005,9502.777777777777
-0.125,-0.005,9505.555555555555
-0.135,-0.005,9508.333333333334
-0.16,-0.015,9511.111111111111
-0.18,-0.04,9513.888888888889
-0.2,-0.035,9516.666666666666
-0.215,-0.035,9519.444444444445
-0.24,-0.015,9522.222222222223
-0.245,0.015,9525.0
-0.245,0.03,9527.777777777777
-0.26,0.01,9530.555555555555
-0.27,-0.02,9533.333333333334
-0.29,-0.025,9536.111111111111
-0.31,-0.02,9538.888888888889
-0.325,-0.02,9541.666666666666
-0.335,-0.035,9544.444444444445
-0.345,-0.035,9547.222222222223
-0.36,-0.05,9550.0
-0.355,-0.045,9552.777777777777
-0.355,-0.035,9555.555555555555
-0.35,-0.005,9558.333333333334
-0.35,-0.005,9561.111111111111
-0.33,-0.005,9563.888888888889
-0.32,-0.03,9566.666666666666
-0.335,-0.04,9569.444444444445
-0.33,-0.035,9572.222222222223
-0.355,-0.025,9575.0
-0.365,-0.035,9577.777777777777
-0.38,-0.06,9580.555555555555
-0.385,-0.07,9583.333333333334
-0.4,-0.085,9586.111111111111
-0.39,-0.065,9588.888888888889
-0.38,-0.035,9591.666666666666
-0.32,-0.015,9594.444444444445
-0.235,-0.01,9597.222222222223
-0.13,-0.035,9600.0
0.04,-0.065,9602.777777777777
0.245,-0.08,9605.555555555555
0.485,-0.08,9608.333333333334
0.745,-0.055,9611.111111111111
0.99,0.01,9613.888888888889
1.235,0.12,9616.666666666666
1.385,0.25,9619.444444444445
1.395,0.4,9622.222222222223
1.28,0.505,9625.0
1.065,0.55,9627.777777777777
0.755,0.505,9630.555555555555
0.43,0.385,9633.333333333334
0.105,0.23,9636.111111111111
-0.12,0.075,9638.888888888889
-0.295,-0.045,9641.666666666666
-0.395,-0.145,9644.444444444445
-0.425,-0.2,9647.222222222223
-0.415,-0.195,9650.0
-0.39,-0.14,9652.777777777777
-0.365,-0.075,9655.555555555555
-0.33,-0.025,9658.333333333334
-0.32,0.0,9661.111111111111
-0.34,-0.005,9663.888888888889
-0.355,-0.03,9666.666666666666
-0.365,-0.035,9669.444444444445
-0.395,-0.045,9672.222222222223
-0.405,-0.03,9675.0
-0.415,-0.025,9677.777777777777
-0.415,-0.035,9680.555555555555
-0.435,-0.05,9683.333333333334
-0.415,-0.075,9686.111111111111
-0.41,-0.06,9688.888888888889
-0.415,-0.05,9691.666666666666
-0.41,-0.03,9694.444444444445
-0.405,-0.025,9697.222222222223
-0.4,-0.045,9700.0
-0.39,-0.05,9702.777777777777
-0.4,-0.055,9705.555555555555
-0.4,-0.035,9708.333333333334
-0.395,-0.03,9711.111111111111
-0.405,-0.05,9713.888888888889
-0.415,-0.06,9716.666666666666
-0.41,-0.07,9719.444444444445
-0.405,-0.06,9722.222222222223
-0.415,-0.035,9725.0
-0.425,-0.02,9727.777777777777
-0.4,-0.015,9730.555555555555
-0.395,-0.035,9733.333333333334
-0.38,-0.065,9736.111111111111
-0.38,-0.07,9738.888888888889
-0.39,-0.08,9741.666666666666
-0.39,-0.075,9744.444444444445
-0.385,-0.07,9747.222222222223
-0.385,-0.085,9750.0
-0.39,-0.095,9752.777777777777
-0.395,-0.08,9755.555555555555
-0.4,-0.07,9758.333333333334
-0.385,-0.045,9761.111111111111
-0.385,-0.05,9763.888888888889
-0.37,-0.06,9766.666666666666
-0.37,-0.06,9769.444444444445
-0.365,-0.065,9772.222222222223
-0.385,-0.075,9775.0
-0.385,-0.09,9777.777777777777
-0.385,-0.095,9780.555555555555
-0.375,-0.12,9783.333333333334
-0.36,-0.135,9786.111111111111
-0.365,-0.115,9788.888888888889
-0.35,-0.09,9791.666666666666
-0.335,-0.085,9794.444444444445
-0.32,-0.08,9797.222222222223
-0.315,-0.1,9800.0
-0.315,-0.11,9802.777777777777
-0.32,-0.115,9805.555555555555
-0.325,-0.125,9808.333333333334
-0.34,-0.14,9811.111111111111
-0.335,-0.145,9813.888888888889
-0.33,-0.165,9816.666666666666
-0.32,-0.175,9819.444444444445
-0.315,-0.16,9822.222222222223
-0.305,-0.135,9825.0
-0.3,-0.125,9827.777777777777
-0.29,-0.115,9830.555555555555
-0.28,-0.135,9833.333333333334
-0.28,-0.14,9836.111111111111
-0.29,-0.145,9838.888888888889
-0.3,-0.145,9841.666666666666
-0.3,-0.13,9844.444444444445
-0.3,-0.15,9847.222222222223
-0.3,-0.155,9850.0
-0.295,-0.165,9852.777777777777
-0.275,-0.16,9855.555555555555
-0.285,-0.135,9858.333333333334
-0.285,-0.12,9861.111111111111
-0.265,-0.12,9863.888888888889
-0.27,-0.115,9866.666666666666
-0.275,-0.135,9869.444444444445
-0.27,-0.135,9872.222222222223
-0.27,-0.135,9875.0
-0.28,-0.12,9877.777777777777
-0.275,-0.135,9880.555555555555
-0.27,-0.125,9883.333333333334
-0.255,-0.12,9886.111111111111
-0.235,-0.09,9888.888888888889
-0.22,-0.065,9891.666666666666
-0.2,-0.02,9894.444444444445
-0.195,-0.005,9897.222222222223
-0.17,-0.015,9900.0
-0.17,-0.035,9902.777777777777
-0.175,-0.035,9905.555555555555
-0.19,-0.015,9908.333333333334
-0.21,0.0,9911.111111111111
-0.205,0.01,9913.888888888889
-0.22,-0.005,9916.666666666666
-0.195,-0.01,9919.444444444445
-0.195,-0.01,9922.222222222223
-0.185,0.01,9925.0
-0.195,0.035,9927.777777777777
-0.19,0.045,9930.555555555555
-0.185,0.03,9933.333333333334
-0.19,0.025,9936.111111111111
-0.19,0.015,9938.888888888889
-0.21,0.02,9941.666666666666
-0.21,0.04,9944.444444444445
-0.235,0.05,9947.222222222223
-0.23,0.04,9950.0
-0.24,0.035,9952.777777777777
-0.235,0.025,9955.555555555555
-0.23,0.025,9958.333333333334
-0.225,0.04,9961.111111111111
-0.225,0.055,9963.888888888889
-0.21,0.055,9966.666666666666
-0.21,0.045,9969.444444444445
-0.205,0.02,9972.222222222223
-0.205,-0.005,9975.0
-0.21,0.0,9977.777777777777
-0.215,0.01,9980.555555555555
-0.225,0.025,9983.333333333334
-0.22,0.02,9986.111111111111
-0.235,0.015,9988.888888888889
-0.21,0.01,9991.666666666666
-0.205,0.03,9994.444444444445
-0.205,0.05,9997.222222222223
-0.2,0.06,10000.0
-0.2,0.07,10002.777777777777
-0.205,0.035,10005.555555555555
-0.215,0.025,10008.333333333334
-0.205,0.015,10011.111111111111
-0.22,0.015,10013.888888888889
-0.215,0.025,10016.666666666666
-0.21,0.035,10019.444444444445
-0.195,0.03,10022.222222222223
-0.215,0.025,10025.0
-0.195,0.02,10027.777777777777
-0.215,0.02,10030.555555555555
-0.215,0.035,10033.333333333334
-0.21,0.045,10036.111111111111
-0.21,0.035,10038.888888888889
-0.205,0.015,10041.666666666666
-0.215,0.005,10044.444444444445
-0.21,0.0,10047.222222222223
-0.21,0.02,10050.0
-0.205,0.025,10052.777777777777
-0.2,0.02,10055.555555555555
-0.195,0.04,10058.333333333334
-0.195,0.03,10061.111111111111
-0.2,0.045,10063.888888888889
-0.19,0.045,10066.666666666666
-0.2,0.045,10069.444444444445
-0.2,0.055,10072.222222222223
-0.21,0.03,10075.0
-0.22,0.01,10077.777777777777
-0.215,-0.005,10080.555555555555
-0.225,0.01,10083.333333333334
-0.225,0.03,10086.111111111111
-0.22,0.035,10088.888888888889
-0.205,0.035,10091.666666666666
-0.19,0.02,10094.444444444445
-0.195,0.02,10097.222222222223
-0.185,0.03,10100.0
-0.2,0.04,10102.777777777777
-0.205,0.05,10105.555555555555
-0.215,0.04,10108.333333333334
-0.21,0.025,10111.111111111111
-0.215,0.01,10113.888888888889
-0.225,0.025,10116.666666666666
-0.21,0.05,10119.444444444445
-0.195,0.075,10122.222222222223
-0.18,0.105,10125.0
-0.17,0.1,10127.777777777777
-0.15,0.095,10130.555555555555
-0.14,0.08,10133.333333333334
-0.135,0.09,10136.111111111111
-0.13,0.095,10138.888888888889
-0.135,0.095,10141.666666666666
-0.11,0.08,10144.444444444445
-0.1,0.05,10147.222222222223
-0.08,0.04,10150.0
-0.085,0.035,10152.777777777777
-0.07,0.045,10155.555555555555
-0.08,0.05,10158.333333333334
-0.07,0.055,10161.111111111111
-0.07,0.04,10163.888888888889
-0.065,0.04,10166.666666666666
-0.065,0.03,10169.444444444445
-0.065,0.03,10172.222222222223
-0.085,0.04,10175.0
-0.09,0.015,10177.777777777777
-0.105,0.0,10180.555555555555
-0.14,-0.01,10183.333333333334
-0.165,0.0,10186.111111111111
-0.185,0.03,10188.888888888889
-0.205,0.05,10191.666666666666
-0.225,0.045,10194.444444444445
-0.23,0.035,10197.222222222223
-0.245,0.015,10200.0
-0.245,0.02,10202.777777777777
-0.27,0.02,10205.555555555555
-0.28,0.02,10208.333333333334
-0.29,-0.01,10211.111111111111
-0.295,-0.025,10213.888888888889
-0.315,-0.025,10216.666666666666
-0.32,-0.02,10219.444444444445
-0.32,-0.01,10222.222222222223
-0.31,0.015,10225.0
-0.31,0.015,10227.777777777777
-0.305,0.005,10230.555555555555
-0.305,0.01,10233.333333333334
-0.31,0.0,10236.111111111111
-0.32,0.005,10238.888888888889
-0.305,0.0,10241.666666666666
-0.33,-0.025,10244.444444444445
-0.34,-0.05,10247.222222222223
-0.35,-0.05,10250.0
-0.37,-0.05,10252.777777777777
-0.375,-0.03,10255.555555555555
-0.36,0.005,10258.333333333334
-0.315,0.03,10261.111111111111
-0.225,0.02,10263.888888888889
-0.12,0.01,10266.666666666666
0.025,-0.015,10269.444444444445
0.22,-0.04,10272.222222222223
0.43,-0.055,10275.0
0.685,-0.05,10277.777777777777
0.94,-0.03,10280.555555555555
1.17,0.03,10283.333333333334
1.355,0.125,10286.111111111111
1.45,0.255,10288.888888888889
1.43,0.365,10291.666666666666
1.28,0.45,10294.444444444445
1.015,0.46,10297.222222222223
0.68,0.395,10300.0
0.34,0.29,10302.777777777777
0.035,0.15,10305.555555555555
-0.18,0.01,10308.333333333334
-0.315,-0.09,10311.111111111111
-0.385,-0.15,10313.888888888889
-0.4,-0.165,10316.666666666666
-0.375,-0.13,10319.444444444445
-0.34,-0.065,10322.222222222223
-0.325,-0.01,10325.0
-0.305,0.01,10327.777777777777
-0.325,0.01,10330.555555555555
-0.345,-0.005,10333.333333333334
-0.375,-0.015,10336.111111111111
-0.415,-0.015,10338.888888888889
-0.44,-0.025,10341.666666666666
-0.435,-0.04,10344.444444444445
-0.44,-0.04,10347.222222222223
-0.44,-0.05,10350.0
-0.435,-0.03,10352.777777777777
-0.435,-0.005,10355.555555555555
-0.435,0.0,10358.333333333334
-0.445,0.0,10361.111111111111
-0.425,-0.01,10363.888888888889
-0.42,-0.015,10366.666666666666
-0.42,-0.03,10369.444444444445
-0.43,0.0,10372.222222222223
-0.435,0.005,10375.0
-0.44,-0.02,10377.777777777777
-0.445,-0.03,10380.555555555555
-0.455,-0.045,10383.333333333334
-0.465,-0.04,10386.111111111111
-0.465,-0.025,10388.888888888889
-0.46,-0.01,10391.666666666666
-0.455,-0.02,10394.444444444445
-0.435,-0.04,10397.222222222223
-0.425,-0.05,10400.0
-0.42,-0.035,10402.777777777777
-0.425,-0.035,10405.555555555555
-0.435,-0.035,10408.333333333334
-0.455,-0.05,10411.111111111111
-0.46,-0.05,10413.888888888889
-0.455,-0.045,10416.666666666666
-0.465,-0.04,10419.444444444445
-0.465,-0.03,10422.222222222223
-0.455,-0.03,10425.0
-0.44,-0.045,10427.777777777777
-0.43,-0.065,10430.555555555555
-0.42,-0.05,10433.333333333334
-0.42,-0.045,10436.111111111111
-0.41,-0.045,10438.888888888889
-0.415,-0.065,10441.666666666666
-0.42,-0.09,10444.444444444445
-0.41,-0.1,10447.222222222223
-0.425,-0.11,10450.0
-0.435,-0.09,10452.777777777777
-0.43,-0.07,10455.555555555555
-0.43,-0.07,10458.333333333334
-0.415,-0.085,10461.111111111111
-0.415,-0.08,10463.888888888889
-0.39,-0.07,10466.666666666666
-0.39,-0.09,10469.444444444445
-0.395,-0.08,10472.222222222223
-0.395,-0.115,10475.0
-0.38,-0.14,10477.777777777777
-0.39,-0.155,10480.555555555555
-0.39,-0.145,10483.333333333334
-0.39,-0.135,10486.111111111111
-0.385,-0.12,10488.888888888889
-0.385,-0.125,10491.666666666666
-0.375,-0.13,10494.444444444445
-0.37,-0.14,10497.222222222223
-0.365,-0.125,10500.0
-0.355,-0.125,10502.777777777777
-0.355,-0.13,10505.555555555555
-0.365,-0.14,10508.333333333334
-0.355,-0.15,10511.111111111111
-0.35,-0.17,10513.888888888889
-0.355,-0.17,10516.666666666666
-0.375,-0.155,10519.444444444445
-0.37,-0.135,10522.222222222223
-0.365,-0.13,10525.0
-0.37,-0.145,10527.777777777777
-0.36,-0.135,10530.555555555555
-0.355,-0.115,10533.333333333334
-0.355,-0.105,10536.111111111111
-0.36,-0.1,10538.888888888889
-0.36,-0.11,10541.666666666666
-0.36,-0.125,10544.444444444445
-0.37,-0.13,10547.222222222223
-0.365,-0.11,10550.0
-0.345,-0.08,10552.777777777777
-0.34,-0.06,10555.555555555555
-0.325,-0.045,10558.333333333334
-0.305,-0.05,10561.111111111111
-0.285,-0.03,10563.888888888889
-0.29,-0.015,10566.666666666666
-0.295,0.01,10569.444444444445
-0.3,0.015,10572.222222222223
-0.305,0.005,10575.0
-0.31,-0.005,10577.777777777777
-0.32,-0.01,10580.555555555555
-0.32,-0.005,10583.333333333334
-0.325,0.01,10586.111111111111
-0.33,0.03,10588.888888888889
-0.32,0.03,10591.666666666666
-0.32,0.03,10594.444444444445
-0.32,0.05,10597.222222222223
-0.315,0.06,10600.0
-0.325,0.065,10602.777777777777
-0.335,0.055,10605.555555555555
-0.345,0.015,10608.333333333334
-0.345,0.01,10611.111111111111
-0.365,0.005,10613.888888888889
-0.365,0.01,10616.666666666666
-0.37,0.02,10619.444444444445
-0.36,0.025,10622.222222222223
-0.345,0.02,10625.0
-0.345,0.035,10627.777777777777
-0.33,0.05,10630.555555555555
-0.335,0.06,10633.333333333334
-0.34,0.075,10636.111111111111
-0.34,0.05,10638.888888888889
-0.35,0.015,10641.666666666666
-0.355,0.01,10644.444444444445
-0.36,-0.005,10647.222222222223
-0.375,0.025,10650.0
-0.385,0.03,10652.777777777777
-0.37,0.035,10655.555555555555
-0.365,0.02,10658.333333333334
-0.36,0.02,10661.111111111111
-0.35,0.045,10663.888888888889
-0.335,0.06,10666.666666666666
-0.34,0.055,10669.444444444445
-0.34,0.035,10672.222222222223
-0.335,0.01,10675.0
-0.34,-0.015,10677.777777777777
-0.35,-0.005,10680.555555555555
-0.37,0.01,10683.333333333334
-0.365,0.02,10686.111111111111
-0.36,0.02,10688.888888888889
-0.365,0.015,10691.666666666666
-0.355,0.015,10694.444444444445
-0.345,0.035,10697.222222222223
-0.345,0.06,10700.0
-0.35,0.06,10702.777777777777
-0.335,0.04,10705.555555555555
-0.335,0.02,10708.333333333334
-0.35,0.0,10711.111111111111
-0.355,0.005,10713.888888888889
-0.365,0.02,10716.666666666666
-0.365,0.025,10719.444444444445
-0.37,0.035,10722.222222222223
-0.355,0.005,10725.0
-0.355,0.015,10727.777777777777
-0.35,0.03,10730.555555555555
-0.345,0.04,10733.333333333334
-0.335,0.06,10736.111111111111
-0.34,0.035,10738.888888888889
-0.34,0.025,10741.666666666666
-0.345,0.01,10744.444444444445
-0.355,0.02,10747.222222222223
-0.365,0.015,10750.0
-0.37,0.035,10752.777777777777
-0.38,0.02,10755.555555555555
-0.365,0.025,10758.333333333334
-0.355,0.03,10761.111111111111
-0.355,0.05,10763.888888888889
-0.325,0.075,10766.666666666666
-0.315,0.1,10769.444444444445
-0.3,0.095,10772.222222222223
-0.295,0.085,10775.0
-0.29,0.085,10777.777777777777
-0.29,0.07,10780.555555555555
-0.295,0.075,10783.333333333334
-0.285,0.09,10786.111111111111
-0.275,0.09,10788.888888888889
-0.255,0.075,10791.666666666666
-0.235,0.075,10794.444444444445
-0.22,0.085,10797.222222222223
-0.195,0.08,10800.0
-0.19,0.08,10802.777777777777
-0.185,0.055,10805.555555555555
-0.195,0.025,10808.333333333334
-0.2,0.0,10811.111111111111
-0.21,0.005,10813.888888888889
-0.22,0.025,10816.666666666666
-0.215,0.05,10819.444444444445
-0.215,0.04,10822.222222222223
-0.22,0.035,10825.0
-0.23,0.015,10827.777777777777
-0.25,0.015,10830.555555555555
-0.275,0.02,10833.333333333334
-0.305,0.025,10836.111111111111
-0.33,0.035,10838.888888888889
-0.34,0.01,10841.666666666666
-0.36,0.01,10844.444444444445
-0.375,0.01,10847.222222222223
-0.395,0.015,10850.0
-0.415,0.025,10852.777777777777
-0.415,0.025,10855.555555555555
-0.415,0.015,10858.333333333334
-0.43,0.0,10861.111111111111
-0.43,0.01,10863.888888888889
-0.43,0.02,10866.666666666666
-0.445,0.025,10869.444444444445
-0.445,0.015,10872.222222222223
-0.45,0.005,10875.0
-0.46,-0.005,10877.777777777777
-0.47,-0.005,10880.555555555555
-0.475,0.005,10883.333333333334
-0.48,0.015,10886.111111111111
-0.465,0.02,10888.888888888889
-0.455,0.015,10891.666666666666
-0.475,-0.01,10894.444444444445
-0.47,-0.005,10897.222222222223
-0.475,0.0,10900.0
-0.49,-0.005,10902.777777777777
-0.51,-0.005,10905.555555555555
-0.48,-0.015,10908.333333333334
-0.445,-0.025,10911.111111111111
-0.385,-0.015,10913.888888888889
-0.31,-0.005,10916.666666666666
-0.175,-0.02,10919.444444444445
0.01,-0.04,10922.222222222223
0.26,-0.06,10925.0
0.525,-0.055,10927.777777777777
0.79,0.0,10930.555555555555
1.04,0.08,10933.333333333334
1.235,0.19,10936.111111111111
1.335,0.28,10938.888888888889
1.3,0.355,10941.666666666666
1.13,0.4,10944.444444444445
0.85,0.425,10947.222222222223
0.505,0.365,10950.0
0.16,0.25,10952.777777777777
-0.125,0.12,10955.555555555555
-0.325,-0.03,10958.333333333334
-0.45,-0.12,10961.111111111111
-0.49,-0.155,10963.888888888889
-0.485,-0.115,10966.666666666666
-0.47,-0.06,10969.444444444445
-0.445,-0.01,10972.222222222223
-0.44,0.005,10975.0
-0.455,0.0,10977.777777777777
-0.49,0.0,10980.555555555555
-0.52,0.005,10983.333333333334
-0.545,0.01,10986.111111111111
-0.56,0.015,10988.888888888889
-0.57,-0.005,10991.666666666666
-0.565,-0.01,10994.444444444445
-0.555,0.0,10997.222222222223
-0.545,0.015,11000.0
-0.53,0.02,11002.777777777777
-0.545,0.01,11005.555555555555
-0.545,-0.005,11008.333333333334
-0.54,-0.025,11011.111111111111
-0.55,-0.03,11013.888888888889
-0.575,-0.03,11016.666666666666
-0.58,-0.005,11019.444444444445
-0.58,0.005,11022.222222222223
-0.57,0.0,11025.0
-0.575,0.0,11027.777777777777
-0.555,0.0,11030.555555555555
-0.545,-0.005,11033.333333333334
-0.54,0.0,11036.111111111111
-0.545,-0.015,11038.888888888889
-0.535,-0.015,11041.666666666666
-0.55,-0.03,11044.444444444445
-0.545,-0.035,11047.222222222223
-0.555,-0.025,11050.0
-0.565,-0.01,11052.777777777777
-0.57,0.01,11055.555555555555
-0.565,0.0,11058.333333333334
-0.55,-0.015,11061.111111111111
-0.54,-0.015,11063.888888888889
-0.53,-0.01,11066.666666666666
-0.54,-0.015,11069.444444444445
-0.54,-0.01,11072.222222222223
-0.53,-0.025,11075.0
-0.525,-0.05,11077.777777777777
-0.53,-0.06,11080.555555555555
-0.53,-0.06,11083.333333333334
-0.545,-0.05,11086.111111111111
-0.54,-0.045,11088.888888888889
-0.54,-0.07,11091.666666666666
-0.53,-0.055,11094.444444444445
-0.52,-0.045,11097.222222222223
-0.51,-0.035,11100.0
-0.515,-0.025,11102.777777777777
-0.5,-0.035,11105.555555555555
-0.505,-0.06,11108.333333333334
-0.495,-0.075,11111.111111111111
-0.49,-0.095,11113.888888888889
-0.495,-0.08,11116.666666666666
-0.495,-0.085,11119.444444444445
-0.495,-0.09,11122.222222222223
-0.49,-0.095,11125.0
-0.495,-0.115,11127.777777777777
-0.485,-0.1,11130.555555555555
-0.48,-0.085,11133.333333333334
-0.465,-0.105,11136.111111111111
-0.46,-0.1,11138.888888888889
-0.465,-0.13,11141.666666666666
-0.46,-0.14,11144.444444444445
-0.46,-0.14,11147.222222222223
-0.465,-0.13,11150.0
-0.455,-0.135,11152.777777777777
-0.455,-0.135,11155.555555555555
-0.45,-0.14,11158.333333333334
-0.445,-0.13,11161.111111111111
-0.445,-0.1,11163.888888888889
-0.435,-0.085,11166.666666666666
-0.44,-0.085,11169.444444444445
-0.43,-0.11,11172.222222222223
-0.435,-0.125,11175.0
-0.45,-0.14,11177.777777777777
-0.45,-0.14,11180.555555555555
-0.455,-0.12,11183.333333333334
-0.47,-0.115,11186.111111111111
-0.465,-0.105,11188.888888888889
-0.45,-0.1,11191.666666666666
-0.425,-0.09,11194.444444444445
-0.415,-0.06,11197.222222222223
-0.41,-0.04,11200.0
-0.4,-0.025,11202.777777777777
-0.395,-0.02,11205.555555555555
-0.395,-0.035,11208.333333333334
-0.4,-0.025,11211.111111111111
-0.4,-0.01,11213.888888888889
-0.41,0.015,11216.666666666666
-0.405,0.03,11219.444444444445
-0.415,0.015,11222.222222222223
-0.395,0.025,11225.0
-0.395,0.045,11227.777777777777
-0.395,0.065,11230.555555555555
-0.395,0.075,11233.333333333334
-0.39,0.055,11236.111111111111
-0.39,0.045,11238.888888888889
-0.4,0.045,11241.666666666666
-0.41,0.04,11244.444444444445
-0.415,0.065,11247.222222222223
-0.435,0.05,11250.0
-0.445,0.04,11252.777777777777
-0.41,0.04,11255.555555555555
-0.41,0.045,11258.333333333334
-0.415,0.06,11261.111111111111
-0.425,0.07,11263.888888888889
-0.405,0.075,11266.666666666666
-0.415,0.06,11269.444444444445
-0.415,0.05,11272.222222222223
-0.43,0.05,11275.0
-0.435,0.05,11277.777777777777
-0.445,0.05,11280.555555555555
-0.445,0.03,11283.333333333334
-0.435,0.015,11286.111111111111
-0.43,0.025,11288.888888888889
-0.43,0.05,11291.666666666666
-0.415,0.065,11294.444444444445
-0.41,0.065,11297.222222222223
-0.395,0.06,11300.0
-0.4,0.05,11302.777777777777
-0.4,0.05,11305.555555555555
-0.42,0.055,11308.333333333334
-0.43,0.06,11311.111111111111
-0.445,0.05,11313.888888888889
-0.435,0.035,11316.666666666666
-0.45,0.015,11319.444444444445
-0.435,0.025,11322.222222222223
-0.42,0.05,11325.0
-0.42,0.055,11327.777777777777
-0.42,0.07,11330.555555555555
-0.41,0.065,11333.333333333334
-0.41,0.045,11336.111111111111
-0.415,0.065,11338.888888888889
-0.415,0.07,11341.666666666666
-0.42,0.075,11344.444444444445
-0.425,0.05,11347.222222222223
-0.42,0.05,11350.0
-0.43,0.03,11352.777777777777
-0.425,0.04,11355.555555555555
-0.43,0.07,11358.333333333334
-0.42,0.075,11361.111111111111
-0.4,0.075,11363.888888888889
-0.395,0.06,11366.666666666666
-0.39,0.04,11369.444444444445
-0.39,0.055,11372.222222222223
-0.4,0.065,11375.0
-0.405,0.04,11377.777777777777
-0.425,0.025,11380.555555555555
-0.43,0.03,11383.333333333334
-0.435,0.04,11386.111111111111
-0.44,0.06,11388.888888888889
-0.44,0.08,11391.666666666666
-0.425,0.085,11394.444444444445
-0.41,0.08,11397.222222222223
-0.395,0.07,11400.0
-0.38,0.08,11402.777777777777
-0.37,0.095,11405.555555555555
-0.37,0.095,11408.333333333334
-0.37,0.1,11411.111111111111
-0.365,0.08,11413.888888888889
-0.355,0.075,11416.666666666666
-0.355,0.1,11419.444444444445
-0.35,0.105,11422.222222222223
-0.33,0.12,11425.0
-0.33,0.115,11427.777777777777
-0.305,0.125,11430.555555555555
-0.28,0.11,11433.333333333334
